frequency,raw,error,smoothed,error_smoothed,equalization,parametric_eq,fixed_band_eq,equalized_raw,equalized_smoothed,target
20.00,5.38,-4.96,5.39,-4.96,4.98,-0.01,1.53,10.37,10.37,10.35
20.20,5.40,-4.95,5.40,-4.95,4.95,-0.01,1.58,10.35,10.35,10.35
20.40,5.42,-4.93,5.41,-4.93,4.92,-0.01,1.63,10.34,10.33,10.34
20.61,5.43,-4.91,5.44,-4.90,4.88,-0.01,1.68,10.32,10.33,10.34
20.81,5.48,-4.86,5.48,-4.87,4.85,-0.01,1.73,10.32,10.32,10.34
21.02,5.52,-4.82,5.52,-4.82,4.81,-0.01,1.78,10.33,10.33,10.34
21.23,5.57,-4.76,5.57,-4.77,4.77,-0.01,1.83,10.34,10.34,10.34
21.44,5.62,-4.71,5.62,-4.71,4.72,-0.01,1.89,10.34,10.34,10.33
21.66,5.66,-4.66,5.66,-4.66,4.67,-0.01,1.94,10.33,10.33,10.33
21.87,5.71,-4.61,5.71,-4.61,4.62,-0.01,2.00,10.32,10.32,10.32
22.09,5.75,-4.56,5.75,-4.56,4.56,-0.01,2.06,10.32,10.32,10.32
22.31,5.79,-4.51,5.79,-4.51,4.51,-0.01,2.12,10.31,10.31,10.31
22.54,5.84,-4.46,5.84,-4.46,4.46,-0.01,2.19,10.30,10.30,10.30
22.76,5.88,-4.41,5.88,-4.41,4.41,-0.01,2.25,10.29,10.29,10.29
22.99,5.92,-4.36,5.92,-4.36,4.36,-0.01,2.32,10.29,10.29,10.29
23.22,5.97,-4.31,5.97,-4.31,4.31,-0.01,2.39,10.28,10.28,10.28
23.45,6.01,-4.26,6.01,-4.26,4.27,-0.01,2.45,10.27,10.27,10.27
23.69,6.05,-4.22,6.04,-4.22,4.22,-0.01,2.52,10.27,10.27,10.26
23.92,6.08,-4.17,6.08,-4.18,4.18,-0.01,2.60,10.26,10.26,10.26
24.16,6.12,-4.13,6.12,-4.13,4.13,-0.01,2.67,10.25,10.25,10.25
24.40,6.15,-4.09,6.15,-4.09,4.09,-0.01,2.74,10.24,10.24,10.24
24.65,6.18,-4.05,6.18,-4.05,4.05,-0.01,2.82,10.23,10.23,10.23
24.89,6.21,-4.01,6.21,-4.01,4.01,-0.01,2.89,10.22,10.22,10.22
25.14,6.24,-3.97,6.24,-3.97,3.97,-0.01,2.97,10.21,10.21,10.21
25.39,6.27,-3.93,6.27,-3.93,3.93,-0.01,3.05,10.20,10.20,10.20
25.65,6.30,-3.89,6.30,-3.89,3.89,-0.01,3.12,10.19,10.19,10.19
25.91,6.33,-3.85,6.33,-3.85,3.85,-0.01,3.20,10.18,10.18,10.18
26.16,6.36,-3.81,6.36,-3.81,3.81,-0.01,3.28,10.17,10.17,10.17
26.43,6.40,-3.77,6.39,-3.77,3.77,-0.01,3.35,10.17,10.17,10.16
26.69,6.43,-3.73,6.43,-3.73,3.73,-0.01,3.43,10.15,10.15,10.15
26.96,6.45,-3.69,6.45,-3.69,3.69,-0.01,3.50,10.14,10.14,10.14
27.23,6.48,-3.65,6.48,-3.65,3.65,-0.01,3.57,10.13,10.13,10.13
27.50,6.51,-3.61,6.51,-3.61,3.60,-0.01,3.64,10.12,10.12,10.12
27.77,6.54,-3.56,6.54,-3.56,3.56,-0.02,3.70,10.10,10.10,10.11
28.05,6.58,-3.52,6.58,-3.52,3.51,-0.02,3.77,10.09,10.09,10.09
28.33,6.61,-3.47,6.61,-3.47,3.47,-0.02,3.82,10.08,10.08,10.08
28.62,6.64,-3.42,6.64,-3.42,3.42,-0.02,3.88,10.06,10.06,10.06
28.90,6.67,-3.37,6.67,-3.37,3.38,-0.02,3.93,10.05,10.05,10.05
29.19,6.71,-3.33,6.71,-3.33,3.33,-0.02,3.97,10.04,10.04,10.03
29.48,6.73,-3.28,6.73,-3.28,3.29,-0.02,4.01,10.02,10.02,10.02
29.78,6.76,-3.24,6.76,-3.24,3.24,-0.02,4.04,10.00,10.00,10.00
30.08,6.79,-3.20,6.79,-3.20,3.20,-0.02,4.07,9.99,9.99,9.99
30.38,6.81,-3.16,6.81,-3.16,3.16,-0.02,4.09,9.97,9.97,9.97
30.68,6.84,-3.12,6.84,-3.12,3.12,-0.02,4.10,9.95,9.95,9.95
30.99,6.86,-3.08,6.86,-3.08,3.08,-0.02,4.11,9.94,9.94,9.94
31.30,6.88,-3.04,6.88,-3.04,3.04,-0.02,4.11,9.92,9.92,9.92
31.61,6.90,-3.00,6.90,-3.00,3.00,-0.02,4.10,9.90,9.90,9.90
31.93,6.93,-2.95,6.93,-2.95,2.95,-0.02,4.08,9.88,9.88,9.88
32.24,6.95,-2.91,6.95,-2.91,2.91,-0.02,4.07,9.86,9.86,9.86
32.57,6.97,-2.87,6.97,-2.87,2.87,-0.02,4.04,9.83,9.83,9.84
32.89,6.99,-2.82,6.99,-2.82,2.82,-0.02,4.00,9.81,9.81,9.81
33.22,7.01,-2.78,7.01,-2.78,2.78,-0.02,3.96,9.79,9.79,9.79
33.55,7.02,-2.74,7.02,-2.74,2.74,-0.02,3.92,9.76,9.76,9.76
33.89,7.04,-2.69,7.04,-2.69,2.70,-0.02,3.86,9.74,9.74,9.74
34.23,7.06,-2.65,7.06,-2.65,2.65,-0.02,3.81,9.72,9.72,9.71
34.57,7.08,-2.61,7.08,-2.61,2.61,-0.02,3.74,9.69,9.69,9.69
34.92,7.10,-2.57,7.10,-2.57,2.57,-0.02,3.68,9.67,9.67,9.67
35.27,7.12,-2.53,7.12,-2.53,2.53,-0.03,3.61,9.65,9.65,9.65
35.62,7.13,-2.49,7.13,-2.49,2.49,-0.03,3.54,9.62,9.62,9.63
35.97,7.15,-2.45,7.15,-2.45,2.45,-0.03,3.46,9.60,9.60,9.60
36.33,7.17,-2.41,7.17,-2.41,2.41,-0.03,3.38,9.57,9.57,9.57
36.70,7.18,-2.36,7.18,-2.36,2.36,-0.03,3.30,9.55,9.55,9.55
37.06,7.20,-2.32,7.20,-2.32,2.32,-0.03,3.22,9.52,9.52,9.52
37.43,7.21,-2.28,7.21,-2.28,2.28,-0.03,3.14,9.49,9.49,9.49
37.81,7.22,-2.24,7.22,-2.24,2.24,-0.03,3.06,9.46,9.46,9.46
38.19,7.24,-2.19,7.24,-2.19,2.20,-0.03,2.97,9.43,9.43,9.43
38.57,7.25,-2.15,7.25,-2.15,2.15,-0.03,2.89,9.40,9.40,9.40
38.95,7.26,-2.11,7.26,-2.11,2.11,-0.03,2.80,9.38,9.38,9.38
39.34,7.27,-2.08,7.27,-2.08,2.08,-0.03,2.72,9.35,9.35,9.35
39.74,7.29,-2.04,7.29,-2.04,2.04,-0.03,2.64,9.32,9.32,9.32
40.14,7.30,-2.00,7.30,-2.00,2.00,-0.03,2.55,9.29,9.29,9.30
40.54,7.31,-1.96,7.31,-1.96,1.96,-0.03,2.47,9.27,9.27,9.27
40.94,7.32,-1.93,7.32,-1.93,1.93,-0.04,2.39,9.24,9.24,9.24
41.35,7.32,-1.89,7.32,-1.89,1.89,-0.04,2.31,9.21,9.21,9.21
41.76,7.33,-1.85,7.33,-1.85,1.85,-0.04,2.23,9.19,9.19,9.18
42.18,7.34,-1.82,7.34,-1.82,1.82,-0.04,2.16,9.16,9.16,9.16
42.60,7.35,-1.78,7.35,-1.78,1.79,-0.04,2.08,9.13,9.13,9.13
43.03,7.35,-1.75,7.35,-1.75,1.75,-0.04,2.01,9.10,9.10,9.11
43.46,7.36,-1.72,7.36,-1.72,1.71,-0.04,1.93,9.08,9.08,9.08
43.90,7.37,-1.68,7.37,-1.68,1.68,-0.04,1.86,9.05,9.05,9.05
44.33,7.38,-1.64,7.38,-1.64,1.64,-0.04,1.79,9.02,9.02,9.02
44.78,7.38,-1.60,7.38,-1.60,1.60,-0.04,1.72,8.98,8.98,8.98
45.23,7.39,-1.56,7.39,-1.56,1.56,-0.04,1.65,8.95,8.95,8.95
45.68,7.39,-1.52,7.39,-1.52,1.52,-0.05,1.59,8.92,8.92,8.91
46.13,7.39,-1.48,7.39,-1.48,1.49,-0.05,1.52,8.88,8.88,8.88
46.60,7.39,-1.45,7.40,-1.45,1.45,-0.05,1.46,8.84,8.84,8.84
47.06,7.40,-1.41,7.40,-1.41,1.41,-0.05,1.40,8.81,8.81,8.81
47.53,7.40,-1.37,7.40,-1.37,1.37,-0.05,1.33,8.77,8.77,8.77
48.01,7.40,-1.33,7.40,-1.33,1.33,-0.05,1.28,8.74,8.74,8.74
48.49,7.41,-1.30,7.41,-1.30,1.30,-0.05,1.22,8.70,8.70,8.70
48.97,7.41,-1.26,7.41,-1.26,1.26,-0.05,1.16,8.67,8.67,8.67
49.46,7.41,-1.22,7.41,-1.22,1.22,-0.05,1.10,8.63,8.63,8.63
49.96,7.41,-1.19,7.41,-1.19,1.18,-0.06,1.05,8.59,8.59,8.59
50.46,7.41,-1.15,7.41,-1.15,1.15,-0.06,1.00,8.56,8.56,8.56
50.96,7.41,-1.11,7.41,-1.11,1.11,-0.06,0.95,8.52,8.52,8.52
51.47,7.41,-1.07,7.41,-1.07,1.08,-0.06,0.89,8.48,8.48,8.48
51.99,7.41,-1.04,7.41,-1.04,1.04,-0.06,0.85,8.45,8.45,8.44
52.51,7.40,-1.01,7.40,-1.01,1.01,-0.06,0.80,8.41,8.41,8.41
53.03,7.40,-0.97,7.40,-0.97,0.98,-0.06,0.75,8.37,8.37,8.37
53.56,7.39,-0.94,7.39,-0.94,0.94,-0.07,0.70,8.34,8.34,8.34
54.10,7.39,-0.91,7.39,-0.91,0.91,-0.07,0.66,8.30,8.30,8.30
54.64,7.38,-0.88,7.38,-0.88,0.88,-0.07,0.62,8.26,8.26,8.26
55.18,7.38,-0.85,7.38,-0.85,0.85,-0.07,0.57,8.22,8.22,8.23
55.74,7.37,-0.81,7.37,-0.81,0.81,-0.07,0.53,8.18,8.18,8.19
56.29,7.37,-0.78,7.37,-0.78,0.78,-0.07,0.49,8.15,8.14,8.15
56.86,7.37,-0.74,7.37,-0.74,0.74,-0.08,0.45,8.10,8.10,8.10
57.42,7.36,-0.70,7.36,-0.70,0.70,-0.08,0.41,8.06,8.06,8.06
58.00,7.35,-0.66,7.35,-0.66,0.67,-0.08,0.38,8.02,8.02,8.02
58.58,7.35,-0.63,7.35,-0.63,0.63,-0.08,0.34,7.98,7.98,7.98
59.16,7.34,-0.59,7.34,-0.59,0.60,-0.08,0.31,7.94,7.94,7.93
59.76,7.33,-0.56,7.33,-0.56,0.56,-0.09,0.27,7.89,7.89,7.89
60.35,7.32,-0.53,7.32,-0.53,0.53,-0.09,0.24,7.85,7.85,7.85
60.96,7.31,-0.50,7.31,-0.50,0.50,-0.09,0.21,7.81,7.81,7.81
61.57,7.30,-0.47,7.30,-0.47,0.47,-0.09,0.18,7.77,7.77,7.77
62.18,7.29,-0.44,7.29,-0.44,0.44,-0.10,0.15,7.73,7.73,7.74
62.80,7.28,-0.41,7.28,-0.41,0.41,-0.10,0.12,7.69,7.69,7.70
63.43,7.28,-0.38,7.28,-0.38,0.38,-0.10,0.09,7.65,7.65,7.65
64.07,7.27,-0.34,7.27,-0.34,0.34,-0.10,0.07,7.61,7.61,7.61
64.71,7.26,-0.31,7.26,-0.31,0.31,-0.11,0.04,7.56,7.56,7.56
65.35,7.24,-0.27,7.24,-0.27,0.27,-0.11,0.02,7.52,7.52,7.52
66.01,7.23,-0.24,7.23,-0.24,0.24,-0.11,-0.00,7.47,7.47,7.47
66.67,7.22,-0.20,7.22,-0.20,0.20,-0.12,-0.03,7.42,7.42,7.42
67.33,7.21,-0.16,7.21,-0.16,0.16,-0.12,-0.05,7.37,7.37,7.37
68.01,7.19,-0.13,7.19,-0.13,0.13,-0.12,-0.07,7.32,7.32,7.32
68.69,7.18,-0.10,7.18,-0.10,0.09,-0.13,-0.09,7.27,7.27,7.27
69.37,7.16,-0.06,7.16,-0.06,0.06,-0.13,-0.11,7.22,7.22,7.23
70.07,7.15,-0.03,7.15,-0.03,0.03,-0.13,-0.13,7.17,7.17,7.18
70.77,7.13,0.01,7.13,0.01,-0.00,-0.14,-0.15,7.13,7.13,7.12
71.48,7.11,0.04,7.11,0.04,-0.03,-0.14,-0.17,7.08,7.08,7.07
72.19,7.10,0.07,7.10,0.07,-0.06,-0.14,-0.19,7.03,7.03,7.03
72.91,7.08,0.09,7.08,0.09,-0.09,-0.15,-0.20,6.98,6.98,6.98
73.64,7.06,0.12,7.06,0.12,-0.12,-0.15,-0.22,6.94,6.94,6.94
74.38,7.04,0.15,7.04,0.15,-0.15,-0.16,-0.24,6.89,6.89,6.89
75.12,7.02,0.17,7.02,0.17,-0.17,-0.16,-0.26,6.85,6.85,6.85
75.87,7.00,0.20,7.00,0.20,-0.20,-0.17,-0.27,6.80,6.80,6.80
76.63,6.98,0.22,6.98,0.22,-0.22,-0.17,-0.29,6.76,6.76,6.76
77.40,6.96,0.25,6.96,0.25,-0.25,-0.18,-0.31,6.71,6.71,6.71
78.17,6.94,0.27,6.94,0.27,-0.28,-0.18,-0.33,6.66,6.66,6.67
78.95,6.92,0.30,6.92,0.30,-0.30,-0.19,-0.35,6.62,6.62,6.62
79.74,6.90,0.33,6.90,0.33,-0.33,-0.19,-0.36,6.56,6.57,6.56
80.54,6.87,0.36,6.87,0.36,-0.36,-0.20,-0.38,6.51,6.51,6.51
81.35,6.85,0.39,6.85,0.39,-0.39,-0.21,-0.40,6.46,6.46,6.46
82.16,6.83,0.42,6.83,0.43,-0.43,-0.21,-0.42,6.40,6.40,6.40
82.98,6.81,0.46,6.81,0.46,-0.46,-0.22,-0.44,6.34,6.34,6.35
83.81,6.78,0.50,6.78,0.50,-0.50,-0.23,-0.46,6.28,6.28,6.29
84.65,6.76,0.53,6.76,0.53,-0.53,-0.24,-0.48,6.22,6.22,6.22
85.50,6.73,0.57,6.73,0.57,-0.57,-0.24,-0.50,6.17,6.17,6.16
86.35,6.71,0.60,6.71,0.60,-0.60,-0.25,-0.52,6.11,6.11,6.10
87.22,6.68,0.63,6.68,0.63,-0.62,-0.26,-0.54,6.06,6.06,6.05
88.09,6.65,0.65,6.65,0.65,-0.65,-0.27,-0.57,6.01,6.01,6.00
88.97,6.62,0.67,6.63,0.67,-0.67,-0.28,-0.59,5.96,5.96,5.96
89.86,6.60,0.68,6.60,0.68,-0.69,-0.29,-0.61,5.91,5.91,5.92
90.76,6.57,0.70,6.57,0.70,-0.71,-0.30,-0.64,5.86,5.86,5.87
91.66,6.54,0.72,6.54,0.72,-0.73,-0.31,-0.66,5.81,5.81,5.82
92.58,6.51,0.75,6.51,0.75,-0.75,-0.33,-0.68,5.76,5.76,5.76
93.51,6.48,0.77,6.48,0.77,-0.77,-0.34,-0.71,5.71,5.71,5.70
94.44,6.45,0.79,6.45,0.79,-0.79,-0.35,-0.73,5.66,5.66,5.65
95.39,6.41,0.81,6.41,0.81,-0.81,-0.37,-0.76,5.60,5.60,5.60
96.34,6.38,0.83,6.38,0.83,-0.83,-0.38,-0.79,5.55,5.55,5.55
97.30,6.35,0.85,6.35,0.85,-0.85,-0.40,-0.81,5.49,5.49,5.49
98.28,6.31,0.87,6.31,0.87,-0.87,-0.41,-0.84,5.44,5.44,5.44
99.26,6.27,0.89,6.27,0.89,-0.89,-0.43,-0.87,5.38,5.38,5.39
100.25,6.24,0.91,6.24,0.91,-0.91,-0.45,-0.90,5.33,5.33,5.33
101.25,6.20,0.93,6.20,0.93,-0.93,-0.47,-0.92,5.27,5.27,5.27
102.27,6.16,0.95,6.16,0.95,-0.95,-0.49,-0.95,5.21,5.21,5.21
103.29,6.12,0.97,6.12,0.97,-0.97,-0.51,-0.98,5.15,5.15,5.16
104.32,6.08,0.98,6.08,0.99,-0.98,-0.54,-1.01,5.10,5.10,5.10
105.37,6.04,1.00,6.04,1.00,-1.00,-0.56,-1.04,5.04,5.04,5.04
106.42,5.99,1.02,5.99,1.01,-1.01,-0.59,-1.06,4.98,4.98,4.98
107.48,5.95,1.02,5.95,1.02,-1.02,-0.62,-1.09,4.93,4.93,4.92
108.56,5.90,1.03,5.90,1.03,-1.03,-0.65,-1.12,4.87,4.87,4.87
109.64,5.85,1.03,5.85,1.04,-1.03,-0.68,-1.15,4.82,4.82,4.82
110.74,5.81,1.04,5.81,1.04,-1.04,-0.71,-1.17,4.77,4.77,4.77
111.85,5.77,1.05,5.77,1.05,-1.05,-0.75,-1.20,4.72,4.72,4.72
112.97,5.73,1.06,5.73,1.06,-1.07,-0.79,-1.22,4.66,4.66,4.67
114.10,5.70,1.08,5.70,1.08,-1.09,-0.83,-1.25,4.60,4.60,4.62
115.24,5.66,1.10,5.66,1.10,-1.12,-0.88,-1.27,4.55,4.55,4.56
116.39,5.64,1.14,5.64,1.14,-1.15,-0.92,-1.29,4.49,4.49,4.50
117.55,5.61,1.19,5.61,1.19,-1.18,-0.98,-1.31,4.43,4.43,4.42
118.73,5.59,1.23,5.59,1.23,-1.21,-1.03,-1.33,4.37,4.37,4.36
119.92,5.56,1.26,5.56,1.26,-1.24,-1.09,-1.35,4.32,4.32,4.30
121.12,5.54,1.28,5.54,1.28,-1.27,-1.15,-1.36,4.27,4.26,4.26
122.33,5.51,1.30,5.51,1.30,-1.30,-1.21,-1.38,4.21,4.21,4.21
123.55,5.48,1.33,5.48,1.32,-1.33,-1.28,-1.39,4.16,4.16,4.15
124.79,5.45,1.35,5.45,1.35,-1.35,-1.35,-1.40,4.10,4.10,4.10
126.03,5.42,1.37,5.42,1.37,-1.37,-1.42,-1.41,4.05,4.05,4.05
127.29,5.39,1.38,5.40,1.39,-1.39,-1.50,-1.42,4.00,4.00,4.01
128.57,5.37,1.41,5.37,1.41,-1.42,-1.57,-1.43,3.96,3.96,3.96
129.85,5.36,1.44,5.36,1.44,-1.45,-1.64,-1.44,3.91,3.91,3.91
131.15,5.34,1.48,5.34,1.48,-1.47,-1.72,-1.44,3.87,3.87,3.86
132.46,5.33,1.51,5.33,1.51,-1.51,-1.79,-1.44,3.82,3.82,3.82
133.79,5.31,1.54,5.31,1.54,-1.54,-1.86,-1.44,3.77,3.77,3.77
135.12,5.29,1.57,5.29,1.57,-1.57,-1.92,-1.44,3.72,3.72,3.72
136.48,5.27,1.60,5.27,1.60,-1.61,-1.98,-1.44,3.66,3.66,3.67
137.84,5.24,1.64,5.24,1.64,-1.64,-2.02,-1.44,3.60,3.60,3.60
139.22,5.20,1.67,5.20,1.67,-1.67,-2.06,-1.44,3.53,3.53,3.53
140.61,5.17,1.71,5.17,1.70,-1.69,-2.07,-1.44,3.47,3.47,3.46
142.02,5.13,1.73,5.13,1.73,-1.71,-2.09,-1.44,3.41,3.41,3.40
143.44,5.08,1.74,5.08,1.74,-1.73,-2.08,-1.43,3.35,3.35,3.34
144.87,5.04,1.74,5.04,1.74,-1.74,-2.08,-1.43,3.30,3.30,3.29
146.32,4.99,1.74,4.99,1.74,-1.74,-2.05,-1.42,3.25,3.25,3.25
147.78,4.95,1.74,4.95,1.74,-1.74,-2.03,-1.42,3.20,3.20,3.21
149.26,4.90,1.73,4.90,1.73,-1.74,-1.98,-1.42,3.16,3.16,3.17
150.75,4.85,1.73,4.85,1.73,-1.73,-1.94,-1.41,3.12,3.12,3.12
152.26,4.80,1.73,4.80,1.73,-1.73,-1.89,-1.41,3.08,3.08,3.08
153.78,4.76,1.72,4.76,1.72,-1.72,-1.85,-1.41,3.04,3.04,3.03
155.32,4.71,1.71,4.71,1.71,-1.71,-1.80,-1.41,3.00,3.00,2.99
156.88,4.66,1.70,4.66,1.70,-1.70,-1.75,-1.41,2.96,2.96,2.96
158.44,4.61,1.69,4.61,1.69,-1.69,-1.70,-1.41,2.92,2.92,2.92
160.03,4.56,1.68,4.56,1.67,-1.67,-1.65,-1.41,2.89,2.89,2.89
161.63,4.51,1.66,4.51,1.66,-1.65,-1.61,-1.41,2.86,2.86,2.85
163.24,4.46,1.64,4.46,1.64,-1.62,-1.57,-1.41,2.84,2.84,2.83
164.88,4.41,1.61,4.41,1.61,-1.60,-1.54,-1.41,2.81,2.81,2.80
166.53,4.36,1.58,4.36,1.58,-1.58,-1.50,-1.42,2.78,2.78,2.78
168.19,4.31,1.55,4.31,1.55,-1.56,-1.48,-1.42,2.75,2.75,2.76
169.87,4.26,1.53,4.26,1.53,-1.55,-1.45,-1.43,2.71,2.71,2.73
171.57,4.21,1.53,4.21,1.53,-1.55,-1.43,-1.44,2.66,2.66,2.68
173.29,4.16,1.54,4.16,1.54,-1.55,-1.41,-1.45,2.61,2.61,2.62
175.02,4.11,1.55,4.11,1.56,-1.57,-1.40,-1.46,2.54,2.54,2.55
176.77,4.06,1.59,4.06,1.59,-1.59,-1.39,-1.47,2.47,2.47,2.47
178.54,4.01,1.62,4.01,1.62,-1.61,-1.39,-1.48,2.39,2.39,2.39
180.32,3.96,1.65,3.96,1.65,-1.64,-1.38,-1.49,2.31,2.32,2.30
182.13,3.91,1.69,3.91,1.68,-1.67,-1.39,-1.51,2.24,2.24,2.22
183.95,3.86,1.71,3.86,1.71,-1.70,-1.39,-1.53,2.17,2.17,2.16
185.79,3.82,1.72,3.82,1.72,-1.72,-1.40,-1.54,2.10,2.10,2.09
187.65,3.77,1.74,3.77,1.74,-1.74,-1.41,-1.56,2.04,2.03,2.04
189.52,3.73,1.75,3.73,1.75,-1.75,-1.42,-1.58,1.98,1.98,1.98
191.42,3.69,1.76,3.69,1.76,-1.77,-1.43,-1.60,1.92,1.92,1.93
193.33,3.65,1.77,3.65,1.78,-1.78,-1.45,-1.62,1.87,1.87,1.87
195.27,3.61,1.79,3.61,1.79,-1.79,-1.47,-1.64,1.82,1.82,1.82
197.22,3.57,1.80,3.57,1.80,-1.80,-1.49,-1.67,1.77,1.77,1.77
199.19,3.52,1.81,3.52,1.81,-1.81,-1.51,-1.69,1.71,1.71,1.71
201.18,3.48,1.82,3.48,1.82,-1.82,-1.54,-1.71,1.66,1.66,1.66
203.19,3.44,1.82,3.44,1.82,-1.82,-1.56,-1.74,1.62,1.61,1.61
205.23,3.39,1.83,3.39,1.83,-1.82,-1.59,-1.76,1.57,1.57,1.56
207.28,3.35,1.83,3.35,1.83,-1.82,-1.62,-1.79,1.52,1.52,1.52
209.35,3.30,1.82,3.30,1.82,-1.82,-1.65,-1.81,1.48,1.48,1.48
211.44,3.25,1.82,3.25,1.82,-1.82,-1.67,-1.84,1.43,1.43,1.43
213.56,3.20,1.81,3.20,1.81,-1.81,-1.70,-1.86,1.39,1.39,1.39
215.69,3.15,1.80,3.15,1.80,-1.80,-1.73,-1.89,1.35,1.35,1.35
217.85,3.10,1.79,3.10,1.79,-1.79,-1.76,-1.91,1.31,1.31,1.31
220.03,3.05,1.78,3.05,1.78,-1.79,-1.79,-1.93,1.27,1.27,1.27
222.23,3.00,1.77,3.00,1.77,-1.78,-1.81,-1.95,1.22,1.22,1.23
224.45,2.95,1.77,2.95,1.77,-1.77,-1.83,-1.97,1.18,1.18,1.19
226.70,2.90,1.76,2.90,1.76,-1.76,-1.86,-1.99,1.14,1.14,1.14
228.96,2.85,1.76,2.85,1.76,-1.75,-1.88,-2.00,1.10,1.10,1.09
231.25,2.80,1.75,2.80,1.75,-1.74,-1.89,-2.02,1.06,1.06,1.05
233.57,2.75,1.74,2.75,1.74,-1.73,-1.91,-2.03,1.02,1.02,1.01
235.90,2.71,1.72,2.71,1.72,-1.72,-1.92,-2.03,0.98,0.98,0.99
238.26,2.66,1.70,2.66,1.70,-1.71,-1.93,-2.04,0.95,0.95,0.95
240.64,2.61,1.69,2.61,1.69,-1.69,-1.93,-2.04,0.92,0.92,0.92
243.05,2.56,1.68,2.56,1.67,-1.67,-1.93,-2.04,0.89,0.89,0.88
245.48,2.51,1.66,2.51,1.66,-1.66,-1.92,-2.04,0.86,0.86,0.85
247.93,2.46,1.64,2.46,1.64,-1.64,-1.92,-2.03,0.83,0.83,0.82
250.41,2.41,1.62,2.41,1.62,-1.62,-1.90,-2.02,0.80,0.80,0.80
252.92,2.36,1.60,2.36,1.60,-1.60,-1.89,-2.01,0.76,0.76,0.77
255.45,2.31,1.58,2.31,1.58,-1.58,-1.87,-2.00,0.73,0.73,0.73
258.00,2.26,1.56,2.26,1.56,-1.56,-1.84,-1.98,0.70,0.70,0.70
260.58,2.21,1.54,2.21,1.54,-1.54,-1.81,-1.95,0.67,0.67,0.67
263.19,2.16,1.53,2.16,1.53,-1.53,-1.78,-1.93,0.64,0.64,0.64
265.82,2.11,1.51,2.11,1.51,-1.51,-1.75,-1.90,0.61,0.61,0.61
268.48,2.06,1.49,2.06,1.49,-1.49,-1.71,-1.87,0.58,0.58,0.57
271.16,2.01,1.47,2.01,1.47,-1.47,-1.67,-1.84,0.55,0.55,0.54
273.87,1.97,1.45,1.97,1.45,-1.45,-1.63,-1.80,0.52,0.52,0.52
276.61,1.92,1.42,1.92,1.43,-1.43,-1.59,-1.76,0.49,0.49,0.49
279.38,1.87,1.40,1.87,1.41,-1.41,-1.54,-1.72,0.46,0.46,0.46
282.17,1.82,1.39,1.82,1.39,-1.39,-1.49,-1.68,0.43,0.43,0.43
284.99,1.77,1.37,1.77,1.36,-1.36,-1.45,-1.63,0.40,0.40,0.40
287.84,1.72,1.34,1.72,1.34,-1.34,-1.40,-1.59,0.38,0.38,0.37
290.72,1.67,1.32,1.67,1.32,-1.32,-1.35,-1.54,0.35,0.35,0.35
293.63,1.62,1.29,1.62,1.29,-1.29,-1.30,-1.49,0.33,0.33,0.33
296.57,1.57,1.26,1.57,1.26,-1.27,-1.25,-1.44,0.30,0.30,0.30
299.53,1.52,1.24,1.52,1.24,-1.24,-1.20,-1.39,0.28,0.28,0.28
302.53,1.47,1.21,1.47,1.21,-1.21,-1.15,-1.34,0.26,0.26,0.25
305.55,1.42,1.19,1.42,1.19,-1.19,-1.10,-1.29,0.23,0.23,0.23
308.61,1.37,1.16,1.37,1.16,-1.16,-1.06,-1.24,0.21,0.21,0.21
311.69,1.32,1.13,1.32,1.13,-1.13,-1.01,-1.19,0.19,0.19,0.19
314.81,1.28,1.10,1.28,1.10,-1.10,-0.96,-1.14,0.17,0.17,0.17
317.96,1.23,1.07,1.23,1.07,-1.07,-0.92,-1.09,0.15,0.15,0.15
321.14,1.18,1.05,1.18,1.05,-1.04,-0.87,-1.04,0.14,0.14,0.14
324.35,1.13,1.02,1.13,1.02,-1.01,-0.83,-0.99,0.12,0.12,0.12
327.59,1.09,0.98,1.09,0.98,-0.98,-0.79,-0.94,0.11,0.11,0.10
330.87,1.04,0.95,1.04,0.95,-0.95,-0.75,-0.89,0.09,0.09,0.09
334.18,1.00,0.92,1.00,0.92,-0.92,-0.70,-0.83,0.08,0.08,0.08
337.52,0.95,0.89,0.95,0.89,-0.89,-0.67,-0.79,0.06,0.06,0.06
340.90,0.90,0.86,0.90,0.86,-0.86,-0.63,-0.74,0.04,0.04,0.05
344.30,0.86,0.83,0.86,0.83,-0.83,-0.59,-0.69,0.03,0.03,0.03
347.75,0.81,0.80,0.81,0.80,-0.80,-0.55,-0.64,0.01,0.01,0.01
351.23,0.77,0.77,0.77,0.77,-0.77,-0.52,-0.59,-0.00,-0.00,-0.00
354.74,0.72,0.74,0.72,0.74,-0.74,-0.48,-0.54,-0.02,-0.02,-0.02
358.28,0.68,0.71,0.68,0.71,-0.71,-0.45,-0.49,-0.03,-0.03,-0.03
361.87,0.64,0.68,0.64,0.68,-0.68,-0.41,-0.45,-0.04,-0.04,-0.04
365.49,0.59,0.65,0.59,0.65,-0.65,-0.38,-0.40,-0.06,-0.06,-0.06
369.14,0.55,0.62,0.55,0.62,-0.62,-0.35,-0.36,-0.07,-0.07,-0.07
372.83,0.51,0.59,0.51,0.59,-0.59,-0.32,-0.31,-0.08,-0.08,-0.08
376.56,0.46,0.56,0.46,0.56,-0.56,-0.29,-0.26,-0.09,-0.09,-0.09
380.33,0.42,0.52,0.42,0.52,-0.53,-0.26,-0.22,-0.11,-0.11,-0.11
384.13,0.38,0.49,0.38,0.49,-0.49,-0.23,-0.18,-0.12,-0.12,-0.12
387.97,0.33,0.46,0.33,0.46,-0.46,-0.20,-0.13,-0.13,-0.13,-0.13
391.85,0.29,0.43,0.29,0.43,-0.43,-0.17,-0.09,-0.14,-0.14,-0.14
395.77,0.25,0.40,0.25,0.40,-0.40,-0.15,-0.05,-0.15,-0.15,-0.15
399.73,0.21,0.37,0.21,0.37,-0.37,-0.12,-0.00,-0.16,-0.16,-0.16
403.72,0.17,0.34,0.17,0.34,-0.34,-0.09,0.04,-0.17,-0.17,-0.17
407.76,0.13,0.31,0.13,0.31,-0.31,-0.07,0.08,-0.18,-0.18,-0.18
411.84,0.09,0.27,0.09,0.27,-0.27,-0.04,0.12,-0.18,-0.18,-0.18
415.96,0.05,0.24,0.05,0.24,-0.24,-0.02,0.16,-0.19,-0.19,-0.19
420.12,0.01,0.20,0.01,0.20,-0.20,0.00,0.20,-0.19,-0.19,-0.19
424.32,-0.03,0.17,-0.03,0.17,-0.17,0.03,0.24,-0.19,-0.19,-0.19
428.56,-0.06,0.13,-0.06,0.13,-0.13,0.05,0.28,-0.20,-0.20,-0.20
432.85,-0.10,0.09,-0.10,0.09,-0.10,0.07,0.31,-0.20,-0.20,-0.20
437.18,-0.14,0.06,-0.14,0.06,-0.06,0.10,0.35,-0.20,-0.20,-0.20
441.55,-0.17,0.02,-0.17,0.02,-0.02,0.12,0.39,-0.19,-0.19,-0.19
445.96,-0.21,-0.02,-0.21,-0.02,0.02,0.14,0.42,-0.19,-0.19,-0.19
450.42,-0.25,-0.06,-0.25,-0.06,0.06,0.17,0.46,-0.19,-0.19,-0.19
454.93,-0.28,-0.10,-0.28,-0.10,0.10,0.19,0.49,-0.18,-0.18,-0.18
459.48,-0.32,-0.14,-0.32,-0.14,0.14,0.21,0.52,-0.18,-0.18,-0.18
464.07,-0.35,-0.18,-0.35,-0.18,0.18,0.23,0.55,-0.17,-0.17,-0.17
468.71,-0.38,-0.22,-0.38,-0.22,0.22,0.25,0.58,-0.17,-0.17,-0.17
473.40,-0.42,-0.26,-0.42,-0.26,0.26,0.27,0.61,-0.16,-0.16,-0.16
478.13,-0.45,-0.30,-0.45,-0.30,0.29,0.30,0.64,-0.15,-0.15,-0.15
482.91,-0.48,-0.33,-0.48,-0.33,0.33,0.32,0.66,-0.15,-0.15,-0.15
487.74,-0.51,-0.37,-0.51,-0.37,0.37,0.34,0.69,-0.14,-0.14,-0.14
492.62,-0.54,-0.41,-0.54,-0.41,0.41,0.36,0.71,-0.13,-0.13,-0.14
497.55,-0.57,-0.44,-0.57,-0.44,0.44,0.38,0.73,-0.13,-0.13,-0.13
502.52,-0.60,-0.48,-0.60,-0.48,0.48,0.40,0.76,-0.12,-0.12,-0.12
507.55,-0.63,-0.51,-0.63,-0.51,0.51,0.42,0.78,-0.12,-0.12,-0.12
512.62,-0.65,-0.55,-0.65,-0.55,0.55,0.45,0.79,-0.11,-0.11,-0.11
517.75,-0.68,-0.58,-0.68,-0.58,0.58,0.47,0.81,-0.10,-0.10,-0.10
522.93,-0.71,-0.61,-0.71,-0.61,0.61,0.49,0.83,-0.10,-0.10,-0.10
