frequency,raw,error,smoothed,error_smoothed,equalization,parametric_eq,fixed_band_eq,equalized_raw,equalized_smoothed,target
20.00,3.81,-5.05,3.81,-5.05,5.04,-0.14,0.66,8.85,8.85,8.86
20.20,3.88,-4.94,3.88,-4.94,4.94,-0.14,0.68,8.82,8.82,8.82
20.40,3.95,-4.84,3.95,-4.84,4.84,-0.14,0.70,8.79,8.79,8.79
20.61,4.02,-4.73,4.02,-4.73,4.74,-0.15,0.73,8.76,8.76,8.75
20.81,4.08,-4.63,4.08,-4.63,4.64,-0.15,0.75,8.72,8.72,8.71
21.02,4.14,-4.52,4.14,-4.52,4.54,-0.15,0.77,8.68,8.68,8.67
21.23,4.20,-4.42,4.20,-4.42,4.43,-0.16,0.80,8.64,8.64,8.63
21.44,4.26,-4.32,4.26,-4.32,4.33,-0.16,0.83,8.59,8.59,8.58
21.66,4.31,-4.22,4.31,-4.22,4.23,-0.16,0.85,8.54,8.54,8.54
21.87,4.36,-4.13,4.36,-4.13,4.12,-0.17,0.88,8.48,8.49,8.49
22.09,4.42,-4.02,4.42,-4.02,4.01,-0.17,0.91,8.43,8.43,8.44
22.31,4.48,-3.91,4.48,-3.91,3.90,-0.17,0.94,8.38,8.38,8.39
22.54,4.55,-3.79,4.55,-3.79,3.78,-0.18,0.97,8.34,8.34,8.35
22.76,4.63,-3.67,4.63,-3.67,3.66,-0.18,1.00,8.29,8.29,8.30
22.99,4.72,-3.54,4.72,-3.54,3.53,-0.19,1.03,8.26,8.26,8.26
23.22,4.81,-3.40,4.81,-3.40,3.41,-0.19,1.06,8.22,8.22,8.22
23.45,4.90,-3.27,4.90,-3.27,3.28,-0.19,1.10,8.18,8.18,8.17
23.69,4.99,-3.15,4.98,-3.15,3.16,-0.20,1.13,8.14,8.14,8.13
23.92,5.06,-3.03,5.06,-3.03,3.04,-0.20,1.16,8.10,8.10,8.09
24.16,5.13,-2.92,5.13,-2.92,2.93,-0.21,1.20,8.05,8.05,8.05
24.40,5.19,-2.82,5.19,-2.82,2.82,-0.21,1.23,8.01,8.01,8.01
24.65,5.24,-2.72,5.25,-2.72,2.71,-0.22,1.27,7.96,7.96,7.96
24.89,5.30,-2.62,5.30,-2.62,2.61,-0.22,1.30,7.91,7.91,7.92
25.14,5.36,-2.52,5.36,-2.52,2.51,-0.23,1.34,7.87,7.87,7.88
25.39,5.41,-2.42,5.41,-2.42,2.42,-0.23,1.37,7.84,7.83,7.83
25.65,5.46,-2.33,5.46,-2.33,2.34,-0.24,1.41,7.80,7.80,7.79
25.91,5.50,-2.24,5.50,-2.24,2.25,-0.24,1.44,7.75,7.75,7.74
26.16,5.54,-2.16,5.53,-2.16,2.17,-0.25,1.47,7.70,7.70,7.69
26.43,5.56,-2.08,5.56,-2.09,2.08,-0.26,1.51,7.65,7.64,7.64
26.69,5.58,-2.01,5.58,-2.01,2.00,-0.26,1.54,7.58,7.58,7.60
26.96,5.61,-1.94,5.61,-1.94,1.91,-0.27,1.57,7.52,7.52,7.55
27.23,5.65,-1.85,5.65,-1.85,1.82,-0.27,1.60,7.47,7.48,7.50
27.50,5.70,-1.75,5.70,-1.75,1.74,-0.28,1.62,7.44,7.44,7.45
27.77,5.76,-1.65,5.76,-1.65,1.66,-0.29,1.65,7.42,7.42,7.41
28.05,5.81,-1.55,5.81,-1.55,1.58,-0.29,1.67,7.39,7.39,7.36
28.33,5.84,-1.47,5.83,-1.48,1.52,-0.30,1.69,7.36,7.36,7.31
28.62,5.85,-1.41,5.84,-1.42,1.46,-0.31,1.71,7.31,7.30,7.26
28.90,5.83,-1.38,5.83,-1.39,1.40,-0.32,1.72,7.23,7.23,7.21
29.19,5.81,-1.35,5.81,-1.36,1.34,-0.32,1.74,7.15,7.15,7.17
29.48,5.79,-1.33,5.80,-1.32,1.27,-0.33,1.74,7.06,7.07,7.12
29.78,5.82,-1.25,5.82,-1.25,1.19,-0.34,1.75,7.01,7.01,7.07
30.08,5.87,-1.16,5.87,-1.15,1.10,-0.35,1.75,6.96,6.97,7.03
30.38,5.96,-1.02,5.96,-1.01,0.99,-0.36,1.74,6.95,6.96,6.98
30.68,6.07,-0.86,6.06,-0.87,0.89,-0.37,1.73,6.95,6.95,6.93
30.99,6.16,-0.73,6.15,-0.73,0.78,-0.37,1.72,6.94,6.94,6.88
31.30,6.22,-0.62,6.22,-0.62,0.69,-0.38,1.70,6.91,6.90,6.84
31.61,6.26,-0.55,6.25,-0.55,0.60,-0.39,1.68,6.85,6.85,6.80
31.93,6.26,-0.50,6.26,-0.50,0.52,-0.40,1.66,6.78,6.78,6.77
32.24,6.26,-0.47,6.26,-0.47,0.45,-0.41,1.63,6.71,6.71,6.73
32.57,6.26,-0.43,6.27,-0.42,0.38,-0.42,1.59,6.65,6.65,6.69
32.89,6.28,-0.36,6.28,-0.36,0.32,-0.43,1.55,6.60,6.61,6.64
33.22,6.31,-0.28,6.31,-0.28,0.26,-0.44,1.51,6.57,6.57,6.59
33.55,6.35,-0.18,6.35,-0.18,0.18,-0.46,1.46,6.54,6.54,6.54
33.89,6.40,-0.09,6.40,-0.09,0.11,-0.47,1.41,6.50,6.50,6.49
34.23,6.44,-0.00,6.44,-0.00,0.02,-0.48,1.35,6.46,6.46,6.44
34.57,6.48,0.08,6.48,0.08,-0.07,-0.49,1.30,6.41,6.41,6.40
34.92,6.51,0.15,6.52,0.16,-0.15,-0.50,1.24,6.36,6.36,6.36
35.27,6.55,0.23,6.55,0.23,-0.24,-0.52,1.17,6.32,6.32,6.32
35.62,6.59,0.31,6.59,0.31,-0.32,-0.53,1.10,6.27,6.27,6.28
35.97,6.63,0.39,6.63,0.39,-0.40,-0.55,1.03,6.23,6.23,6.24
36.33,6.68,0.48,6.68,0.48,-0.49,-0.56,0.96,6.19,6.19,6.20
36.70,6.72,0.57,6.72,0.57,-0.57,-0.57,0.89,6.15,6.15,6.15
37.06,6.77,0.66,6.77,0.66,-0.66,-0.59,0.81,6.11,6.11,6.11
37.43,6.81,0.74,6.81,0.74,-0.73,-0.61,0.74,6.08,6.08,6.07
37.81,6.84,0.82,6.84,0.82,-0.81,-0.62,0.66,6.03,6.03,6.02
38.19,6.87,0.89,6.86,0.89,-0.88,-0.64,0.58,5.99,5.99,5.98
38.57,6.88,0.95,6.88,0.95,-0.94,-0.66,0.50,5.94,5.94,5.93
38.95,6.88,1.00,6.88,1.00,-1.00,-0.67,0.41,5.88,5.89,5.88
39.34,6.88,1.05,6.88,1.05,-1.05,-0.69,0.33,5.83,5.83,5.84
39.74,6.88,1.09,6.88,1.09,-1.10,-0.71,0.25,5.79,5.79,5.79
40.14,6.89,1.14,6.89,1.14,-1.14,-0.73,0.16,5.74,5.74,5.74
40.54,6.89,1.19,6.89,1.19,-1.19,-0.75,0.08,5.69,5.70,5.70
40.94,6.89,1.24,6.89,1.24,-1.24,-0.77,-0.01,5.65,5.65,5.66
41.35,6.90,1.29,6.90,1.29,-1.30,-0.79,-0.10,5.61,5.61,5.62
41.76,6.92,1.34,6.92,1.34,-1.35,-0.81,-0.19,5.57,5.57,5.58
42.18,6.94,1.40,6.94,1.40,-1.40,-0.84,-0.28,5.53,5.53,5.53
42.60,6.95,1.46,6.95,1.46,-1.46,-0.86,-0.36,5.49,5.49,5.49
43.03,6.97,1.52,6.97,1.52,-1.51,-0.89,-0.45,5.45,5.45,5.45
43.46,6.98,1.57,6.98,1.57,-1.57,-0.91,-0.54,5.41,5.41,5.41
43.90,6.99,1.62,6.99,1.62,-1.62,-0.94,-0.63,5.37,5.37,5.37
44.33,7.00,1.66,7.00,1.67,-1.67,-0.96,-0.73,5.33,5.33,5.33
44.78,7.00,1.71,7.00,1.71,-1.72,-0.99,-0.82,5.28,5.28,5.29
45.23,7.00,1.76,7.00,1.76,-1.76,-1.02,-0.91,5.24,5.24,5.25
45.68,7.01,1.80,7.01,1.80,-1.81,-1.05,-1.00,5.20,5.20,5.20
46.13,7.01,1.85,7.01,1.85,-1.85,-1.08,-1.10,5.16,5.16,5.16
46.60,7.00,1.89,7.00,1.89,-1.89,-1.11,-1.19,5.12,5.12,5.11
47.06,7.00,1.93,7.00,1.93,-1.93,-1.14,-1.28,5.07,5.07,5.07
47.53,7.00,1.97,7.00,1.97,-1.96,-1.18,-1.38,5.03,5.03,5.03
48.01,7.00,2.00,6.99,2.00,-2.00,-1.21,-1.47,4.99,4.99,5.00
48.49,6.99,2.03,6.99,2.03,-2.04,-1.25,-1.57,4.96,4.96,4.96
48.97,6.99,2.06,6.99,2.06,-2.07,-1.28,-1.66,4.92,4.92,4.92
49.46,6.98,2.10,6.98,2.10,-2.10,-1.32,-1.76,4.88,4.88,4.88
49.96,6.98,2.14,6.98,2.14,-2.14,-1.36,-1.85,4.84,4.84,4.84
50.46,6.97,2.17,6.97,2.17,-2.17,-1.40,-1.95,4.81,4.81,4.80
50.96,6.97,2.20,6.97,2.20,-2.20,-1.44,-2.04,4.77,4.77,4.77
51.47,6.97,2.24,6.97,2.24,-2.23,-1.49,-2.14,4.73,4.73,4.73
51.99,6.96,2.27,6.96,2.26,-2.26,-1.53,-2.23,4.70,4.70,4.70
52.51,6.96,2.29,6.96,2.29,-2.30,-1.58,-2.32,4.66,4.66,4.66
53.03,6.95,2.32,6.95,2.32,-2.33,-1.62,-2.41,4.62,4.62,4.63
53.56,6.94,2.35,6.94,2.36,-2.36,-1.67,-2.50,4.58,4.58,4.59
54.10,6.94,2.39,6.94,2.39,-2.39,-1.72,-2.59,4.55,4.55,4.54
54.64,6.93,2.43,6.93,2.43,-2.42,-1.77,-2.67,4.51,4.51,4.50
55.18,6.92,2.46,6.92,2.46,-2.45,-1.82,-2.75,4.47,4.47,4.46
55.74,6.91,2.48,6.91,2.48,-2.48,-1.88,-2.83,4.43,4.43,4.43
56.29,6.89,2.50,6.89,2.50,-2.50,-1.93,-2.91,4.39,4.39,4.39
56.86,6.88,2.52,6.88,2.52,-2.53,-1.99,-2.98,4.35,4.36,4.36
57.42,6.87,2.55,6.87,2.55,-2.55,-2.05,-3.05,4.32,4.32,4.32
58.00,6.86,2.57,6.86,2.57,-2.57,-2.10,-3.11,4.29,4.29,4.29
58.58,6.85,2.59,6.85,2.59,-2.59,-2.16,-3.17,4.25,4.25,4.25
59.16,6.83,2.62,6.83,2.61,-2.61,-2.22,-3.23,4.22,4.22,4.22
59.76,6.82,2.64,6.82,2.64,-2.64,-2.29,-3.27,4.18,4.18,4.18
60.35,6.81,2.66,6.81,2.66,-2.66,-2.35,-3.32,4.15,4.15,4.15
60.96,6.79,2.68,6.79,2.68,-2.68,-2.41,-3.36,4.11,4.11,4.11
61.57,6.78,2.70,6.78,2.70,-2.70,-2.48,-3.39,4.08,4.08,4.08
62.18,6.77,2.73,6.77,2.73,-2.72,-2.54,-3.41,4.04,4.04,4.04
62.80,6.75,2.74,6.75,2.74,-2.74,-2.61,-3.43,4.01,4.01,4.01
63.43,6.74,2.76,6.74,2.76,-2.76,-2.67,-3.45,3.98,3.98,3.97
64.07,6.72,2.78,6.72,2.78,-2.78,-2.73,-3.46,3.94,3.94,3.94
64.71,6.70,2.79,6.70,2.79,-2.79,-2.80,-3.46,3.91,3.91,3.91
65.35,6.68,2.80,6.68,2.80,-2.81,-2.86,-3.46,3.87,3.87,3.87
66.01,6.66,2.82,6.66,2.82,-2.82,-2.93,-3.45,3.84,3.84,3.84
66.67,6.64,2.83,6.64,2.83,-2.83,-2.99,-3.44,3.81,3.81,3.81
67.33,6.62,2.84,6.62,2.84,-2.84,-3.05,-3.42,3.78,3.78,3.78
68.01,6.60,2.85,6.60,2.85,-2.85,-3.11,-3.40,3.75,3.75,3.74
68.69,6.58,2.86,6.58,2.86,-2.86,-3.16,-3.37,3.72,3.72,3.71
69.37,6.55,2.87,6.55,2.87,-2.87,-3.22,-3.34,3.69,3.69,3.68
70.07,6.53,2.87,6.53,2.87,-2.87,-3.27,-3.31,3.66,3.65,3.65
70.77,6.50,2.87,6.50,2.88,-2.88,-3.31,-3.27,3.62,3.62,3.63
71.48,6.47,2.88,6.47,2.88,-2.89,-3.36,-3.24,3.59,3.59,3.59
72.19,6.45,2.89,6.45,2.88,-2.89,-3.40,-3.20,3.55,3.55,3.56
72.91,6.42,2.89,6.42,2.89,-2.89,-3.43,-3.15,3.52,3.52,3.53
73.64,6.39,2.90,6.39,2.90,-2.90,-3.46,-3.11,3.50,3.50,3.49
74.38,6.37,2.91,6.37,2.91,-2.90,-3.49,-3.07,3.47,3.47,3.45
75.12,6.34,2.92,6.34,2.91,-2.90,-3.51,-3.03,3.44,3.44,3.42
75.87,6.32,2.89,6.32,2.90,-2.90,-3.53,-2.98,3.41,3.41,3.43
76.63,6.29,2.89,6.29,2.90,-2.90,-3.54,-2.94,3.39,3.39,3.40
77.40,6.26,2.91,6.26,2.89,-2.90,-3.55,-2.89,3.36,3.36,3.35
78.17,6.23,2.90,6.23,2.90,-2.90,-3.55,-2.85,3.33,3.33,3.33
78.95,6.20,2.89,6.20,2.90,-2.90,-3.54,-2.81,3.30,3.30,3.31
79.74,6.17,2.91,6.17,2.90,-2.90,-3.54,-2.77,3.27,3.27,3.27
80.54,6.14,2.90,6.14,2.90,-2.90,-3.52,-2.73,3.25,3.25,3.24
81.35,6.11,2.89,6.11,2.90,-2.89,-3.50,-2.69,3.22,3.22,3.22
82.16,6.08,2.89,6.08,2.89,-2.89,-3.48,-2.65,3.19,3.19,3.19
82.98,6.05,2.89,6.05,2.88,-2.89,-3.45,-2.62,3.16,3.16,3.16
83.81,6.02,2.88,6.02,2.88,-2.88,-3.42,-2.58,3.13,3.13,3.14
84.65,5.99,2.88,5.99,2.88,-2.88,-3.38,-2.55,3.11,3.11,3.11
85.50,5.96,2.87,5.96,2.87,-2.87,-3.34,-2.52,3.09,3.09,3.08
86.35,5.92,2.87,5.92,2.87,-2.86,-3.30,-2.49,3.06,3.06,3.06
87.22,5.89,2.86,5.89,2.86,-2.85,-3.25,-2.46,3.04,3.04,3.03
88.09,5.85,2.85,5.85,2.84,-2.85,-3.21,-2.44,3.01,3.01,3.01
88.97,5.82,2.83,5.82,2.83,-2.84,-3.16,-2.42,2.98,2.98,2.98
89.86,5.78,2.82,5.78,2.82,-2.83,-3.11,-2.40,2.95,2.95,2.96
90.76,5.75,2.82,5.75,2.82,-2.82,-3.06,-2.38,2.92,2.92,2.93
91.66,5.72,2.81,5.72,2.81,-2.81,-3.00,-2.36,2.90,2.90,2.91
92.58,5.69,2.80,5.69,2.80,-2.80,-2.95,-2.35,2.88,2.88,2.88
93.51,5.65,2.80,5.65,2.80,-2.79,-2.90,-2.33,2.87,2.87,2.86
94.44,5.61,2.78,5.61,2.78,-2.76,-2.84,-2.32,2.85,2.85,2.83
95.39,5.57,2.76,5.56,2.76,-2.74,-2.79,-2.31,2.83,2.83,2.81
96.34,5.51,2.72,5.51,2.72,-2.71,-2.74,-2.30,2.80,2.79,2.78
97.30,5.44,2.68,5.44,2.68,-2.68,-2.68,-2.30,2.76,2.76,2.76
98.28,5.38,2.64,5.38,2.64,-2.65,-2.63,-2.29,2.72,2.72,2.74
99.26,5.32,2.60,5.32,2.61,-2.63,-2.58,-2.29,2.69,2.70,2.72
100.25,5.28,2.59,5.28,2.59,-2.61,-2.54,-2.29,2.67,2.68,2.70
101.25,5.26,2.59,5.26,2.58,-2.59,-2.49,-2.28,2.66,2.66,2.67
102.27,5.23,2.59,5.23,2.58,-2.58,-2.45,-2.28,2.65,2.65,2.65
103.29,5.21,2.59,5.21,2.58,-2.58,-2.40,-2.29,2.63,2.63,2.62
104.32,5.18,2.58,5.18,2.58,-2.58,-2.36,-2.29,2.60,2.60,2.61
105.37,5.15,2.58,5.15,2.58,-2.57,-2.32,-2.29,2.58,2.58,2.57
106.42,5.12,2.58,5.12,2.57,-2.57,-2.28,-2.29,2.56,2.56,2.55
107.48,5.09,2.57,5.09,2.57,-2.55,-2.25,-2.29,2.53,2.53,2.52
108.56,5.05,2.55,5.05,2.55,-2.54,-2.22,-2.30,2.51,2.51,2.50
109.64,5.01,2.52,5.01,2.52,-2.52,-2.18,-2.30,2.49,2.49,2.48
110.74,4.96,2.48,4.96,2.49,-2.49,-2.16,-2.30,2.47,2.47,2.48
111.85,4.92,2.45,4.92,2.46,-2.47,-2.13,-2.30,2.45,2.45,2.46
112.97,4.87,2.43,4.87,2.43,-2.44,-2.10,-2.30,2.43,2.43,2.44
114.10,4.83,2.42,4.83,2.41,-2.42,-2.08,-2.30,2.41,2.41,2.41
115.24,4.78,2.39,4.78,2.39,-2.39,-2.06,-2.30,2.39,2.39,2.39
116.39,4.74,2.36,4.74,2.37,-2.37,-2.04,-2.30,2.37,2.37,2.38
117.55,4.70,2.34,4.70,2.35,-2.35,-2.03,-2.30,2.35,2.35,2.36
118.73,4.66,2.34,4.66,2.34,-2.33,-2.01,-2.29,2.33,2.33,2.33
119.92,4.62,2.33,4.62,2.32,-2.31,-2.00,-2.28,2.31,2.31,2.29
121.12,4.58,2.30,4.58,2.30,-2.29,-1.99,-2.27,2.29,2.29,2.28
122.33,4.54,2.25,4.54,2.26,-2.26,-1.98,-2.26,2.27,2.27,2.28
123.55,4.49,2.23,4.49,2.23,-2.24,-1.97,-2.24,2.26,2.26,2.27
124.79,4.45,2.20,4.45,2.20,-2.21,-1.96,-2.23,2.24,2.24,2.25
126.03,4.41,2.19,4.41,2.19,-2.19,-1.95,-2.21,2.22,2.22,2.22
127.29,4.36,2.16,4.36,2.16,-2.16,-1.95,-2.18,2.20,2.20,2.20
128.57,4.31,2.13,4.31,2.13,-2.13,-1.94,-2.16,2.18,2.18,2.18
129.85,4.26,2.10,4.27,2.10,-2.10,-1.93,-2.13,2.17,2.17,2.16
131.15,4.22,2.07,4.22,2.07,-2.07,-1.92,-2.10,2.15,2.15,2.14
132.46,4.17,2.04,4.17,2.04,-2.04,-1.91,-2.07,2.13,2.13,2.13
133.79,4.12,2.01,4.12,2.01,-2.01,-1.90,-2.04,2.11,2.11,2.11
135.12,4.07,1.98,4.07,1.98,-1.98,-1.88,-2.00,2.09,2.09,2.09
136.48,4.02,1.95,4.02,1.95,-1.95,-1.86,-1.97,2.07,2.07,2.07
137.84,3.97,1.92,3.97,1.92,-1.92,-1.84,-1.93,2.05,2.05,2.06
139.22,3.93,1.89,3.93,1.89,-1.89,-1.82,-1.89,2.04,2.04,2.04
140.61,3.88,1.86,3.88,1.86,-1.86,-1.79,-1.85,2.02,2.02,2.02
142.02,3.83,1.83,3.83,1.83,-1.83,-1.77,-1.80,2.00,2.00,2.00
143.44,3.79,1.80,3.79,1.80,-1.80,-1.73,-1.76,1.99,1.99,1.99
144.87,3.74,1.77,3.74,1.77,-1.77,-1.70,-1.72,1.97,1.97,1.96
146.32,3.69,1.74,3.69,1.74,-1.74,-1.66,-1.67,1.95,1.95,1.95
147.78,3.64,1.70,3.64,1.70,-1.70,-1.62,-1.62,1.94,1.94,1.94
149.26,3.59,1.67,3.59,1.66,-1.66,-1.58,-1.58,1.93,1.93,1.93
150.75,3.54,1.63,3.54,1.63,-1.63,-1.53,-1.53,1.91,1.91,1.91
152.26,3.49,1.58,3.49,1.58,-1.58,-1.49,-1.48,1.90,1.90,1.91
153.78,3.43,1.54,3.43,1.54,-1.54,-1.44,-1.44,1.90,1.90,1.90
155.32,3.38,1.49,3.38,1.49,-1.49,-1.39,-1.39,1.89,1.89,1.89
156.88,3.32,1.44,3.32,1.44,-1.43,-1.34,-1.35,1.89,1.89,1.88
158.44,3.27,1.39,3.27,1.39,-1.38,-1.28,-1.30,1.89,1.89,1.88
160.03,3.21,1.33,3.21,1.32,-1.31,-1.23,-1.25,1.90,1.90,1.88
161.63,3.16,1.24,3.16,1.25,-1.25,-1.18,-1.21,1.91,1.91,1.91
163.24,3.10,1.17,3.10,1.18,-1.18,-1.13,-1.16,1.92,1.92,1.93
164.88,3.05,1.11,3.05,1.12,-1.12,-1.08,-1.12,1.93,1.93,1.93
166.53,2.99,1.06,2.99,1.05,-1.05,-1.03,-1.08,1.94,1.94,1.93
168.19,2.94,1.00,2.94,0.99,-0.99,-0.98,-1.03,1.95,1.95,1.94
169.87,2.88,0.92,2.88,0.94,-0.93,-0.93,-0.99,1.95,1.95,1.96
171.57,2.84,0.88,2.84,0.88,-0.88,-0.88,-0.95,1.95,1.95,1.95
173.29,2.79,0.84,2.79,0.83,-0.84,-0.83,-0.91,1.95,1.95,1.95
175.02,2.75,0.78,2.76,0.79,-0.80,-0.78,-0.87,1.95,1.95,1.97
176.77,2.73,0.76,2.73,0.76,-0.78,-0.74,-0.83,1.95,1.95,1.96
178.54,2.70,0.75,2.70,0.75,-0.75,-0.69,-0.79,1.95,1.95,1.95
180.32,2.68,0.75,2.68,0.74,-0.74,-0.65,-0.75,1.94,1.94,1.93
182.13,2.66,0.73,2.66,0.73,-0.73,-0.61,-0.71,1.93,1.93,1.93
183.95,2.64,0.72,2.64,0.72,-0.72,-0.57,-0.68,1.92,1.92,1.92
185.79,2.61,0.71,2.61,0.71,-0.70,-0.53,-0.64,1.91,1.91,1.91
187.65,2.59,0.70,2.58,0.70,-0.69,-0.49,-0.60,1.89,1.89,1.89
189.52,2.55,0.68,2.55,0.68,-0.67,-0.45,-0.57,1.88,1.88,1.87
191.42,2.52,0.66,2.52,0.66,-0.65,-0.41,-0.53,1.86,1.86,1.86
193.33,2.48,0.63,2.48,0.63,-0.63,-0.38,-0.50,1.85,1.85,1.85
195.27,2.44,0.59,2.44,0.60,-0.61,-0.34,-0.47,1.83,1.83,1.84
197.22,2.40,0.58,2.40,0.58,-0.58,-0.30,-0.43,1.81,1.81,1.81
199.19,2.35,0.56,2.35,0.55,-0.55,-0.27,-0.40,1.80,1.80,1.80
201.18,2.31,0.52,2.31,0.52,-0.51,-0.24,-0.37,1.80,1.80,1.79
203.19,2.27,0.47,2.27,0.49,-0.48,-0.20,-0.34,1.79,1.79,1.80
205.23,2.23,0.46,2.22,0.45,-0.44,-0.17,-0.31,1.78,1.78,1.77
207.28,2.18,0.42,2.18,0.41,-0.41,-0.14,-0.27,1.77,1.77,1.76
209.35,2.13,0.37,2.13,0.36,-0.38,-0.11,-0.24,1.76,1.76,1.77
211.44,2.09,0.31,2.09,0.31,-0.34,-0.08,-0.21,1.75,1.75,1.77
213.56,2.04,0.26,2.04,0.29,-0.30,-0.05,-0.18,1.74,1.74,1.78
215.69,1.99,0.27,1.99,0.27,-0.26,-0.02,-0.16,1.72,1.72,1.72
217.85,1.94,0.29,1.94,0.25,-0.23,0.01,-0.13,1.71,1.71,1.65
220.03,1.89,0.21,1.89,0.21,-0.19,0.04,-0.10,1.70,1.70,1.68
222.23,1.84,0.14,1.84,0.15,-0.15,0.07,-0.07,1.69,1.69,1.70
224.45,1.79,0.08,1.79,0.09,-0.11,0.10,-0.04,1.68,1.68,1.71
226.70,1.74,0.06,1.74,0.05,-0.07,0.13,-0.01,1.68,1.68,1.69
228.96,1.70,0.02,1.70,0.02,-0.02,0.16,0.02,1.67,1.67,1.67
231.25,1.65,-0.02,1.65,-0.02,0.02,0.18,0.04,1.67,1.67,1.67
233.57,1.60,-0.06,1.60,-0.06,0.06,0.21,0.07,1.66,1.66,1.66
235.90,1.55,-0.10,1.55,-0.10,0.10,0.24,0.10,1.65,1.65,1.65
238.26,1.51,-0.13,1.51,-0.14,0.14,0.27,0.13,1.64,1.64,1.64
240.64,1.46,-0.17,1.46,-0.18,0.17,0.30,0.16,1.63,1.63,1.63
243.05,1.41,-0.22,1.41,-0.21,0.21,0.32,0.18,1.62,1.62,1.63
245.48,1.37,-0.25,1.37,-0.25,0.25,0.35,0.21,1.62,1.62,1.61
247.93,1.32,-0.28,1.32,-0.28,0.29,0.38,0.24,1.61,1.61,1.60
250.41,1.27,-0.32,1.27,-0.32,0.33,0.41,0.26,1.60,1.60,1.59
252.92,1.23,-0.37,1.23,-0.37,0.36,0.44,0.29,1.59,1.59,1.60
255.45,1.19,-0.41,1.19,-0.41,0.40,0.47,0.32,1.59,1.59,1.59
258.00,1.14,-0.45,1.14,-0.44,0.44,0.50,0.35,1.58,1.58,1.59
260.58,1.10,-0.48,1.10,-0.48,0.48,0.52,0.38,1.58,1.58,1.57
263.19,1.05,-0.51,1.05,-0.51,0.52,0.55,0.40,1.57,1.57,1.56
265.82,1.01,-0.55,1.01,-0.55,0.56,0.58,0.43,1.56,1.56,1.56
268.48,0.96,-0.60,0.96,-0.59,0.59,0.61,0.46,1.56,1.56,1.56
271.16,0.92,-0.63,0.92,-0.63,0.63,0.64,0.49,1.55,1.55,1.55
273.87,0.88,-0.67,0.87,-0.67,0.67,0.67,0.52,1.54,1.54,1.54
276.61,0.83,-0.70,0.83,-0.71,0.71,0.70,0.55,1.54,1.54,1.54
279.38,0.79,-0.75,0.79,-0.74,0.74,0.74,0.58,1.53,1.53,1.53
282.17,0.75,-0.78,0.75,-0.78,0.78,0.77,0.61,1.53,1.53,1.53
284.99,0.70,-0.81,0.70,-0.82,0.81,0.80,0.64,1.52,1.52,1.52
287.84,0.66,-0.85,0.66,-0.85,0.85,0.83,0.67,1.51,1.51,1.51
290.72,0.62,-0.89,0.62,-0.89,0.89,0.86,0.70,1.51,1.51,1.51
293.63,0.58,-0.92,0.58,-0.92,0.92,0.90,0.74,1.50,1.50,1.50
296.57,0.54,-0.96,0.54,-0.96,0.96,0.93,0.77,1.50,1.50,1.50
299.53,0.50,-1.00,0.50,-1.00,1.00,0.96,0.80,1.49,1.49,1.49
302.53,0.45,-1.04,0.45,-1.04,1.03,1.00,0.84,1.49,1.49,1.49
305.55,0.41,-1.07,0.41,-1.07,1.07,1.03,0.87,1.48,1.48,1.49
308.61,0.37,-1.11,0.37,-1.11,1.11,1.07,0.91,1.48,1.48,1.48
311.69,0.33,-1.14,0.33,-1.14,1.14,1.10,0.95,1.48,1.48,1.48
314.81,0.29,-1.18,0.29,-1.18,1.18,1.14,0.98,1.47,1.47,1.47
317.96,0.25,-1.22,0.25,-1.22,1.22,1.17,1.02,1.47,1.47,1.47
321.14,0.21,-1.26,0.21,-1.25,1.25,1.21,1.06,1.47,1.47,1.47
324.35,0.18,-1.28,0.18,-1.29,1.29,1.25,1.10,1.46,1.46,1.46
327.59,0.14,-1.32,0.14,-1.32,1.32,1.28,1.15,1.46,1.46,1.46
330.87,0.10,-1.37,0.10,-1.36,1.36,1.32,1.19,1.46,1.46,1.47
334.18,0.07,-1.39,0.07,-1.39,1.39,1.36,1.23,1.46,1.46,1.45
337.52,0.03,-1.42,0.03,-1.42,1.43,1.39,1.28,1.46,1.46,1.45
340.90,-0.01,-1.46,-0.01,-1.46,1.46,1.43,1.32,1.45,1.45,1.45
344.30,-0.04,-1.49,-0.04,-1.50,1.49,1.47,1.37,1.45,1.45,1.45
347.75,-0.08,-1.53,-0.08,-1.53,1.53,1.50,1.42,1.45,1.45,1.45
351.23,-0.11,-1.57,-0.11,-1.57,1.57,1.54,1.47,1.45,1.45,1.45
354.74,-0.15,-1.60,-0.15,-1.60,1.60,1.58,1.52,1.46,1.46,1.45
358.28,-0.18,-1.64,-0.18,-1.64,1.64,1.61,1.57,1.46,1.46,1.45
361.87,-0.22,-1.68,-0.22,-1.68,1.68,1.65,1.63,1.46,1.46,1.46
365.49,-0.25,-1.72,-0.25,-1.72,1.71,1.69,1.68,1.46,1.46,1.47
369.14,-0.29,-1.75,-0.29,-1.75,1.75,1.72,1.74,1.47,1.47,1.47
372.83,-0.32,-1.79,-0.32,-1.79,1.79,1.76,1.79,1.47,1.47,1.47
376.56,-0.35,-1.82,-0.35,-1.82,1.82,1.79,1.85,1.48,1.48,1.47
380.33,-0.38,-1.86,-0.38,-1.86,1.86,1.83,1.91,1.48,1.48,1.48
384.13,-0.41,-1.90,-0.41,-1.90,1.90,1.86,1.97,1.48,1.48,1.48
387.97,-0.44,-1.94,-0.44,-1.93,1.93,1.90,2.03,1.49,1.49,1.49
391.85,-0.48,-1.97,-0.48,-1.97,1.97,1.93,2.09,1.49,1.49,1.49
395.77,-0.51,-2.00,-0.51,-2.01,2.01,1.96,2.16,1.50,1.50,1.50
399.73,-0.54,-2.05,-0.54,-2.04,2.04,2.00,2.22,1.50,1.50,1.51
403.72,-0.57,-2.08,-0.57,-2.08,2.07,2.03,2.28,1.51,1.51,1.51
407.76,-0.60,-2.11,-0.60,-2.11,2.11,2.06,2.34,1.51,1.51,1.51
411.84,-0.63,-2.14,-0.63,-2.14,2.14,2.09,2.41,1.51,1.51,1.52
415.96,-0.66,-2.18,-0.66,-2.17,2.17,2.13,2.47,1.52,1.52,1.52
420.12,-0.69,-2.20,-0.69,-2.20,2.21,2.16,2.53,1.52,1.52,1.52
424.32,-0.72,-2.23,-0.72,-2.24,2.24,2.19,2.60,1.52,1.52,1.51
428.56,-0.75,-2.27,-0.75,-2.27,2.27,2.22,2.66,1.52,1.52,1.53
432.85,-0.78,-2.31,-0.78,-2.30,2.30,2.25,2.72,1.53,1.53,1.53
437.18,-0.80,-2.33,-0.80,-2.34,2.34,2.28,2.78,1.53,1.53,1.53
441.55,-0.83,-2.37,-0.83,-2.37,2.37,2.32,2.84,1.54,1.54,1.54
445.96,-0.86,-2.40,-0.86,-2.40,2.40,2.35,2.89,1.54,1.54,1.54
450.42,-0.88,-2.43,-0.88,-2.43,2.43,2.38,2.94,1.55,1.55,1.55
454.93,-0.91,-2.46,-0.91,-2.47,2.46,2.41,2.99,1.55,1.55,1.55
459.48,-0.94,-2.50,-0.94,-2.49,2.49,2.44,3.04,1.56,1.56,1.56
464.07,-0.96,-2.53,-0.96,-2.52,2.53,2.47,3.09,1.56,1.56,1.57
468.71,-0.99,-2.55,-0.99,-2.56,2.56,2.51,3.13,1.57,1.57,1.56
473.40,-1.01,-2.59,-1.01,-2.59,2.59,2.54,3.16,1.58,1.58,1.58
478.13,-1.03,-2.62,-1.03,-2.62,2.62,2.57,3.20,1.59,1.59,1.59
482.91,-1.06,-2.66,-1.06,-2.66,2.66,2.60,3.23,1.60,1.60,1.60
487.74,-1.08,-2.70,-1.08,-2.69,2.69,2.64,3.25,1.61,1.61,1.62
492.62,-1.10,-2.72,-1.10,-2.73,2.73,2.67,3.27,1.63,1.63,1.62
497.55,-1.12,-2.76,-1.12,-2.76,2.76,2.70,3.29,1.64,1.64,1.64
502.52,-1.14,-2.80,-1.14,-2.80,2.80,2.74,3.30,1.66,1.66,1.66
507.55,-1.16,-2.84,-1.16,-2.83,2.84,2.77,3.30,1.67,1.67,1.67
512.62,-1.18,-2.87,-1.18,-2.87,2.87,2.80,3.30,1.69,1.69,1.68
517.75,-1.21,-2.90,-1.20,-2.90,2.91,2.83,3.30,1.70,1.70,1.70
522.93,-1.22,-2.94,-1.22,-2.94,2.94,2.87,3.29,1.71,1.71,1.71
528.16,-1.24,-2.97,-1.24,-2.97,2.97,2.90,3.28,1.73,1.73,1.73
533.44,-1.26,-3.00,-1.26,-3.00,3.00,2.93,3.27,1.74,1.74,1.74
538.77,-1.28,-3.03,-1.28,-3.03,3.03,2.96,3.25,1.75,1.75,1.75
544.16,-1.30,-3.05,-1.30,-3.05,3.05,2.99,3.23,1.76,1.76,1.76
549.60,-1.31,-3.08,-1.31,-3.08,3.08,3.02,3.20,1.77,1.77,1.76
