frequency,raw,error,smoothed,error_smoothed,equalization,parametric_eq,fixed_band_eq,equalized_raw,equalized_smoothed,target
20.00,12.55,2.45,12.55,2.45,-2.43,-2.62,-1.30,10.12,10.12,10.10
20.20,12.55,2.45,12.55,2.45,-2.44,-2.64,-1.33,10.11,10.10,10.10
20.40,12.55,2.45,12.55,2.45,-2.45,-2.67,-1.37,10.09,10.09,10.10
20.61,12.55,2.46,12.55,2.46,-2.47,-2.67,-1.41,10.08,10.08,10.09
20.81,12.56,2.47,12.56,2.47,-2.49,-2.68,-1.45,10.07,10.07,10.09
21.02,12.57,2.49,12.57,2.49,-2.51,-2.68,-1.50,10.06,10.06,10.08
21.23,12.59,2.52,12.59,2.52,-2.53,-2.67,-1.54,10.06,10.06,10.07
21.44,12.62,2.55,12.62,2.55,-2.56,-2.67,-1.58,10.06,10.06,10.07
21.66,12.66,2.59,12.66,2.59,-2.60,-2.66,-1.63,10.07,10.06,10.07
21.87,12.70,2.63,12.70,2.63,-2.63,-2.66,-1.68,10.07,10.07,10.07
22.09,12.75,2.68,12.75,2.68,-2.67,-2.66,-1.73,10.08,10.08,10.07
22.31,12.80,2.72,12.79,2.72,-2.71,-2.67,-1.78,10.09,10.09,10.08
22.54,12.84,2.75,12.84,2.75,-2.74,-2.67,-1.83,10.09,10.09,10.08
22.76,12.87,2.78,12.87,2.78,-2.77,-2.68,-1.88,10.10,10.10,10.09
22.99,12.89,2.80,12.89,2.80,-2.80,-2.68,-1.93,10.09,10.09,10.09
23.22,12.90,2.81,12.90,2.82,-2.82,-2.69,-1.99,10.08,10.08,10.08
23.45,12.90,2.83,12.90,2.83,-2.83,-2.70,-2.05,10.06,10.06,10.07
23.69,12.89,2.84,12.89,2.84,-2.85,-2.71,-2.10,10.04,10.04,10.05
23.92,12.87,2.85,12.87,2.85,-2.85,-2.72,-2.16,10.02,10.02,10.03
24.16,12.86,2.86,12.86,2.86,-2.85,-2.73,-2.22,10.00,10.00,10.00
24.40,12.85,2.86,12.85,2.86,-2.85,-2.75,-2.28,10.00,10.00,9.99
24.65,12.84,2.86,12.84,2.86,-2.84,-2.76,-2.35,10.00,10.00,9.98
24.89,12.84,2.84,12.84,2.84,-2.82,-2.77,-2.41,10.02,10.02,10.00
25.14,12.84,2.81,12.84,2.81,-2.80,-2.78,-2.47,10.04,10.04,10.03
25.39,12.85,2.78,12.85,2.78,-2.79,-2.79,-2.53,10.06,10.06,10.07
25.65,12.86,2.75,12.86,2.75,-2.78,-2.79,-2.60,10.08,10.08,10.11
25.91,12.87,2.74,12.87,2.74,-2.77,-2.80,-2.66,10.10,10.10,10.13
26.16,12.88,2.74,12.88,2.75,-2.78,-2.81,-2.72,10.10,10.10,10.14
26.43,12.89,2.77,12.89,2.77,-2.79,-2.82,-2.79,10.09,10.09,10.12
26.69,12.88,2.81,12.88,2.81,-2.81,-2.83,-2.85,10.07,10.07,10.07
26.96,12.87,2.85,12.87,2.85,-2.82,-2.83,-2.91,10.05,10.05,10.02
27.23,12.85,2.88,12.85,2.88,-2.83,-2.84,-2.97,10.02,10.02,9.97
27.50,12.82,2.88,12.83,2.88,-2.84,-2.85,-3.03,9.99,9.99,9.94
27.77,12.80,2.86,12.80,2.86,-2.84,-2.85,-3.09,9.96,9.96,9.94
28.05,12.77,2.83,12.78,2.83,-2.84,-2.86,-3.14,9.93,9.93,9.94
28.33,12.75,2.81,12.75,2.81,-2.84,-2.86,-3.19,9.91,9.91,9.95
28.62,12.74,2.79,12.74,2.80,-2.84,-2.87,-3.24,9.90,9.90,9.94
28.90,12.72,2.80,12.72,2.81,-2.84,-2.87,-3.29,9.88,9.88,9.92
29.19,12.71,2.83,12.71,2.84,-2.84,-2.87,-3.34,9.86,9.86,9.87
29.48,12.69,2.87,12.69,2.87,-2.85,-2.88,-3.38,9.84,9.84,9.82
29.78,12.68,2.89,12.68,2.89,-2.85,-2.88,-3.41,9.83,9.83,9.79
30.08,12.67,2.90,12.67,2.90,-2.86,-2.88,-3.44,9.81,9.81,9.76
30.38,12.66,2.88,12.66,2.88,-2.86,-2.89,-3.47,9.80,9.80,9.78
30.68,12.66,2.85,12.66,2.86,-2.87,-2.89,-3.50,9.79,9.79,9.80
30.99,12.66,2.84,12.66,2.84,-2.88,-2.89,-3.52,9.78,9.78,9.83
31.30,12.67,2.84,12.67,2.85,-2.89,-2.89,-3.53,9.78,9.78,9.82
31.61,12.67,2.88,12.67,2.88,-2.91,-2.90,-3.55,9.76,9.76,9.80
31.93,12.67,2.93,12.67,2.92,-2.93,-2.90,-3.55,9.74,9.74,9.75
32.24,12.67,2.97,12.67,2.97,-2.95,-2.90,-3.56,9.72,9.72,9.69
32.57,12.66,3.01,12.66,3.01,-2.97,-2.90,-3.55,9.69,9.69,9.65
32.89,12.65,3.02,12.65,3.02,-2.99,-2.91,-3.55,9.66,9.66,9.63
33.22,12.64,3.01,12.64,3.01,-2.99,-2.91,-3.54,9.64,9.64,9.62
33.55,12.62,2.99,12.62,2.99,-2.99,-2.91,-3.53,9.63,9.63,9.63
33.89,12.59,2.97,12.59,2.97,-2.98,-2.92,-3.51,9.61,9.61,9.62
34.23,12.56,2.95,12.56,2.95,-2.96,-2.92,-3.50,9.60,9.60,9.61
34.57,12.53,2.93,12.53,2.93,-2.95,-2.92,-3.47,9.58,9.58,9.60
34.92,12.50,2.92,12.50,2.92,-2.93,-2.93,-3.45,9.56,9.56,9.57
35.27,12.47,2.92,12.47,2.92,-2.92,-2.93,-3.43,9.55,9.55,9.55
35.62,12.45,2.92,12.45,2.92,-2.92,-2.93,-3.40,9.53,9.53,9.53
35.97,12.44,2.93,12.44,2.93,-2.93,-2.94,-3.37,9.51,9.52,9.51
36.33,12.43,2.94,12.43,2.93,-2.93,-2.94,-3.34,9.50,9.50,9.50
36.70,12.43,2.95,12.43,2.94,-2.94,-2.94,-3.31,9.49,9.49,9.48
37.06,12.42,2.96,12.42,2.96,-2.95,-2.95,-3.28,9.47,9.47,9.47
37.43,12.42,2.97,12.42,2.97,-2.97,-2.95,-3.25,9.45,9.45,9.45
37.81,12.41,2.98,12.41,2.98,-2.98,-2.96,-3.22,9.43,9.43,9.42
38.19,12.40,3.00,12.40,3.00,-3.00,-2.96,-3.20,9.40,9.40,9.40
38.57,12.39,3.02,12.39,3.02,-3.02,-2.97,-3.17,9.37,9.37,9.37
38.95,12.38,3.04,12.38,3.04,-3.04,-2.97,-3.14,9.33,9.33,9.33
39.34,12.37,3.07,12.37,3.07,-3.08,-2.98,-3.11,9.30,9.30,9.30
39.74,12.38,3.10,12.38,3.10,-3.11,-2.98,-3.09,9.26,9.27,9.28
40.14,12.40,3.14,12.40,3.14,-3.16,-2.99,-3.07,9.24,9.24,9.26
40.54,12.43,3.19,12.43,3.19,-3.20,-3.00,-3.04,9.23,9.23,9.24
40.94,12.47,3.24,12.47,3.24,-3.25,-3.00,-3.02,9.22,9.22,9.23
41.35,12.51,3.29,12.51,3.29,-3.28,-3.01,-3.01,9.22,9.22,9.21
41.76,12.54,3.34,12.53,3.33,-3.31,-3.01,-2.99,9.22,9.22,9.20
42.18,12.53,3.36,12.53,3.36,-3.33,-3.02,-2.98,9.20,9.20,9.17
42.60,12.52,3.37,12.51,3.37,-3.35,-3.03,-2.96,9.17,9.17,9.15
43.03,12.47,3.35,12.47,3.35,-3.35,-3.03,-2.96,9.12,9.11,9.12
43.46,12.41,3.32,12.41,3.32,-3.36,-3.04,-2.95,9.05,9.05,9.09
43.90,12.34,3.28,12.35,3.28,-3.34,-3.05,-2.94,9.00,9.00,9.06
44.33,12.29,3.24,12.30,3.25,-3.30,-3.06,-2.94,8.98,8.99,9.04
44.78,12.24,3.22,12.25,3.23,-3.22,-3.06,-2.94,9.02,9.03,9.02
45.23,12.18,3.20,12.18,3.20,-3.09,-3.07,-2.94,9.09,9.09,8.99
45.68,12.06,3.12,12.06,3.11,-2.92,-3.08,-2.94,9.14,9.13,8.95
46.13,11.87,2.97,11.84,2.94,-2.74,-3.08,-2.95,9.13,9.09,8.90
46.60,11.54,2.68,11.52,2.65,-2.58,-3.09,-2.96,8.96,8.95,8.87
47.06,11.19,2.35,11.19,2.35,-2.44,-3.10,-2.97,8.75,8.74,8.84
47.53,10.87,2.05,10.93,2.11,-2.36,-3.11,-2.98,8.51,8.57,8.82
48.01,10.81,2.02,10.84,2.04,-2.33,-3.11,-3.00,8.49,8.51,8.80
48.49,10.92,2.15,10.93,2.16,-2.36,-3.12,-3.01,8.56,8.57,8.77
48.97,11.17,2.43,11.16,2.42,-2.45,-3.13,-3.03,8.72,8.71,8.74
49.46,11.43,2.72,11.40,2.69,-2.58,-3.13,-3.05,8.85,8.82,8.71
49.96,11.62,2.94,11.60,2.92,-2.75,-3.14,-3.07,8.88,8.86,8.68
50.46,11.72,3.06,11.73,3.07,-2.91,-3.15,-3.09,8.80,8.81,8.66
50.96,11.78,3.15,11.77,3.14,-3.06,-3.16,-3.12,8.72,8.72,8.63
51.47,11.78,3.18,11.78,3.18,-3.16,-3.16,-3.14,8.63,8.62,8.60
51.99,11.76,3.19,11.76,3.19,-3.22,-3.17,-3.17,8.54,8.54,8.57
52.51,11.73,3.19,11.74,3.20,-3.26,-3.18,-3.20,8.48,8.48,8.54
53.03,11.71,3.21,11.72,3.21,-3.28,-3.18,-3.22,8.43,8.44,8.51
53.56,11.73,3.25,11.73,3.25,-3.30,-3.19,-3.25,8.43,8.43,8.48
54.10,11.75,3.31,11.75,3.31,-3.32,-3.19,-3.28,8.43,8.43,8.44
54.64,11.77,3.37,11.77,3.36,-3.34,-3.20,-3.31,8.43,8.43,8.40
55.18,11.77,3.41,11.77,3.40,-3.36,-3.21,-3.33,8.42,8.41,8.36
55.74,11.74,3.41,11.74,3.41,-3.36,-3.21,-3.36,8.38,8.38,8.33
56.29,11.69,3.39,11.69,3.39,-3.36,-3.22,-3.38,8.33,8.33,8.30
56.86,11.62,3.35,11.62,3.35,-3.35,-3.22,-3.41,8.28,8.28,8.27
57.42,11.56,3.31,11.56,3.31,-3.32,-3.23,-3.43,8.23,8.23,8.24
58.00,11.49,3.27,11.49,3.28,-3.30,-3.23,-3.45,8.19,8.19,8.21
58.58,11.44,3.25,11.43,3.25,-3.28,-3.23,-3.47,8.16,8.16,8.18
59.16,11.39,3.24,11.39,3.24,-3.26,-3.24,-3.48,8.13,8.13,8.15
59.76,11.36,3.25,11.36,3.25,-3.26,-3.24,-3.50,8.10,8.10,8.11
60.35,11.34,3.27,11.34,3.26,-3.27,-3.24,-3.51,8.07,8.07,8.07
60.96,11.32,3.29,11.32,3.29,-3.28,-3.25,-3.52,8.04,8.04,8.04
61.57,11.31,3.30,11.31,3.31,-3.30,-3.25,-3.52,8.01,8.01,8.01
62.18,11.30,3.33,11.30,3.33,-3.32,-3.25,-3.52,7.98,7.98,7.97
62.80,11.29,3.35,11.29,3.35,-3.34,-3.25,-3.52,7.94,7.94,7.94
63.43,11.27,3.36,11.27,3.36,-3.36,-3.25,-3.52,7.91,7.91,7.90
64.07,11.25,3.37,11.24,3.37,-3.37,-3.25,-3.51,7.88,7.88,7.87
64.71,11.21,3.38,11.21,3.38,-3.37,-3.26,-3.50,7.84,7.84,7.84
65.35,11.18,3.38,11.18,3.38,-3.37,-3.26,-3.49,7.81,7.81,7.80
66.01,11.14,3.37,11.14,3.37,-3.36,-3.25,-3.47,7.77,7.77,7.77
66.67,11.09,3.35,11.09,3.35,-3.35,-3.25,-3.46,7.74,7.74,7.74
67.33,11.04,3.34,11.04,3.34,-3.34,-3.25,-3.44,7.70,7.70,7.70
68.01,10.99,3.32,10.99,3.32,-3.33,-3.25,-3.41,7.66,7.66,7.67
68.69,10.95,3.31,10.95,3.31,-3.32,-3.25,-3.39,7.62,7.63,7.64
69.37,10.91,3.31,10.91,3.31,-3.32,-3.25,-3.36,7.59,7.59,7.60
70.07,10.87,3.31,10.87,3.31,-3.31,-3.24,-3.34,7.55,7.55,7.56
70.77,10.83,3.31,10.83,3.31,-3.31,-3.24,-3.31,7.52,7.52,7.52
71.48,10.79,3.31,10.79,3.31,-3.31,-3.24,-3.28,7.48,7.48,7.47
72.19,10.74,3.31,10.74,3.31,-3.30,-3.23,-3.25,7.44,7.44,7.43
72.91,10.69,3.31,10.69,3.30,-3.29,-3.23,-3.22,7.40,7.40,7.38
73.64,10.63,3.29,10.63,3.29,-3.28,-3.22,-3.19,7.36,7.36,7.34
74.38,10.58,3.26,10.58,3.26,-3.26,-3.22,-3.16,7.31,7.31,7.31
75.12,10.52,3.24,10.52,3.24,-3.25,-3.21,-3.13,7.27,7.28,7.29
75.87,10.48,3.22,10.48,3.22,-3.23,-3.20,-3.10,7.24,7.24,7.26
76.63,10.43,3.21,10.43,3.21,-3.22,-3.20,-3.07,7.21,7.21,7.22
77.40,10.39,3.21,10.39,3.21,-3.21,-3.19,-3.05,7.18,7.18,7.19
78.17,10.35,3.21,10.35,3.21,-3.21,-3.19,-3.02,7.15,7.15,7.15
78.95,10.31,3.21,10.31,3.21,-3.20,-3.18,-3.00,7.11,7.11,7.11
79.74,10.28,3.20,10.28,3.20,-3.20,-3.17,-2.98,7.08,7.08,7.07
80.54,10.24,3.20,10.24,3.20,-3.19,-3.17,-2.96,7.04,7.04,7.04
81.35,10.20,3.20,10.20,3.20,-3.19,-3.16,-2.94,7.01,7.01,7.00
82.16,10.15,3.19,10.15,3.19,-3.18,-3.15,-2.92,6.97,6.97,6.96
82.98,10.11,3.18,10.10,3.18,-3.18,-3.15,-2.90,6.93,6.93,6.93
83.81,10.06,3.17,10.06,3.17,-3.18,-3.14,-2.89,6.87,6.87,6.89
84.65,10.01,3.17,10.01,3.16,-3.19,-3.14,-2.88,6.81,6.81,6.84
85.50,9.97,3.17,9.98,3.17,-3.21,-3.13,-2.87,6.76,6.76,6.80
86.35,9.95,3.19,9.96,3.20,-3.23,-3.13,-2.86,6.73,6.74,6.77
87.22,9.96,3.23,9.96,3.23,-3.23,-3.12,-2.86,6.72,6.73,6.73
88.09,9.96,3.27,9.95,3.27,-3.23,-3.12,-2.85,6.73,6.73,6.69
88.97,9.92,3.28,9.92,3.27,-3.20,-3.12,-2.85,6.72,6.72,6.65
89.86,9.85,3.25,9.84,3.23,-3.16,-3.12,-2.86,6.69,6.68,6.61
90.76,9.72,3.15,9.72,3.15,-3.11,-3.12,-2.86,6.61,6.61,6.57
91.66,9.57,3.04,9.58,3.05,-3.04,-3.12,-2.86,6.54,6.54,6.53
92.58,9.43,2.94,9.44,2.95,-2.97,-3.12,-2.87,6.46,6.47,6.49
93.51,9.32,2.87,9.32,2.87,-2.91,-3.12,-2.88,6.41,6.41,6.45
94.44,9.23,2.82,9.23,2.82,-2.88,-3.12,-2.90,6.35,6.35,6.41
95.39,9.17,2.80,9.17,2.80,-2.87,-3.12,-2.91,6.30,6.30,6.37
96.34,9.15,2.82,9.16,2.83,-2.89,-3.13,-2.93,6.25,6.26,6.33
97.30,9.19,2.90,9.20,2.91,-2.94,-3.13,-2.94,6.25,6.25,6.29
98.28,9.27,3.02,9.27,3.02,-3.01,-3.14,-2.96,6.26,6.26,6.25
99.26,9.34,3.14,9.33,3.13,-3.07,-3.14,-2.98,6.27,6.26,6.20
100.25,9.38,3.22,9.37,3.21,-3.14,-3.15,-3.01,6.24,6.23,6.16
101.25,9.37,3.24,9.37,3.24,-3.19,-3.16,-3.03,6.18,6.18,6.13
102.27,9.34,3.25,9.35,3.26,-3.23,-3.16,-3.05,6.11,6.11,6.09
103.29,9.30,3.25,9.31,3.25,-3.26,-3.17,-3.08,6.04,6.05,6.05
104.32,9.27,3.26,9.27,3.26,-3.28,-3.18,-3.10,5.99,5.99,6.01
105.37,9.23,3.26,9.23,3.26,-3.28,-3.18,-3.13,5.94,5.94,5.97
106.42,9.20,3.26,9.20,3.26,-3.29,-3.19,-3.16,5.90,5.90,5.93
107.48,9.17,3.28,9.18,3.28,-3.30,-3.20,-3.18,5.87,5.87,5.90
108.56,9.16,3.31,9.16,3.31,-3.31,-3.20,-3.21,5.85,5.85,5.85
109.64,9.15,3.34,9.15,3.34,-3.32,-3.21,-3.23,5.83,5.83,5.81
110.74,9.13,3.36,9.13,3.36,-3.33,-3.22,-3.26,5.81,5.80,5.77
111.85,9.10,3.36,9.09,3.36,-3.33,-3.22,-3.28,5.77,5.76,5.74
112.97,9.04,3.34,9.04,3.34,-3.34,-3.22,-3.30,5.70,5.70,5.70
114.10,8.98,3.32,8.98,3.32,-3.33,-3.23,-3.32,5.64,5.64,5.66
115.24,8.92,3.30,8.92,3.30,-3.33,-3.23,-3.34,5.59,5.60,5.62
116.39,8.88,3.29,8.88,3.30,-3.32,-3.23,-3.36,5.56,5.57,5.59
117.55,8.85,3.30,8.85,3.30,-3.30,-3.23,-3.37,5.55,5.55,5.55
118.73,8.82,3.30,8.82,3.30,-3.29,-3.23,-3.38,5.53,5.53,5.51
119.92,8.78,3.29,8.77,3.29,-3.27,-3.23,-3.38,5.50,5.50,5.49
121.12,8.72,3.27,8.72,3.27,-3.25,-3.23,-3.39,5.47,5.46,5.45
122.33,8.65,3.25,8.65,3.25,-3.23,-3.23,-3.39,5.42,5.42,5.40
123.55,8.58,3.22,8.59,3.22,-3.21,-3.22,-3.38,5.37,5.37,5.37
124.79,8.52,3.18,8.52,3.18,-3.19,-3.22,-3.37,5.33,5.32,5.33
126.03,8.45,3.16,8.45,3.15,-3.18,-3.21,-3.36,5.28,5.27,5.30
127.29,8.40,3.13,8.40,3.14,-3.17,-3.21,-3.35,5.23,5.23,5.26
128.57,8.36,3.13,8.36,3.14,-3.16,-3.20,-3.33,5.20,5.20,5.22
129.85,8.34,3.15,8.34,3.15,-3.15,-3.19,-3.31,5.18,5.18,5.19
131.15,8.32,3.17,8.32,3.17,-3.15,-3.18,-3.28,5.17,5.17,5.15
132.46,8.29,3.18,8.28,3.18,-3.14,-3.17,-3.25,5.15,5.14,5.11
133.79,8.24,3.17,8.23,3.16,-3.14,-3.15,-3.22,5.10,5.10,5.07
135.12,8.16,3.13,8.16,3.13,-3.13,-3.14,-3.19,5.03,5.03,5.03
136.48,8.09,3.10,8.09,3.10,-3.12,-3.12,-3.15,4.97,4.97,4.99
137.84,8.02,3.07,8.03,3.08,-3.11,-3.11,-3.11,4.91,4.92,4.95
139.22,7.98,3.07,7.98,3.07,-3.09,-3.09,-3.07,4.89,4.89,4.91
140.61,7.94,3.07,7.94,3.07,-3.08,-3.07,-3.02,4.86,4.86,4.87
142.02,7.91,3.07,7.91,3.07,-3.06,-3.06,-2.98,4.85,4.85,4.83
143.44,7.86,3.07,7.86,3.06,-3.04,-3.04,-2.93,4.82,4.82,4.79
144.87,7.80,3.04,7.80,3.04,-3.01,-3.02,-2.88,4.79,4.78,4.76
146.32,7.72,3.00,7.72,3.00,-2.99,-2.99,-2.83,4.73,4.73,4.72
147.78,7.63,2.95,7.63,2.95,-2.95,-2.97,-2.78,4.68,4.68,4.68
149.26,7.55,2.90,7.55,2.90,-2.91,-2.95,-2.73,4.63,4.63,4.65
150.75,7.47,2.86,7.47,2.86,-2.87,-2.92,-2.68,4.60,4.60,4.61
152.26,7.39,2.82,7.39,2.82,-2.83,-2.90,-2.64,4.56,4.56,4.57
153.78,7.32,2.79,7.32,2.79,-2.79,-2.87,-2.59,4.53,4.53,4.53
155.32,7.25,2.75,7.25,2.75,-2.76,-2.85,-2.54,4.50,4.50,4.50
156.88,7.19,2.72,7.18,2.72,-2.72,-2.82,-2.49,4.46,4.46,4.46
158.44,7.12,2.69,7.12,2.69,-2.69,-2.79,-2.44,4.43,4.43,4.42
160.03,7.05,2.67,7.05,2.66,-2.66,-2.76,-2.40,4.39,4.39,4.39
161.63,6.98,2.63,6.98,2.63,-2.63,-2.74,-2.35,4.35,4.35,4.35
163.24,6.91,2.60,6.91,2.60,-2.60,-2.71,-2.31,4.31,4.31,4.31
164.88,6.85,2.57,6.85,2.57,-2.58,-2.68,-2.27,4.27,4.27,4.28
166.53,6.79,2.55,6.79,2.55,-2.55,-2.65,-2.23,4.23,4.23,4.24
168.19,6.73,2.53,6.73,2.53,-2.53,-2.62,-2.19,4.19,4.20,4.20
169.87,6.67,2.50,6.67,2.51,-2.51,-2.58,-2.15,4.16,4.16,4.16
171.57,6.61,2.49,6.61,2.49,-2.48,-2.55,-2.11,4.13,4.13,4.13
173.29,6.56,2.47,6.56,2.46,-2.45,-2.52,-2.08,4.10,4.10,4.09
175.02,6.49,2.44,6.49,2.44,-2.43,-2.49,-2.04,4.07,4.07,4.06
176.77,6.43,2.40,6.43,2.40,-2.40,-2.46,-2.01,4.03,4.03,4.02
178.54,6.36,2.37,6.36,2.37,-2.37,-2.42,-1.98,3.99,3.99,3.99
180.32,6.29,2.33,6.29,2.33,-2.34,-2.39,-1.95,3.95,3.95,3.96
182.13,6.22,2.30,6.22,2.30,-2.31,-2.36,-1.93,3.91,3.91,3.92
183.95,6.16,2.27,6.17,2.27,-2.28,-2.32,-1.90,3.88,3.88,3.89
185.79,6.11,2.25,6.11,2.25,-2.25,-2.29,-1.88,3.86,3.86,3.86
187.65,6.06,2.23,6.05,2.23,-2.22,-2.25,-1.85,3.83,3.83,3.83
189.52,5.99,2.20,5.99,2.20,-2.19,-2.22,-1.83,3.80,3.80,3.79
191.42,5.93,2.17,5.93,2.17,-2.16,-2.18,-1.81,3.76,3.76,3.76
193.33,5.86,2.13,5.86,2.14,-2.13,-2.15,-1.79,3.73,3.73,3.72
195.27,5.79,2.10,5.79,2.10,-2.09,-2.12,-1.77,3.69,3.69,3.68
197.22,5.71,2.06,5.71,2.06,-2.06,-2.08,-1.76,3.66,3.66,3.66
199.19,5.64,2.01,5.64,2.02,-2.02,-2.05,-1.74,3.63,3.63,3.63
201.18,5.57,1.97,5.57,1.97,-1.98,-2.01,-1.73,3.60,3.60,3.60
203.19,5.51,1.94,5.51,1.94,-1.94,-1.98,-1.72,3.57,3.57,3.57
205.23,5.45,1.90,5.45,1.90,-1.91,-1.94,-1.70,3.54,3.54,3.54
207.28,5.39,1.87,5.39,1.87,-1.88,-1.91,-1.69,3.51,3.51,3.51
209.35,5.33,1.85,5.33,1.85,-1.85,-1.87,-1.68,3.48,3.48,3.48
211.44,5.28,1.83,5.28,1.83,-1.83,-1.84,-1.67,3.45,3.45,3.45
213.56,5.23,1.81,5.23,1.81,-1.81,-1.80,-1.66,3.42,3.42,3.42
215.69,5.19,1.80,5.19,1.80,-1.80,-1.77,-1.65,3.39,3.39,3.39
217.85,5.15,1.79,5.15,1.79,-1.78,-1.73,-1.64,3.37,3.37,3.36
220.03,5.10,1.77,5.10,1.77,-1.76,-1.70,-1.63,3.34,3.34,3.33
222.23,5.05,1.75,5.05,1.75,-1.74,-1.66,-1.62,3.31,3.31,3.30
224.45,5.00,1.73,5.00,1.73,-1.72,-1.63,-1.61,3.28,3.28,3.27
226.70,4.94,1.70,4.94,1.70,-1.70,-1.59,-1.59,3.25,3.25,3.25
228.96,4.89,1.67,4.89,1.67,-1.67,-1.56,-1.58,3.22,3.22,3.22
231.25,4.83,1.64,4.83,1.64,-1.64,-1.52,-1.57,3.19,3.19,3.19
233.57,4.77,1.60,4.77,1.60,-1.61,-1.49,-1.56,3.16,3.16,3.17
235.90,4.71,1.57,4.71,1.57,-1.57,-1.45,-1.54,3.14,3.14,3.14
238.26,4.65,1.54,4.65,1.54,-1.54,-1.42,-1.52,3.11,3.11,3.11
240.64,4.59,1.51,4.59,1.50,-1.50,-1.39,-1.51,3.08,3.08,3.08
243.05,4.53,1.47,4.53,1.47,-1.47,-1.35,-1.49,3.06,3.06,3.06
245.48,4.46,1.44,4.46,1.43,-1.44,-1.32,-1.47,3.03,3.03,3.03
247.93,4.40,1.40,4.40,1.40,-1.40,-1.28,-1.45,3.00,3.00,3.00
250.41,4.34,1.36,4.34,1.37,-1.37,-1.25,-1.42,2.97,2.97,2.97
252.92,4.28,1.33,4.28,1.33,-1.33,-1.22,-1.40,2.95,2.95,2.94
255.45,4.21,1.30,4.22,1.29,-1.30,-1.18,-1.37,2.92,2.92,2.92
258.00,4.15,1.26,4.15,1.26,-1.26,-1.15,-1.34,2.89,2.89,2.90
260.58,4.09,1.22,4.09,1.22,-1.22,-1.12,-1.31,2.87,2.87,2.87
263.19,4.03,1.19,4.03,1.19,-1.19,-1.08,-1.28,2.84,2.84,2.84
265.82,3.96,1.15,3.96,1.15,-1.15,-1.05,-1.25,2.81,2.81,2.81
268.48,3.90,1.12,3.90,1.12,-1.11,-1.02,-1.21,2.78,2.78,2.78
271.16,3.83,1.08,3.83,1.08,-1.08,-0.98,-1.18,2.76,2.76,2.76
273.87,3.77,1.04,3.77,1.04,-1.04,-0.95,-1.14,2.73,2.73,2.73
276.61,3.70,1.00,3.70,1.00,-1.01,-0.92,-1.10,2.70,2.70,2.70
279.38,3.64,0.97,3.64,0.97,-0.97,-0.89,-1.06,2.67,2.67,2.67
282.17,3.58,0.93,3.58,0.93,-0.93,-0.85,-1.02,2.64,2.64,2.64
284.99,3.51,0.90,3.51,0.90,-0.89,-0.82,-0.98,2.62,2.62,2.61
287.84,3.45,0.86,3.45,0.86,-0.85,-0.79,-0.94,2.60,2.60,2.59
290.72,3.39,0.82,3.39,0.82,-0.81,-0.76,-0.90,2.58,2.58,2.57
293.63,3.33,0.78,3.33,0.77,-0.77,-0.72,-0.85,2.56,2.56,2.55
296.57,3.27,0.73,3.27,0.73,-0.72,-0.69,-0.81,2.54,2.54,2.54
299.53,3.20,0.67,3.20,0.68,-0.68,-0.66,-0.76,2.53,2.53,2.53
302.53,3.14,0.63,3.14,0.63,-0.63,-0.63,-0.72,2.51,2.51,2.51
305.55,3.08,0.58,3.08,0.58,-0.58,-0.59,-0.67,2.50,2.50,2.50
308.61,3.02,0.54,3.02,0.54,-0.54,-0.56,-0.63,2.48,2.48,2.49
311.69,2.97,0.49,2.97,0.49,-0.50,-0.53,-0.58,2.47,2.47,2.47
314.81,2.91,0.45,2.91,0.45,-0.45,-0.50,-0.54,2.45,2.45,2.45
317.96,2.85,0.42,2.85,0.42,-0.42,-0.46,-0.49,2.44,2.44,2.44
321.14,2.80,0.38,2.80,0.38,-0.38,-0.43,-0.44,2.42,2.42,2.42
324.35,2.74,0.35,2.74,0.34,-0.34,-0.40,-0.40,2.40,2.40,2.40
327.59,2.69,0.31,2.69,0.31,-0.31,-0.37,-0.35,2.38,2.38,2.38
330.87,2.63,0.28,2.63,0.27,-0.28,-0.33,-0.30,2.36,2.35,2.36
334.18,2.58,0.24,2.58,0.24,-0.24,-0.30,-0.26,2.33,2.33,2.34
337.52,2.52,0.21,2.52,0.21,-0.21,-0.27,-0.21,2.31,2.31,2.32
340.90,2.47,0.18,2.47,0.18,-0.18,-0.24,-0.16,2.29,2.29,2.29
344.30,2.42,0.15,2.42,0.15,-0.14,-0.20,-0.11,2.28,2.28,2.27
347.75,2.37,0.11,2.37,0.11,-0.11,-0.17,-0.07,2.26,2.26,2.25
351.23,2.31,0.07,2.31,0.07,-0.07,-0.14,-0.02,2.24,2.24,2.24
354.74,2.25,0.03,2.25,0.03,-0.03,-0.10,0.03,2.22,2.22,2.21
358.28,2.18,-0.02,2.18,-0.02,0.02,-0.07,0.07,2.20,2.20,2.20
361.87,2.12,-0.07,2.12,-0.06,0.06,-0.04,0.12,2.18,2.18,2.19
365.49,2.06,-0.11,2.06,-0.11,0.10,-0.00,0.17,2.16,2.16,2.17
369.14,2.00,-0.15,2.00,-0.15,0.14,0.03,0.22,2.15,2.15,2.15
372.83,1.95,-0.18,1.95,-0.18,0.18,0.07,0.26,2.13,2.13,2.13
376.56,1.90,-0.22,1.90,-0.22,0.22,0.10,0.31,2.12,2.12,2.12
380.33,1.85,-0.25,1.85,-0.25,0.26,0.13,0.36,2.10,2.10,2.10
384.13,1.79,-0.29,1.79,-0.29,0.29,0.17,0.41,2.08,2.08,2.08
387.97,1.74,-0.33,1.74,-0.33,0.33,0.20,0.45,2.06,2.07,2.07
391.85,1.69,-0.36,1.69,-0.36,0.36,0.24,0.50,2.05,2.05,2.05
395.77,1.64,-0.40,1.64,-0.40,0.39,0.27,0.55,2.03,2.03,2.03
399.73,1.59,-0.42,1.59,-0.43,0.43,0.31,0.59,2.02,2.02,2.02
403.72,1.54,-0.46,1.54,-0.46,0.46,0.34,0.64,2.01,2.01,2.00
407.76,1.49,-0.49,1.49,-0.49,0.50,0.38,0.69,1.99,1.99,1.99
411.84,1.44,-0.53,1.44,-0.53,0.53,0.42,0.73,1.97,1.97,1.97
415.96,1.39,-0.56,1.39,-0.56,0.56,0.45,0.78,1.95,1.95,1.96
420.12,1.35,-0.59,1.35,-0.59,0.59,0.49,0.83,1.94,1.94,1.94
424.32,1.30,-0.62,1.30,-0.62,0.62,0.52,0.87,1.92,1.92,1.93
428.56,1.26,-0.65,1.26,-0.65,0.65,0.56,0.91,1.91,1.91,1.91
432.85,1.22,-0.67,1.22,-0.67,0.68,0.60,0.96,1.90,1.90,1.89
437.18,1.17,-0.70,1.17,-0.70,0.71,0.64,1.00,1.88,1.88,1.87
441.55,1.12,-0.73,1.12,-0.73,0.74,0.67,1.04,1.85,1.85,1.85
445.96,1.07,-0.77,1.07,-0.77,0.77,0.71,1.08,1.83,1.83,1.83
450.42,1.02,-0.80,1.02,-0.80,0.79,0.75,1.12,1.81,1.81,1.82
454.93,0.97,-0.83,0.97,-0.83,0.82,0.79,1.16,1.79,1.79,1.80
459.48,0.93,-0.85,0.93,-0.85,0.85,0.82,1.20,1.78,1.78,1.78
464.07,0.89,-0.88,0.89,-0.88,0.88,0.86,1.23,1.77,1.77,1.76
468.71,0.84,-0.91,0.84,-0.91,0.91,0.90,1.26,1.75,1.75,1.75
473.40,0.80,-0.93,0.80,-0.93,0.93,0.94,1.29,1.74,1.74,1.73
478.13,0.76,-0.96,0.76,-0.96,0.96,0.98,1.32,1.72,1.72,1.72
482.91,0.72,-0.98,0.72,-0.98,0.98,1.01,1.35,1.71,1.71,1.71
487.74,0.68,-1.01,0.68,-1.01,1.01,1.05,1.38,1.69,1.69,1.69
492.62,0.65,-1.03,0.65,-1.03,1.03,1.09,1.40,1.68,1.68,1.68
497.55,0.61,-1.06,0.61,-1.06,1.06,1.13,1.42,1.67,1.67,1.67
502.52,0.57,-1.08,0.57,-1.08,1.08,1.17,1.44,1.65,1.65,1.65
507.55,0.54,-1.10,0.54,-1.10,1.10,1.20,1.46,1.64,1.64,1.64
512.62,0.51,-1.12,0.51,-1.12,1.11,1.24,1.47,1.62,1.62,1.63
517.75,0.48,-1.14,0.48,-1.14,1.13,1.28,1.49,1.61,1.61,1.62
