frequency,raw,error,smoothed,error_smoothed,equalization,parametric_eq,fixed_band_eq,equalized_raw,equalized_smoothed,target
20.00,9.62,0.08,9.62,0.08,-0.07,-0.24,-0.23,9.55,9.55,9.54
20.20,9.65,0.08,9.65,0.08,-0.08,-0.25,-0.23,9.57,9.57,9.57
20.40,9.68,0.08,9.68,0.08,-0.09,-0.25,-0.24,9.59,9.59,9.60
20.61,9.71,0.09,9.71,0.09,-0.10,-0.26,-0.25,9.61,9.61,9.62
20.81,9.74,0.10,9.74,0.10,-0.11,-0.26,-0.25,9.63,9.63,9.63
21.02,9.77,0.12,9.77,0.12,-0.12,-0.27,-0.26,9.65,9.65,9.65
21.23,9.80,0.13,9.80,0.13,-0.13,-0.27,-0.27,9.67,9.67,9.66
21.44,9.83,0.15,9.83,0.15,-0.14,-0.28,-0.27,9.68,9.68,9.68
21.66,9.86,0.16,9.86,0.16,-0.16,-0.28,-0.28,9.70,9.70,9.70
21.87,9.89,0.17,9.89,0.17,-0.17,-0.29,-0.29,9.72,9.72,9.71
22.09,9.92,0.19,9.92,0.19,-0.19,-0.29,-0.30,9.73,9.73,9.73
22.31,9.95,0.20,9.95,0.20,-0.21,-0.30,-0.30,9.74,9.74,9.75
22.54,9.98,0.22,9.98,0.22,-0.23,-0.31,-0.31,9.75,9.75,9.76
22.76,10.00,0.24,10.00,0.24,-0.25,-0.31,-0.32,9.75,9.75,9.76
22.99,10.03,0.27,10.03,0.27,-0.28,-0.32,-0.33,9.75,9.75,9.76
23.22,10.05,0.30,10.05,0.30,-0.30,-0.32,-0.34,9.75,9.75,9.75
23.45,10.08,0.33,10.08,0.33,-0.32,-0.33,-0.35,9.75,9.75,9.75
23.69,10.10,0.35,10.10,0.35,-0.34,-0.34,-0.36,9.76,9.76,9.74
23.92,10.12,0.37,10.12,0.37,-0.36,-0.34,-0.37,9.76,9.76,9.75
24.16,10.14,0.38,10.14,0.38,-0.37,-0.35,-0.37,9.77,9.77,9.76
24.40,10.17,0.38,10.17,0.38,-0.38,-0.35,-0.38,9.79,9.79,9.78
24.65,10.19,0.38,10.19,0.38,-0.39,-0.36,-0.39,9.80,9.80,9.81
24.89,10.21,0.39,10.21,0.39,-0.40,-0.37,-0.40,9.81,9.81,9.83
25.14,10.24,0.40,10.24,0.40,-0.41,-0.38,-0.41,9.82,9.82,9.84
25.39,10.26,0.41,10.26,0.42,-0.43,-0.38,-0.42,9.83,9.83,9.84
25.65,10.28,0.44,10.28,0.44,-0.44,-0.39,-0.44,9.84,9.84,9.84
25.91,10.30,0.47,10.30,0.47,-0.46,-0.40,-0.45,9.84,9.84,9.84
26.16,10.32,0.49,10.32,0.49,-0.48,-0.40,-0.46,9.85,9.84,9.83
26.43,10.34,0.50,10.34,0.50,-0.49,-0.41,-0.47,9.85,9.85,9.83
26.69,10.35,0.51,10.35,0.51,-0.50,-0.42,-0.48,9.86,9.86,9.84
26.96,10.37,0.51,10.37,0.51,-0.50,-0.43,-0.49,9.87,9.87,9.86
27.23,10.38,0.50,10.38,0.50,-0.50,-0.44,-0.50,9.88,9.88,9.88
27.50,10.39,0.49,10.39,0.49,-0.50,-0.44,-0.51,9.89,9.89,9.90
27.77,10.40,0.49,10.40,0.49,-0.50,-0.45,-0.52,9.90,9.90,9.91
28.05,10.41,0.49,10.41,0.49,-0.50,-0.46,-0.53,9.91,9.91,9.92
28.33,10.42,0.50,10.42,0.50,-0.50,-0.47,-0.54,9.92,9.92,9.92
28.62,10.43,0.51,10.43,0.51,-0.51,-0.48,-0.55,9.93,9.93,9.93
28.90,10.45,0.52,10.45,0.52,-0.51,-0.49,-0.56,9.94,9.93,9.93
29.19,10.46,0.53,10.46,0.52,-0.52,-0.49,-0.57,9.94,9.94,9.94
29.48,10.48,0.53,10.48,0.53,-0.53,-0.50,-0.58,9.95,9.95,9.95
29.78,10.49,0.54,10.49,0.54,-0.54,-0.51,-0.59,9.95,9.95,9.96
30.08,10.51,0.54,10.51,0.54,-0.55,-0.52,-0.60,9.96,9.96,9.97
30.38,10.53,0.56,10.53,0.56,-0.56,-0.53,-0.61,9.97,9.97,9.97
30.68,10.55,0.57,10.55,0.57,-0.58,-0.54,-0.61,9.97,9.97,9.98
30.99,10.57,0.59,10.57,0.59,-0.59,-0.55,-0.62,9.98,9.98,9.98
31.30,10.58,0.61,10.58,0.60,-0.60,-0.56,-0.63,9.99,9.98,9.98
31.61,10.60,0.62,10.60,0.62,-0.61,-0.57,-0.64,9.99,9.99,9.98
31.93,10.61,0.63,10.60,0.62,-0.62,-0.58,-0.64,9.99,9.99,9.98
32.24,10.61,0.63,10.61,0.63,-0.62,-0.59,-0.65,9.99,9.99,9.98
32.57,10.61,0.63,10.61,0.63,-0.63,-0.60,-0.66,9.99,9.99,9.99
32.89,10.62,0.63,10.62,0.63,-0.63,-0.61,-0.66,9.98,9.98,9.99
33.22,10.62,0.63,10.62,0.63,-0.64,-0.62,-0.67,9.98,9.98,9.99
33.55,10.63,0.64,10.63,0.64,-0.64,-0.63,-0.68,9.98,9.98,9.99
33.89,10.64,0.65,10.64,0.65,-0.65,-0.64,-0.68,9.98,9.98,9.98
34.23,10.64,0.66,10.64,0.66,-0.66,-0.66,-0.69,9.98,9.98,9.98
34.57,10.65,0.68,10.65,0.68,-0.68,-0.67,-0.70,9.98,9.98,9.98
34.92,10.66,0.69,10.66,0.69,-0.69,-0.68,-0.70,9.97,9.97,9.97
35.27,10.67,0.71,10.67,0.71,-0.71,-0.69,-0.71,9.96,9.96,9.96
35.62,10.67,0.72,10.67,0.72,-0.73,-0.70,-0.71,9.95,9.95,9.95
35.97,10.68,0.74,10.68,0.74,-0.74,-0.72,-0.72,9.94,9.94,9.94
36.33,10.69,0.76,10.69,0.76,-0.76,-0.73,-0.73,9.93,9.93,9.92
36.70,10.69,0.78,10.69,0.78,-0.78,-0.74,-0.73,9.92,9.92,9.91
37.06,10.70,0.80,10.70,0.80,-0.80,-0.75,-0.74,9.91,9.91,9.90
37.43,10.71,0.81,10.71,0.81,-0.81,-0.77,-0.75,9.90,9.90,9.90
37.81,10.71,0.82,10.71,0.82,-0.83,-0.78,-0.75,9.89,9.89,9.89
38.19,10.72,0.84,10.72,0.84,-0.84,-0.79,-0.76,9.88,9.88,9.88
38.57,10.72,0.85,10.72,0.85,-0.85,-0.80,-0.77,9.87,9.87,9.87
38.95,10.73,0.87,10.73,0.87,-0.86,-0.82,-0.78,9.87,9.87,9.86
39.34,10.73,0.88,10.73,0.88,-0.87,-0.83,-0.79,9.86,9.86,9.86
39.74,10.74,0.88,10.74,0.88,-0.88,-0.85,-0.80,9.86,9.86,9.86
40.14,10.74,0.89,10.74,0.89,-0.89,-0.86,-0.81,9.85,9.85,9.85
40.54,10.75,0.90,10.75,0.90,-0.90,-0.87,-0.82,9.85,9.85,9.85
40.94,10.75,0.91,10.75,0.91,-0.91,-0.89,-0.83,9.85,9.85,9.85
41.35,10.76,0.92,10.76,0.92,-0.92,-0.90,-0.84,9.84,9.84,9.84
41.76,10.76,0.93,10.76,0.93,-0.93,-0.92,-0.85,9.83,9.83,9.84
42.18,10.77,0.94,10.77,0.94,-0.95,-0.93,-0.87,9.82,9.82,9.82
42.60,10.77,0.96,10.77,0.96,-0.96,-0.95,-0.88,9.81,9.80,9.81
43.03,10.77,0.98,10.77,0.98,-0.98,-0.96,-0.89,9.79,9.79,9.78
43.46,10.76,1.00,10.76,1.00,-0.99,-0.98,-0.91,9.77,9.77,9.76
43.90,10.76,1.02,10.76,1.01,-1.01,-0.99,-0.93,9.75,9.75,9.74
44.33,10.75,1.03,10.75,1.03,-1.03,-1.01,-0.94,9.73,9.73,9.73
44.78,10.75,1.04,10.75,1.04,-1.04,-1.03,-0.96,9.70,9.70,9.71
45.23,10.74,1.06,10.75,1.06,-1.06,-1.04,-0.98,9.68,9.68,9.69
45.68,10.74,1.08,10.74,1.07,-1.08,-1.06,-0.99,9.66,9.67,9.67
46.13,10.74,1.09,10.74,1.09,-1.09,-1.07,-1.01,9.65,9.65,9.65
46.60,10.74,1.10,10.74,1.10,-1.10,-1.09,-1.03,9.64,9.64,9.64
47.06,10.73,1.12,10.73,1.12,-1.10,-1.11,-1.05,9.63,9.63,9.61
47.53,10.72,1.14,10.72,1.13,-1.11,-1.12,-1.08,9.61,9.61,9.59
48.01,10.72,1.15,10.72,1.14,-1.12,-1.14,-1.10,9.59,9.59,9.57
48.49,10.71,1.13,10.71,1.13,-1.14,-1.16,-1.12,9.57,9.57,9.58
48.97,10.71,1.12,10.71,1.12,-1.16,-1.18,-1.14,9.55,9.55,9.59
49.46,10.71,1.12,10.71,1.14,-1.19,-1.19,-1.17,9.52,9.52,9.59
49.96,10.71,1.19,10.71,1.19,-1.21,-1.21,-1.19,9.50,9.50,9.52
50.46,10.71,1.26,10.71,1.26,-1.23,-1.23,-1.21,9.48,9.48,9.45
50.96,10.71,1.32,10.71,1.30,-1.25,-1.25,-1.24,9.46,9.46,9.39
51.47,10.70,1.32,10.70,1.31,-1.28,-1.27,-1.26,9.43,9.43,9.39
51.99,10.70,1.29,10.69,1.30,-1.30,-1.28,-1.29,9.40,9.40,9.40
52.51,10.68,1.29,10.68,1.30,-1.32,-1.30,-1.31,9.36,9.36,9.39
53.03,10.67,1.31,10.67,1.31,-1.33,-1.32,-1.34,9.33,9.34,9.36
53.56,10.66,1.33,10.66,1.33,-1.35,-1.34,-1.37,9.31,9.31,9.33
54.10,10.65,1.35,10.65,1.35,-1.36,-1.36,-1.39,9.29,9.30,9.30
54.64,10.65,1.37,10.65,1.38,-1.37,-1.38,-1.42,9.28,9.28,9.28
55.18,10.65,1.40,10.65,1.40,-1.39,-1.40,-1.44,9.26,9.26,9.25
55.74,10.65,1.43,10.65,1.42,-1.41,-1.41,-1.47,9.24,9.24,9.22
56.29,10.64,1.44,10.64,1.43,-1.43,-1.43,-1.49,9.21,9.21,9.20
56.86,10.62,1.43,10.62,1.44,-1.44,-1.45,-1.51,9.18,9.18,9.18
57.42,10.60,1.45,10.60,1.45,-1.45,-1.47,-1.54,9.15,9.15,9.15
58.00,10.58,1.47,10.58,1.46,-1.46,-1.49,-1.56,9.12,9.12,9.11
58.58,10.57,1.48,10.57,1.47,-1.47,-1.51,-1.58,9.09,9.09,9.09
59.16,10.56,1.48,10.56,1.48,-1.49,-1.53,-1.60,9.07,9.07,9.07
59.76,10.54,1.49,10.54,1.50,-1.51,-1.55,-1.62,9.04,9.04,9.06
60.35,10.53,1.52,10.53,1.52,-1.53,-1.57,-1.64,9.01,9.01,9.02
60.96,10.52,1.56,10.52,1.55,-1.55,-1.59,-1.66,8.97,8.97,8.96
61.57,10.52,1.59,10.52,1.58,-1.58,-1.61,-1.68,8.94,8.94,8.93
62.18,10.51,1.60,10.51,1.61,-1.61,-1.63,-1.69,8.90,8.90,8.91
62.80,10.51,1.63,10.51,1.63,-1.64,-1.65,-1.71,8.87,8.87,8.88
63.43,10.50,1.66,10.50,1.66,-1.66,-1.67,-1.72,8.84,8.84,8.84
64.07,10.50,1.69,10.50,1.69,-1.68,-1.69,-1.73,8.81,8.81,8.81
64.71,10.49,1.73,10.49,1.73,-1.70,-1.72,-1.75,8.79,8.79,8.76
65.35,10.47,1.75,10.47,1.74,-1.72,-1.74,-1.76,8.75,8.75,8.73
66.01,10.45,1.75,10.45,1.74,-1.74,-1.76,-1.77,8.72,8.72,8.70
66.67,10.43,1.72,10.43,1.74,-1.75,-1.78,-1.78,8.68,8.68,8.71
67.33,10.41,1.74,10.41,1.75,-1.77,-1.80,-1.79,8.63,8.63,8.67
68.01,10.38,1.79,10.38,1.78,-1.80,-1.82,-1.79,8.58,8.59,8.59
68.69,10.37,1.83,10.37,1.82,-1.82,-1.84,-1.80,8.54,8.54,8.54
69.37,10.36,1.86,10.36,1.86,-1.86,-1.86,-1.81,8.50,8.50,8.50
70.07,10.35,1.89,10.35,1.89,-1.90,-1.88,-1.82,8.46,8.46,8.46
70.77,10.35,1.94,10.35,1.93,-1.94,-1.90,-1.82,8.41,8.41,8.41
71.48,10.35,1.98,10.35,1.97,-1.97,-1.93,-1.83,8.37,8.37,8.37
72.19,10.34,2.01,10.34,2.01,-2.01,-1.95,-1.84,8.33,8.33,8.33
72.91,10.33,2.05,10.33,2.05,-2.03,-1.97,-1.85,8.29,8.29,8.28
73.64,10.30,2.07,10.30,2.07,-2.05,-1.99,-1.85,8.25,8.25,8.24
74.38,10.27,2.08,10.27,2.08,-2.07,-2.01,-1.86,8.21,8.21,8.19
75.12,10.23,2.08,10.23,2.08,-2.07,-2.03,-1.87,8.16,8.16,8.15
75.87,10.18,2.08,10.18,2.08,-2.08,-2.06,-1.88,8.10,8.10,8.10
76.63,10.13,2.07,10.13,2.07,-2.08,-2.08,-1.89,8.05,8.05,8.06
77.40,10.08,2.07,10.08,2.07,-2.08,-2.10,-1.90,8.00,8.00,8.01
78.17,10.04,2.08,10.04,2.08,-2.09,-2.12,-1.92,7.95,7.95,7.96
78.95,10.00,2.09,10.00,2.09,-2.10,-2.14,-1.93,7.91,7.91,7.91
79.74,9.97,2.11,9.97,2.11,-2.11,-2.17,-1.95,7.86,7.86,7.87
80.54,9.95,2.13,9.95,2.13,-2.13,-2.19,-1.96,7.82,7.82,7.82
81.35,9.93,2.16,9.93,2.16,-2.16,-2.21,-1.98,7.77,7.77,7.77
82.16,9.91,2.18,9.91,2.19,-2.19,-2.23,-2.00,7.72,7.72,7.73
82.98,9.90,2.21,9.90,2.22,-2.22,-2.26,-2.02,7.68,7.68,7.69
83.81,9.89,2.26,9.89,2.25,-2.26,-2.28,-2.05,7.63,7.63,7.63
84.65,9.87,2.29,9.87,2.29,-2.28,-2.30,-2.07,7.59,7.59,7.58
85.50,9.85,2.32,9.85,2.32,-2.31,-2.33,-2.10,7.54,7.54,7.53
86.35,9.82,2.35,9.82,2.35,-2.33,-2.35,-2.12,7.49,7.48,7.47
87.22,9.78,2.38,9.77,2.37,-2.35,-2.37,-2.15,7.42,7.42,7.40
88.09,9.72,2.38,9.72,2.38,-2.37,-2.40,-2.18,7.35,7.35,7.35
88.97,9.67,2.38,9.67,2.38,-2.39,-2.42,-2.21,7.28,7.28,7.29
89.86,9.62,2.39,9.63,2.39,-2.42,-2.44,-2.25,7.20,7.21,7.23
90.76,9.59,2.42,9.60,2.42,-2.45,-2.47,-2.28,7.15,7.15,7.17
91.66,9.58,2.46,9.58,2.46,-2.48,-2.49,-2.32,7.10,7.10,7.12
92.58,9.57,2.51,9.57,2.51,-2.51,-2.51,-2.36,7.06,7.06,7.06
93.51,9.56,2.55,9.55,2.55,-2.53,-2.54,-2.40,7.02,7.02,7.00
94.44,9.53,2.59,9.53,2.59,-2.56,-2.56,-2.44,6.97,6.97,6.94
95.39,9.49,2.61,9.49,2.61,-2.58,-2.59,-2.49,6.92,6.91,6.88
96.34,9.44,2.61,9.44,2.61,-2.59,-2.61,-2.53,6.85,6.84,6.82
97.30,9.37,2.61,9.37,2.61,-2.61,-2.64,-2.58,6.76,6.76,6.76
98.28,9.30,2.60,9.30,2.60,-2.62,-2.66,-2.63,6.68,6.68,6.70
99.26,9.25,2.60,9.25,2.61,-2.64,-2.69,-2.67,6.61,6.61,6.64
100.25,9.22,2.63,9.22,2.64,-2.67,-2.71,-2.72,6.55,6.55,6.59
101.25,9.21,2.69,9.21,2.68,-2.70,-2.74,-2.77,6.51,6.51,6.52
102.27,9.20,2.74,9.20,2.74,-2.74,-2.77,-2.83,6.46,6.46,6.46
103.29,9.19,2.80,9.19,2.80,-2.78,-2.79,-2.88,6.41,6.41,6.40
104.32,9.18,2.85,9.18,2.85,-2.83,-2.82,-2.93,6.35,6.35,6.33
105.37,9.15,2.90,9.16,2.89,-2.87,-2.85,-2.98,6.28,6.28,6.26
106.42,9.13,2.93,9.12,2.92,-2.91,-2.87,-3.03,6.21,6.21,6.19
107.48,9.09,2.94,9.09,2.95,-2.95,-2.90,-3.09,6.14,6.14,6.15
108.56,9.05,2.96,9.05,2.97,-2.97,-2.93,-3.14,6.08,6.08,6.08
109.64,9.00,2.99,9.00,2.99,-2.99,-2.96,-3.19,6.01,6.01,6.01
110.74,8.96,3.02,8.96,3.01,-3.01,-2.98,-3.23,5.95,5.95,5.94
111.85,8.91,3.02,8.91,3.03,-3.03,-3.01,-3.28,5.89,5.89,5.89
112.97,8.87,3.04,8.87,3.04,-3.04,-3.04,-3.33,5.83,5.83,5.84
114.10,8.83,3.05,8.83,3.05,-3.06,-3.07,-3.37,5.77,5.77,5.78
115.24,8.80,3.07,8.79,3.08,-3.08,-3.10,-3.41,5.71,5.71,5.72
116.39,8.76,3.12,8.76,3.11,-3.11,-3.12,-3.45,5.65,5.65,5.64
117.55,8.71,3.15,8.71,3.14,-3.13,-3.15,-3.48,5.58,5.58,5.57
118.73,8.67,3.15,8.67,3.16,-3.16,-3.18,-3.52,5.51,5.51,5.52
119.92,8.62,3.17,8.62,3.18,-3.19,-3.21,-3.54,5.43,5.43,5.46
121.12,8.58,3.20,8.58,3.21,-3.22,-3.24,-3.57,5.36,5.36,5.37
122.33,8.53,3.26,8.53,3.25,-3.24,-3.27,-3.59,5.29,5.29,5.28
123.55,8.49,3.28,8.49,3.29,-3.26,-3.30,-3.61,5.23,5.23,5.21
124.79,8.45,3.32,8.45,3.31,-3.28,-3.33,-3.62,5.16,5.16,5.12
126.03,8.40,3.31,8.40,3.32,-3.31,-3.36,-3.63,5.09,5.09,5.09
127.29,8.37,3.32,8.37,3.33,-3.34,-3.39,-3.64,5.02,5.03,5.05
128.57,8.33,3.35,8.33,3.35,-3.38,-3.42,-3.64,4.96,4.96,4.98
129.85,8.31,3.39,8.31,3.38,-3.41,-3.45,-3.64,4.89,4.89,4.92
131.15,8.28,3.43,8.28,3.44,-3.45,-3.47,-3.64,4.83,4.83,4.85
132.46,8.27,3.50,8.27,3.50,-3.50,-3.50,-3.63,4.77,4.77,4.76
133.79,8.25,3.58,8.25,3.56,-3.55,-3.53,-3.62,4.71,4.71,4.67
135.12,8.24,3.62,8.24,3.62,-3.60,-3.56,-3.60,4.65,4.65,4.63
136.48,8.23,3.65,8.23,3.65,-3.64,-3.59,-3.59,4.59,4.59,4.58
137.84,8.22,3.69,8.22,3.68,-3.69,-3.62,-3.57,4.53,4.53,4.53
139.22,8.20,3.71,8.19,3.72,-3.73,-3.64,-3.55,4.47,4.47,4.48
140.61,8.17,3.75,8.17,3.76,-3.76,-3.67,-3.52,4.41,4.41,4.42
142.02,8.14,3.80,8.14,3.79,-3.79,-3.70,-3.50,4.35,4.35,4.34
143.44,8.10,3.83,8.10,3.82,-3.81,-3.72,-3.48,4.29,4.29,4.27
144.87,8.07,3.84,8.07,3.84,-3.84,-3.75,-3.45,4.23,4.23,4.22
146.32,8.03,3.85,8.03,3.85,-3.86,-3.77,-3.43,4.17,4.17,4.18
147.78,7.99,3.86,7.99,3.87,-3.88,-3.80,-3.40,4.11,4.11,4.13
149.26,7.95,3.89,7.95,3.89,-3.89,-3.82,-3.37,4.06,4.06,4.06
150.75,7.91,3.91,7.91,3.90,-3.90,-3.84,-3.35,4.01,4.01,4.00
152.26,7.87,3.92,7.87,3.91,-3.90,-3.86,-3.33,3.97,3.96,3.95
153.78,7.82,3.91,7.82,3.91,-3.90,-3.88,-3.30,3.92,3.92,3.91
155.32,7.77,3.90,7.77,3.90,-3.90,-3.90,-3.28,3.87,3.87,3.87
156.88,7.72,3.89,7.72,3.90,-3.89,-3.92,-3.26,3.83,3.83,3.83
158.44,7.66,3.90,7.66,3.90,-3.88,-3.94,-3.24,3.78,3.78,3.77
160.03,7.61,3.92,7.61,3.89,-3.88,-3.95,-3.22,3.73,3.73,3.69
161.63,7.56,3.87,7.56,3.87,-3.88,-3.97,-3.21,3.67,3.67,3.69
163.24,7.50,3.84,7.50,3.86,-3.89,-3.98,-3.19,3.61,3.61,3.66
164.88,7.45,3.85,7.45,3.86,-3.91,-3.99,-3.18,3.53,3.53,3.59
166.53,7.39,3.92,7.39,3.91,-3.94,-4.00,-3.17,3.45,3.45,3.48
168.19,7.34,3.98,7.34,3.97,-3.96,-4.01,-3.16,3.38,3.38,3.36
169.87,7.29,4.03,7.29,4.02,-3.99,-4.02,-3.16,3.30,3.30,3.26
171.57,7.24,4.05,7.24,4.05,-4.01,-4.03,-3.16,3.23,3.23,3.19
173.29,7.19,4.06,7.19,4.06,-4.03,-4.03,-3.16,3.16,3.16,3.13
175.02,7.14,4.06,7.14,4.05,-4.05,-4.04,-3.16,3.09,3.09,3.09
176.77,7.10,4.04,7.10,4.04,-4.06,-4.04,-3.16,3.04,3.04,3.06
178.54,7.05,4.03,7.05,4.03,-4.06,-4.04,-3.17,2.99,2.99,3.02
180.32,7.00,4.04,7.00,4.04,-4.06,-4.03,-3.18,2.94,2.94,2.96
182.13,6.94,4.06,6.94,4.06,-4.05,-4.03,-3.19,2.89,2.89,2.88
183.95,6.89,4.07,6.89,4.06,-4.05,-4.03,-3.21,2.84,2.84,2.82
185.79,6.83,4.05,6.83,4.05,-4.04,-4.02,-3.23,2.78,2.78,2.78
187.65,6.77,4.01,6.77,4.03,-4.04,-4.01,-3.24,2.73,2.73,2.76
189.52,6.71,4.02,6.71,4.03,-4.02,-4.00,-3.27,2.69,2.69,2.69
191.42,6.65,4.04,6.65,4.02,-4.00,-3.99,-3.29,2.65,2.65,2.61
193.33,6.59,4.01,6.59,4.00,-3.98,-3.97,-3.32,2.61,2.61,2.58
195.27,6.53,3.94,6.53,3.96,-3.95,-3.96,-3.34,2.58,2.58,2.59
197.22,6.47,3.91,6.47,3.91,-3.92,-3.94,-3.37,2.54,2.54,2.56
199.19,6.40,3.89,6.40,3.88,-3.90,-3.92,-3.40,2.50,2.50,2.52
201.18,6.34,3.86,6.34,3.86,-3.88,-3.90,-3.44,2.46,2.46,2.48
203.19,6.28,3.84,6.28,3.83,-3.86,-3.88,-3.47,2.43,2.43,2.44
205.23,6.22,3.80,6.22,3.82,-3.83,-3.86,-3.50,2.39,2.39,2.42
207.28,6.16,3.81,6.16,3.83,-3.80,-3.83,-3.54,2.36,2.36,2.35
209.35,6.10,3.84,6.10,3.83,-3.78,-3.80,-3.57,2.32,2.32,2.26
211.44,6.04,3.83,6.04,3.80,-3.75,-3.78,-3.61,2.28,2.28,2.20
213.56,5.97,3.71,5.97,3.71,-3.73,-3.75,-3.64,2.24,2.24,2.26
215.69,5.91,3.64,5.91,3.66,-3.72,-3.72,-3.68,2.19,2.19,2.27
217.85,5.84,3.58,5.84,3.64,-3.70,-3.69,-3.71,2.14,2.14,2.26
220.03,5.78,3.73,5.78,3.65,-3.68,-3.65,-3.74,2.10,2.10,2.05
222.23,5.71,3.67,5.71,3.67,-3.65,-3.62,-3.77,2.06,2.06,2.04
224.45,5.65,3.63,5.65,3.66,-3.62,-3.58,-3.80,2.03,2.03,2.02
226.70,5.58,3.62,5.58,3.62,-3.58,-3.55,-3.82,2.00,2.00,1.96
228.96,5.52,3.59,5.52,3.58,-3.54,-3.51,-3.84,1.98,1.98,1.93
231.25,5.45,3.51,5.45,3.50,-3.48,-3.47,-3.86,1.98,1.98,1.94
233.57,5.39,3.40,5.39,3.41,-3.41,-3.43,-3.87,1.98,1.98,1.98
235.90,5.32,3.31,5.32,3.32,-3.34,-3.39,-3.88,1.97,1.97,2.01
238.26,5.25,3.24,5.25,3.26,-3.29,-3.35,-3.89,1.96,1.96,2.00
240.64,5.18,3.20,5.18,3.19,-3.24,-3.31,-3.89,1.94,1.94,1.98
243.05,5.11,3.19,5.11,3.12,-3.19,-3.27,-3.88,1.92,1.92,1.92
245.48,5.04,3.06,5.04,3.13,-3.14,-3.22,-3.87,1.90,1.90,1.99
247.93,4.98,3.08,4.98,3.15,-3.09,-3.18,-3.86,1.88,1.88,1.90
250.41,4.91,3.27,4.91,3.15,-3.06,-3.13,-3.84,1.86,1.86,1.64
252.92,4.85,3.11,4.85,3.08,-3.03,-3.09,-3.81,1.83,1.83,1.75
255.45,4.80,2.94,4.80,2.97,-2.99,-3.04,-3.78,1.81,1.81,1.86
258.00,4.75,2.78,4.75,2.87,-2.96,-2.99,-3.74,1.79,1.79,1.97
260.58,4.71,2.90,4.71,2.86,-2.93,-2.95,-3.69,1.79,1.79,1.81
263.19,4.68,2.93,4.68,2.89,-2.89,-2.90,-3.65,1.79,1.79,1.75
265.82,4.65,2.87,4.65,2.90,-2.85,-2.85,-3.59,1.80,1.80,1.77
268.48,4.61,2.87,4.61,2.85,-2.82,-2.80,-3.53,1.79,1.79,1.74
271.16,4.57,2.80,4.57,2.80,-2.80,-2.75,-3.47,1.77,1.77,1.77
273.87,4.51,2.76,4.52,2.77,-2.77,-2.70,-3.40,1.74,1.74,1.76
276.61,4.46,2.73,4.46,2.72,-2.74,-2.64,-3.33,1.72,1.72,1.73
279.38,4.40,2.68,4.40,2.69,-2.68,-2.59,-3.26,1.72,1.72,1.72
282.17,4.34,2.64,4.34,2.64,-2.62,-2.54,-3.18,1.72,1.72,1.70
284.99,4.28,2.60,4.28,2.59,-2.56,-2.49,-3.10,1.71,1.71,1.68
287.84,4.22,2.52,4.22,2.51,-2.51,-2.43,-3.01,1.71,1.71,1.70
290.72,4.15,2.44,4.15,2.43,-2.46,-2.38,-2.93,1.70,1.70,1.72
293.63,4.09,2.34,4.09,2.36,-2.40,-2.33,-2.84,1.69,1.69,1.76
296.57,4.03,2.30,4.03,2.32,-2.34,-2.27,-2.75,1.68,1.68,1.73
299.53,3.96,2.32,3.96,2.30,-2.28,-2.22,-2.66,1.68,1.68,1.64
302.53,3.89,2.28,3.89,2.26,-2.23,-2.16,-2.57,1.66,1.66,1.61
305.55,3.82,2.19,3.82,2.21,-2.17,-2.11,-2.48,1.64,1.64,1.63
308.61,3.74,2.12,3.74,2.12,-2.12,-2.06,-2.39,1.62,1.62,1.62
311.69,3.67,2.08,3.67,2.05,-2.07,-2.00,-2.30,1.59,1.59,1.59
314.81,3.60,1.97,3.60,2.00,-2.02,-1.95,-2.21,1.58,1.58,1.63
317.96,3.53,1.95,3.53,1.95,-1.96,-1.89,-2.12,1.57,1.57,1.58
321.14,3.46,1.92,3.46,1.91,-1.90,-1.84,-2.03,1.56,1.56,1.54
324.35,3.40,1.88,3.40,1.86,-1.84,-1.79,-1.94,1.55,1.55,1.52
327.59,3.33,1.80,3.33,1.80,-1.79,-1.73,-1.85,1.54,1.54,1.54
330.87,3.27,1.72,3.27,1.74,-1.74,-1.68,-1.76,1.53,1.53,1.55
334.18,3.20,1.69,3.20,1.67,-1.69,-1.63,-1.67,1.51,1.51,1.51
337.52,3.13,1.62,3.13,1.62,-1.64,-1.57,-1.58,1.50,1.50,1.51
340.90,3.07,1.56,3.07,1.57,-1.58,-1.52,-1.49,1.49,1.49,1.51
344.30,3.00,1.52,3.00,1.53,-1.52,-1.47,-1.41,1.47,1.47,1.47
347.75,2.93,1.49,2.93,1.48,-1.47,-1.42,-1.32,1.46,1.46,1.43
351.23,2.85,1.43,2.85,1.42,-1.41,-1.36,-1.24,1.45,1.45,1.42
354.74,2.78,1.34,2.78,1.35,-1.35,-1.31,-1.15,1.44,1.44,1.45
358.28,2.72,1.28,2.72,1.28,-1.28,-1.26,-1.07,1.43,1.43,1.43
361.87,2.65,1.22,2.65,1.21,-1.21,-1.21,-0.99,1.43,1.43,1.43
365.49,2.58,1.14,2.58,1.14,-1.15,-1.16,-0.91,1.44,1.44,1.44
369.14,2.52,1.06,2.52,1.07,-1.08,-1.11,-0.83,1.44,1.44,1.45
372.83,2.45,1.00,2.45,1.00,-1.01,-1.05,-0.75,1.44,1.44,1.45
376.56,2.39,0.94,2.39,0.94,-0.94,-1.00,-0.67,1.44,1.44,1.44
380.33,2.32,0.88,2.32,0.87,-0.88,-0.95,-0.59,1.44,1.44,1.44
384.13,2.25,0.81,2.25,0.81,-0.81,-0.90,-0.51,1.44,1.44,1.44
387.97,2.18,0.74,2.18,0.76,-0.75,-0.85,-0.44,1.43,1.43,1.44
391.85,2.11,0.70,2.11,0.69,-0.69,-0.80,-0.36,1.43,1.42,1.41
395.77,2.04,0.65,2.04,0.63,-0.63,-0.74,-0.29,1.42,1.42,1.40
399.73,1.98,0.53,1.98,0.56,-0.57,-0.69,-0.22,1.41,1.41,1.44
403.72,1.91,0.49,1.91,0.50,-0.50,-0.64,-0.14,1.40,1.40,1.41
407.76,1.84,0.45,1.84,0.44,-0.44,-0.59,-0.07,1.40,1.40,1.39
411.84,1.77,0.39,1.77,0.39,-0.38,-0.54,-0.00,1.39,1.39,1.38
415.96,1.71,0.33,1.71,0.33,-0.32,-0.48,0.06,1.38,1.38,1.38
420.12,1.64,0.27,1.64,0.27,-0.27,-0.43,0.13,1.37,1.37,1.37
424.32,1.57,0.20,1.57,0.20,-0.21,-0.38,0.20,1.36,1.36,1.37
428.56,1.51,0.15,1.51,0.15,-0.15,-0.32,0.26,1.36,1.36,1.36
432.85,1.44,0.10,1.44,0.09,-0.09,-0.27,0.33,1.35,1.35,1.35
437.18,1.38,0.04,1.38,0.04,-0.04,-0.21,0.39,1.34,1.34,1.34
441.55,1.31,-0.01,1.31,-0.01,0.02,-0.16,0.45,1.33,1.33,1.32
445.96,1.25,-0.07,1.25,-0.07,0.07,-0.10,0.50,1.32,1.32,1.32
450.42,1.18,-0.13,1.18,-0.13,0.12,-0.05,0.56,1.30,1.30,1.32
454.93,1.12,-0.18,1.12,-0.17,0.17,0.01,0.61,1.28,1.28,1.30
459.48,1.05,-0.20,1.05,-0.21,0.21,0.07,0.66,1.26,1.27,1.26
464.07,0.99,-0.25,0.99,-0.26,0.26,0.13,0.71,1.25,1.25,1.23
468.71,0.92,-0.31,0.92,-0.31,0.31,0.18,0.76,1.23,1.23,1.23
473.40,0.86,-0.37,0.86,-0.36,0.36,0.24,0.80,1.22,1.22,1.23
478.13,0.79,-0.41,0.79,-0.41,0.42,0.30,0.84,1.21,1.21,1.20
482.91,0.73,-0.45,0.73,-0.46,0.47,0.36,0.88,1.20,1.20,1.17
487.74,0.66,-0.52,0.66,-0.52,0.53,0.42,0.92,1.19,1.19,1.18
492.62,0.60,-0.59,0.60,-0.60,0.59,0.49,0.95,1.18,1.18,1.19
497.55,0.53,-0.67,0.53,-0.65,0.64,0.55,0.98,1.18,1.18,1.20
502.52,0.47,-0.71,0.47,-0.70,0.69,0.61,1.01,1.16,1.16,1.18
507.55,0.41,-0.72,0.41,-0.75,0.74,0.67,1.03,1.15,1.15,1.13
512.62,0.35,-0.80,0.35,-0.79,0.80,0.73,1.05,1.14,1.14,1.15
517.75,0.29,-0.85,0.29,-0.84,0.84,0.80,1.07,1.13,1.13,1.14
522.93,0.22,-0.88,0.22,-0.88,0.89,0.86,1.09,1.11,1.11,1.10
528.16,0.16,-0.92,0.16,-0.92,0.93,0.92,1.10,1.09,1.09,1.08
