frequency,raw,error,smoothed,error_smoothed,equalization,parametric_eq,fixed_band_eq,equalized_raw,equalized_smoothed,target
20.00,1.91,-10.12,1.91,-10.12,6.00,5.64,2.86,7.91,7.91,12.03
20.20,1.98,-10.06,1.98,-10.07,6.00,5.68,2.94,7.98,7.98,12.05
20.40,2.06,-10.02,2.06,-10.02,6.00,5.72,3.02,8.06,8.06,12.08
20.61,2.13,-9.97,2.13,-9.97,6.00,5.76,3.11,8.13,8.13,12.11
20.81,2.21,-9.93,2.21,-9.93,6.00,5.80,3.20,8.21,8.21,12.14
21.02,2.28,-9.89,2.28,-9.89,6.00,5.85,3.29,8.28,8.28,12.17
21.23,2.36,-9.85,2.36,-9.84,6.00,5.90,3.38,8.36,8.36,12.20
21.44,2.43,-9.79,2.43,-9.79,6.00,5.95,3.48,8.43,8.43,12.22
21.66,2.50,-9.73,2.50,-9.73,6.00,6.00,3.58,8.50,8.50,12.23
21.87,2.57,-9.67,2.57,-9.67,6.00,6.04,3.68,8.57,8.57,12.24
22.09,2.64,-9.60,2.64,-9.60,6.00,6.08,3.79,8.64,8.64,12.24
22.31,2.71,-9.54,2.71,-9.54,6.00,6.09,3.89,8.71,8.71,12.24
22.54,2.77,-9.47,2.77,-9.47,6.00,6.09,4.00,8.77,8.77,12.25
22.76,2.84,-9.41,2.84,-9.41,6.00,6.06,4.12,8.84,8.84,12.25
22.99,2.91,-9.35,2.91,-9.35,6.00,6.02,4.23,8.91,8.91,12.26
23.22,2.97,-9.29,2.97,-9.29,6.00,5.97,4.35,8.97,8.97,12.26
23.45,3.04,-9.24,3.04,-9.24,6.00,5.91,4.47,9.04,9.04,12.27
23.69,3.10,-9.18,3.10,-9.18,6.00,5.88,4.60,9.10,9.10,12.28
23.92,3.16,-9.12,3.16,-9.12,6.00,5.85,4.72,9.16,9.16,12.29
24.16,3.23,-9.06,3.23,-9.06,6.00,5.84,4.85,9.23,9.23,12.29
24.40,3.29,-9.00,3.29,-9.00,6.00,5.84,4.98,9.29,9.29,12.29
24.65,3.35,-8.94,3.35,-8.94,6.00,5.85,5.12,9.35,9.35,12.29
24.89,3.42,-8.88,3.42,-8.88,6.00,5.87,5.25,9.42,9.42,12.29
25.14,3.48,-8.81,3.48,-8.81,6.00,5.89,5.39,9.48,9.48,12.29
25.39,3.54,-8.74,3.54,-8.74,6.00,5.91,5.53,9.54,9.54,12.28
25.65,3.61,-8.66,3.61,-8.66,6.00,5.93,5.67,9.61,9.61,12.27
25.91,3.67,-8.58,3.67,-8.58,6.00,5.95,5.81,9.67,9.67,12.26
26.16,3.73,-8.50,3.74,-8.50,6.00,5.97,5.95,9.73,9.74,12.24
26.43,3.80,-8.42,3.80,-8.42,6.00,5.99,6.08,9.80,9.80,12.22
26.69,3.86,-8.34,3.86,-8.34,6.00,6.01,6.22,9.86,9.86,12.21
26.96,3.93,-8.27,3.93,-8.27,6.00,6.02,6.36,9.93,9.93,12.20
27.23,3.99,-8.20,3.99,-8.20,6.00,6.04,6.49,9.99,9.99,12.20
27.50,4.06,-8.14,4.06,-8.14,6.00,6.05,6.62,10.06,10.06,12.20
27.77,4.13,-8.07,4.13,-8.07,6.00,6.06,6.75,10.13,10.13,12.20
28.05,4.19,-8.01,4.19,-8.00,6.00,6.07,6.87,10.19,10.19,12.20
28.33,4.26,-7.93,4.26,-7.93,6.00,6.08,6.98,10.26,10.26,12.19
28.62,4.32,-7.85,4.32,-7.85,6.00,6.09,7.09,10.32,10.32,12.17
28.90,4.39,-7.77,4.39,-7.77,6.00,6.09,7.19,10.39,10.39,12.16
29.19,4.45,-7.69,4.45,-7.69,6.00,6.10,7.28,10.45,10.45,12.15
29.48,4.52,-7.62,4.52,-7.62,6.00,6.11,7.36,10.52,10.52,12.14
29.78,4.58,-7.55,4.59,-7.55,6.00,6.11,7.44,10.58,10.59,12.13
30.08,4.65,-7.48,4.65,-7.48,6.00,6.11,7.50,10.65,10.65,12.13
30.38,4.71,-7.42,4.71,-7.42,6.00,6.11,7.55,10.71,10.71,12.13
30.68,4.78,-7.35,4.78,-7.35,6.00,6.11,7.58,10.78,10.78,12.13
30.99,4.84,-7.28,4.84,-7.28,6.00,6.11,7.61,10.84,10.84,12.12
31.30,4.90,-7.21,4.90,-7.21,6.00,6.10,7.62,10.90,10.90,12.11
31.61,4.97,-7.14,4.97,-7.14,6.00,6.10,7.62,10.97,10.97,12.10
31.93,5.03,-7.07,5.03,-7.07,6.00,6.09,7.61,11.03,11.03,12.09
32.24,5.09,-7.00,5.09,-7.00,6.00,6.08,7.59,11.09,11.09,12.09
32.57,5.15,-6.93,5.15,-6.93,6.00,6.07,7.55,11.15,11.15,12.08
32.89,5.21,-6.86,5.21,-6.85,6.00,6.06,7.50,11.21,11.21,12.07
33.22,5.27,-6.78,5.27,-6.78,6.00,6.04,7.44,11.27,11.27,12.05
33.55,5.33,-6.71,5.33,-6.71,6.00,6.03,7.37,11.33,11.33,12.04
33.89,5.39,-6.65,5.39,-6.65,6.00,6.01,7.29,11.39,11.39,12.03
34.23,5.44,-6.59,5.44,-6.59,6.00,5.99,7.21,11.44,11.44,12.03
34.57,5.50,-6.54,5.50,-6.54,6.00,5.97,7.11,11.50,11.50,12.04
34.92,5.56,-6.49,5.56,-6.48,6.00,5.94,7.01,11.56,11.56,12.04
35.27,5.61,-6.43,5.61,-6.43,6.01,5.92,6.90,11.62,11.62,12.04
35.62,5.67,-6.36,5.67,-6.36,6.01,5.89,6.80,11.68,11.68,12.03
35.97,5.72,-6.28,5.72,-6.28,6.01,5.86,6.68,11.74,11.74,12.01
36.33,5.78,-6.20,5.78,-6.20,6.01,5.83,6.57,11.79,11.79,11.98
36.70,5.83,-6.13,5.83,-6.13,6.00,5.80,6.45,11.83,11.83,11.96
37.06,5.89,-6.05,5.89,-6.05,5.98,5.76,6.33,11.87,11.87,11.94
37.43,5.94,-5.99,5.94,-5.99,5.95,5.72,6.21,11.89,11.89,11.93
37.81,5.99,-5.92,5.99,-5.92,5.91,5.68,6.09,11.90,11.90,11.92
38.19,6.05,-5.86,6.05,-5.86,5.86,5.64,5.97,11.90,11.90,11.91
38.57,6.10,-5.79,6.10,-5.79,5.80,5.60,5.85,11.89,11.89,11.89
38.95,6.15,-5.72,6.15,-5.72,5.73,5.56,5.73,11.88,11.88,11.87
39.34,6.20,-5.65,6.20,-5.65,5.66,5.51,5.61,11.86,11.86,11.85
39.74,6.25,-5.58,6.25,-5.58,5.59,5.46,5.50,11.84,11.84,11.83
40.14,6.30,-5.51,6.30,-5.52,5.52,5.42,5.39,11.82,11.82,11.81
40.54,6.35,-5.46,6.35,-5.46,5.46,5.37,5.28,11.81,11.81,11.81
40.94,6.40,-5.40,6.40,-5.40,5.39,5.31,5.17,11.79,11.79,11.80
41.35,6.44,-5.34,6.44,-5.34,5.33,5.26,5.07,11.78,11.78,11.79
41.76,6.49,-5.28,6.49,-5.28,5.27,5.21,4.97,11.76,11.76,11.77
42.18,6.54,-5.21,6.54,-5.21,5.21,5.16,4.88,11.74,11.74,11.75
42.60,6.58,-5.14,6.58,-5.14,5.14,5.10,4.78,11.73,11.73,11.72
43.03,6.63,-5.06,6.63,-5.07,5.08,5.04,4.69,11.71,11.71,11.69
43.46,6.67,-5.00,6.67,-5.01,5.01,4.99,4.60,11.69,11.69,11.68
43.90,6.72,-4.95,6.72,-4.95,4.95,4.93,4.52,11.66,11.66,11.66
44.33,6.76,-4.89,6.76,-4.89,4.88,4.87,4.44,11.64,11.64,11.65
44.78,6.80,-4.83,6.80,-4.83,4.82,4.81,4.36,11.62,11.62,11.63
45.23,6.84,-4.76,6.84,-4.76,4.76,4.75,4.29,11.60,11.60,11.60
45.68,6.88,-4.69,6.88,-4.69,4.69,4.69,4.22,11.58,11.58,11.57
46.13,6.92,-4.62,6.92,-4.62,4.63,4.63,4.15,11.55,11.55,11.54
46.60,6.96,-4.56,6.96,-4.56,4.57,4.57,4.09,11.53,11.53,11.52
47.06,7.00,-4.51,7.00,-4.51,4.51,4.51,4.03,11.51,11.51,11.51
47.53,7.03,-4.46,7.03,-4.46,4.45,4.45,3.97,11.49,11.49,11.49
48.01,7.07,-4.40,7.07,-4.40,4.40,4.39,3.92,11.46,11.46,11.47
48.49,7.10,-4.34,7.10,-4.34,4.34,4.33,3.87,11.44,11.44,11.44
48.97,7.14,-4.28,7.14,-4.28,4.28,4.27,3.82,11.42,11.42,11.42
49.46,7.17,-4.22,7.17,-4.23,4.23,4.21,3.77,11.40,11.40,11.39
49.96,7.20,-4.17,7.20,-4.17,4.17,4.15,3.73,11.37,11.37,11.37
50.46,7.23,-4.12,7.23,-4.12,4.11,4.08,3.69,11.35,11.35,11.35
50.96,7.26,-4.06,7.26,-4.06,4.06,4.02,3.65,11.32,11.32,11.32
51.47,7.29,-4.00,7.29,-4.00,4.00,3.96,3.61,11.30,11.30,11.29
51.99,7.33,-3.94,7.33,-3.95,3.95,3.90,3.58,11.27,11.27,11.27
52.51,7.36,-3.89,7.36,-3.89,3.89,3.84,3.54,11.24,11.24,11.25
53.03,7.39,-3.84,7.39,-3.83,3.83,3.78,3.51,11.22,11.22,11.22
53.56,7.42,-3.77,7.42,-3.77,3.78,3.72,3.48,11.19,11.19,11.19
54.10,7.45,-3.71,7.45,-3.72,3.72,3.66,3.45,11.16,11.16,11.16
54.64,7.48,-3.66,7.48,-3.66,3.66,3.60,3.42,11.14,11.14,11.13
55.18,7.51,-3.60,7.51,-3.60,3.60,3.54,3.39,11.11,11.11,11.11
55.74,7.54,-3.55,7.54,-3.55,3.54,3.48,3.36,11.08,11.08,11.09
56.29,7.57,-3.49,7.57,-3.49,3.48,3.42,3.33,11.05,11.05,11.06
56.86,7.60,-3.42,7.60,-3.43,3.42,3.36,3.30,11.03,11.03,11.03
57.42,7.63,-3.36,7.63,-3.36,3.36,3.30,3.27,11.00,11.00,10.99
58.00,7.67,-3.30,7.67,-3.30,3.30,3.24,3.24,10.97,10.97,10.96
58.58,7.70,-3.23,7.70,-3.23,3.24,3.18,3.21,10.94,10.94,10.93
59.16,7.73,-3.17,7.73,-3.17,3.17,3.12,3.18,10.90,10.90,10.90
59.76,7.76,-3.11,7.76,-3.11,3.11,3.06,3.15,10.87,10.87,10.87
60.35,7.79,-3.05,7.79,-3.05,3.04,3.00,3.11,10.84,10.84,10.84
60.96,7.82,-2.98,7.82,-2.98,2.98,2.95,3.08,10.80,10.80,10.81
61.57,7.85,-2.91,7.85,-2.91,2.92,2.89,3.04,10.77,10.77,10.76
62.18,7.88,-2.84,7.88,-2.85,2.85,2.83,3.00,10.74,10.74,10.73
62.80,7.91,-2.80,7.91,-2.79,2.79,2.77,2.96,10.70,10.70,10.71
63.43,7.94,-2.73,7.94,-2.73,2.73,2.72,2.92,10.67,10.67,10.67
64.07,7.97,-2.67,7.97,-2.68,2.67,2.66,2.87,10.64,10.64,10.63
64.71,7.99,-2.62,7.99,-2.61,2.61,2.60,2.83,10.60,10.60,10.61
65.35,8.02,-2.56,8.02,-2.55,2.55,2.55,2.78,10.57,10.57,10.57
66.01,8.04,-2.48,8.04,-2.49,2.49,2.49,2.73,10.53,10.53,10.52
66.67,8.06,-2.43,8.06,-2.43,2.43,2.44,2.68,10.50,10.50,10.49
67.33,8.08,-2.38,8.08,-2.37,2.37,2.38,2.63,10.46,10.46,10.46
68.01,8.10,-2.32,8.10,-2.31,2.31,2.33,2.57,10.42,10.42,10.43
68.69,8.12,-2.24,8.12,-2.26,2.25,2.27,2.52,10.38,10.38,10.37
69.37,8.14,-2.20,8.14,-2.20,2.20,2.22,2.46,10.34,10.34,10.34
70.07,8.16,-2.17,8.16,-2.14,2.14,2.17,2.40,10.30,10.30,10.33
70.77,8.18,-2.06,8.18,-2.08,2.08,2.11,2.34,10.26,10.26,10.23
71.48,8.19,-2.02,8.19,-2.02,2.03,2.06,2.28,10.22,10.22,10.21
72.19,8.21,-1.99,8.21,-1.96,1.97,2.01,2.22,10.18,10.18,10.20
72.91,8.22,-1.91,8.22,-1.92,1.92,1.95,2.16,10.14,10.14,10.13
73.64,8.23,-1.87,8.23,-1.88,1.87,1.90,2.10,10.10,10.10,10.10
74.38,8.24,-1.84,8.24,-1.83,1.82,1.85,2.04,10.07,10.07,10.08
75.12,8.25,-1.80,8.25,-1.77,1.78,1.80,1.98,10.04,10.04,10.06
75.87,8.26,-1.68,8.26,-1.72,1.74,1.75,1.92,10.00,10.00,9.94
76.63,8.27,-1.66,8.27,-1.69,1.70,1.70,1.86,9.97,9.97,9.93
77.40,8.28,-1.71,8.28,-1.65,1.65,1.65,1.80,9.93,9.93,9.99
78.17,8.29,-1.63,8.29,-1.64,1.61,1.60,1.74,9.89,9.89,9.91
78.95,8.29,-1.55,8.29,-1.60,1.56,1.55,1.68,9.85,9.85,9.84
79.74,8.30,-1.56,8.30,-1.51,1.51,1.50,1.62,9.81,9.81,9.86
80.54,8.30,-1.46,8.30,-1.45,1.46,1.45,1.56,9.76,9.76,9.76
81.35,8.31,-1.33,8.30,-1.40,1.41,1.40,1.51,9.72,9.72,9.64
82.16,8.31,-1.36,8.31,-1.33,1.36,1.35,1.45,9.66,9.66,9.67
82.98,8.31,-1.32,8.31,-1.30,1.30,1.30,1.39,9.61,9.61,9.63
83.81,8.31,-1.24,8.31,-1.27,1.25,1.25,1.34,9.56,9.56,9.55
84.65,8.31,-1.21,8.31,-1.22,1.20,1.21,1.28,9.52,9.52,9.53
85.50,8.31,-1.18,8.31,-1.17,1.16,1.16,1.23,9.48,9.48,9.49
86.35,8.31,-1.13,8.31,-1.12,1.12,1.11,1.17,9.43,9.43,9.44
87.22,8.31,-1.04,8.31,-1.07,1.08,1.07,1.12,9.39,9.39,9.36
88.09,8.31,-1.02,8.31,-1.03,1.03,1.02,1.07,9.35,9.35,9.34
88.97,8.31,-1.00,8.31,-0.99,0.99,0.97,1.02,9.30,9.30,9.32
89.86,8.31,-0.96,8.31,-0.95,0.95,0.93,0.97,9.26,9.26,9.28
90.76,8.31,-0.88,8.31,-0.90,0.90,0.89,0.92,9.22,9.22,9.20
91.66,8.31,-0.85,8.31,-0.86,0.86,0.84,0.87,9.17,9.17,9.16
92.58,8.31,-0.85,8.31,-0.82,0.82,0.80,0.82,9.13,9.13,9.16
93.51,8.31,-0.78,8.31,-0.78,0.77,0.75,0.77,9.08,9.08,9.09
94.44,8.31,-0.72,8.31,-0.73,0.73,0.71,0.73,9.04,9.04,9.02
95.39,8.31,-0.67,8.31,-0.68,0.68,0.67,0.68,8.99,8.99,8.98
96.34,8.30,-0.66,8.30,-0.64,0.64,0.62,0.63,8.94,8.94,8.96
97.30,8.30,-0.60,8.30,-0.59,0.59,0.58,0.59,8.90,8.90,8.90
98.28,8.30,-0.52,8.30,-0.53,0.55,0.54,0.54,8.85,8.85,8.82
99.26,8.30,-0.47,8.30,-0.49,0.50,0.50,0.50,8.79,8.79,8.77
100.25,8.29,-0.47,8.29,-0.46,0.44,0.46,0.46,8.74,8.74,8.76
101.25,8.29,-0.45,8.29,-0.41,0.39,0.42,0.41,8.68,8.68,8.74
102.27,8.28,-0.35,8.28,-0.36,0.34,0.38,0.37,8.62,8.62,8.63
103.29,8.27,-0.25,8.27,-0.29,0.29,0.34,0.33,8.56,8.56,8.52
104.32,8.27,-0.25,8.27,-0.22,0.24,0.30,0.29,8.51,8.51,8.51
105.37,8.26,-0.17,8.26,-0.17,0.20,0.26,0.25,8.46,8.46,8.43
106.42,8.25,-0.12,8.25,-0.14,0.16,0.22,0.21,8.41,8.41,8.37
107.48,8.24,-0.12,8.24,-0.11,0.13,0.19,0.17,8.36,8.36,8.36
108.56,8.23,-0.09,8.23,-0.09,0.09,0.15,0.13,8.32,8.32,8.32
109.64,8.22,-0.07,8.22,-0.07,0.05,0.11,0.10,8.27,8.27,8.29
110.74,8.20,-0.05,8.20,-0.04,0.01,0.08,0.06,8.22,8.22,8.25
111.85,8.19,0.01,8.19,-0.00,-0.03,0.04,0.03,8.16,8.16,8.18
112.97,8.17,0.05,8.17,0.06,-0.08,0.00,-0.01,8.09,8.09,8.12
114.10,8.16,0.11,8.16,0.13,-0.13,-0.03,-0.04,8.03,8.03,8.05
115.24,8.14,0.22,8.14,0.21,-0.18,-0.06,-0.08,7.96,7.96,7.92
116.39,8.13,0.27,8.13,0.27,-0.22,-0.10,-0.11,7.91,7.91,7.85
117.55,8.11,0.30,8.11,0.29,-0.26,-0.13,-0.14,7.85,7.85,7.81
118.73,8.09,0.29,8.09,0.29,-0.28,-0.17,-0.17,7.81,7.81,7.80
119.92,8.07,0.28,8.07,0.29,-0.30,-0.20,-0.20,7.77,7.77,7.79
121.12,8.05,0.28,8.05,0.28,-0.31,-0.23,-0.23,7.74,7.74,7.76
122.33,8.03,0.29,8.03,0.30,-0.31,-0.26,-0.25,7.72,7.72,7.73
123.55,8.01,0.29,8.01,0.32,-0.32,-0.29,-0.28,7.69,7.69,7.72
124.79,7.98,0.39,7.98,0.34,-0.33,-0.32,-0.30,7.66,7.66,7.59
126.03,7.96,0.34,7.96,0.35,-0.35,-0.35,-0.33,7.61,7.61,7.62
127.29,7.94,0.33,7.94,0.36,-0.38,-0.38,-0.35,7.56,7.56,7.61
128.57,7.91,0.37,7.91,0.38,-0.41,-0.41,-0.38,7.50,7.50,7.54
129.85,7.89,0.44,7.89,0.43,-0.45,-0.44,-0.40,7.44,7.44,7.45
131.15,7.86,0.51,7.86,0.49,-0.48,-0.47,-0.42,7.38,7.38,7.36
132.46,7.84,0.52,7.84,0.53,-0.51,-0.50,-0.44,7.33,7.33,7.31
133.79,7.81,0.56,7.81,0.56,-0.54,-0.52,-0.46,7.27,7.27,7.25
135.12,7.78,0.58,7.78,0.58,-0.57,-0.55,-0.48,7.22,7.22,7.20
136.48,7.75,0.60,7.75,0.60,-0.59,-0.58,-0.49,7.17,7.17,7.15
137.84,7.72,0.61,7.72,0.61,-0.61,-0.60,-0.51,7.12,7.12,7.11
139.22,7.69,0.61,7.69,0.61,-0.62,-0.63,-0.53,7.07,7.07,7.08
140.61,7.66,0.62,7.66,0.62,-0.64,-0.65,-0.55,7.02,7.02,7.04
142.02,7.63,0.65,7.63,0.65,-0.67,-0.68,-0.56,6.96,6.96,6.98
143.44,7.60,0.68,7.60,0.68,-0.70,-0.70,-0.58,6.90,6.90,6.92
144.87,7.57,0.72,7.57,0.73,-0.73,-0.72,-0.60,6.84,6.84,6.84
146.32,7.54,0.77,7.54,0.77,-0.77,-0.75,-0.61,6.77,6.77,6.76
147.78,7.50,0.82,7.50,0.82,-0.81,-0.77,-0.63,6.70,6.70,6.68
149.26,7.47,0.86,7.47,0.86,-0.84,-0.79,-0.65,6.63,6.63,6.61
150.75,7.43,0.89,7.43,0.88,-0.87,-0.81,-0.67,6.56,6.56,6.55
152.26,7.40,0.90,7.40,0.90,-0.90,-0.83,-0.68,6.50,6.50,6.49
153.78,7.36,0.92,7.36,0.92,-0.92,-0.85,-0.70,6.44,6.44,6.44
155.32,7.32,0.93,7.32,0.94,-0.94,-0.87,-0.72,6.38,6.38,6.39
156.88,7.28,0.96,7.28,0.95,-0.96,-0.89,-0.74,6.33,6.33,6.32
158.44,7.25,0.97,7.25,0.97,-0.97,-0.91,-0.76,6.27,6.27,6.27
160.03,7.21,0.98,7.21,0.99,-0.99,-0.93,-0.78,6.22,6.22,6.23
161.63,7.17,1.01,7.17,1.00,-1.01,-0.95,-0.80,6.16,6.16,6.15
163.24,7.13,1.03,7.13,1.02,-1.03,-0.96,-0.82,6.10,6.10,6.10
164.88,7.08,1.03,7.08,1.04,-1.04,-0.98,-0.84,6.04,6.04,6.06
166.53,7.04,1.06,7.04,1.06,-1.05,-1.00,-0.86,5.99,5.99,5.98
168.19,7.00,1.09,7.00,1.08,-1.06,-1.01,-0.89,5.94,5.94,5.91
169.87,6.95,1.09,6.95,1.08,-1.07,-1.03,-0.91,5.88,5.88,5.87
171.57,6.91,1.07,6.91,1.08,-1.08,-1.04,-0.94,5.83,5.83,5.84
173.29,6.86,1.07,6.86,1.07,-1.09,-1.06,-0.96,5.78,5.78,5.79
175.02,6.82,1.09,6.82,1.08,-1.09,-1.07,-0.99,5.73,5.73,5.73
176.77,6.77,1.08,6.77,1.09,-1.10,-1.08,-1.02,5.67,5.67,5.69
178.54,6.72,1.10,6.72,1.10,-1.10,-1.10,-1.04,5.62,5.62,5.62
180.32,6.67,1.13,6.67,1.11,-1.11,-1.11,-1.07,5.56,5.56,5.54
182.13,6.62,1.11,6.62,1.12,-1.12,-1.12,-1.10,5.49,5.49,5.51
183.95,6.56,1.12,6.56,1.13,-1.13,-1.13,-1.13,5.43,5.43,5.44
185.79,6.51,1.15,6.51,1.14,-1.14,-1.15,-1.17,5.37,5.37,5.36
187.65,6.45,1.16,6.45,1.15,-1.14,-1.16,-1.20,5.31,5.31,5.29
189.52,6.40,1.15,6.40,1.16,-1.15,-1.17,-1.23,5.25,5.25,5.25
191.42,6.34,1.15,6.34,1.14,-1.15,-1.18,-1.27,5.19,5.19,5.19
193.33,6.28,1.14,6.28,1.13,-1.15,-1.19,-1.30,5.13,5.13,5.14
195.27,6.22,1.12,6.22,1.13,-1.14,-1.20,-1.34,5.08,5.08,5.10
197.22,6.16,1.14,6.16,1.14,-1.14,-1.21,-1.37,5.02,5.02,5.02
199.19,6.09,1.15,6.09,1.14,-1.13,-1.22,-1.41,4.97,4.97,4.95
201.18,6.03,1.14,6.03,1.13,-1.12,-1.22,-1.45,4.91,4.91,4.90
203.19,5.97,1.11,5.97,1.11,-1.11,-1.23,-1.48,4.86,4.86,4.86
205.23,5.91,1.09,5.91,1.10,-1.10,-1.24,-1.52,4.80,4.80,4.82
207.28,5.85,1.09,5.85,1.09,-1.09,-1.25,-1.56,4.75,4.75,4.76
209.35,5.79,1.09,5.79,1.08,-1.09,-1.25,-1.59,4.71,4.70,4.70
211.44,5.74,1.08,5.74,1.08,-1.08,-1.26,-1.63,4.66,4.66,4.65
213.56,5.68,1.08,5.68,1.08,-1.08,-1.27,-1.67,4.61,4.61,4.60
215.69,5.64,1.08,5.64,1.08,-1.08,-1.27,-1.70,4.56,4.56,4.56
217.85,5.59,1.08,5.59,1.08,-1.08,-1.28,-1.73,4.51,4.51,4.52
220.03,5.55,1.08,5.55,1.09,-1.09,-1.29,-1.77,4.46,4.46,4.48
222.23,5.52,1.11,5.52,1.11,-1.11,-1.29,-1.80,4.41,4.41,4.41
224.45,5.49,1.14,5.49,1.13,-1.13,-1.30,-1.83,4.36,4.36,4.35
226.70,5.47,1.16,5.47,1.16,-1.16,-1.30,-1.86,4.30,4.30,4.31
228.96,5.45,1.17,5.44,1.18,-1.19,-1.31,-1.89,4.25,4.25,4.27
231.25,5.43,1.21,5.43,1.22,-1.23,-1.31,-1.91,4.20,4.20,4.21
233.57,5.41,1.27,5.41,1.27,-1.26,-1.32,-1.93,4.15,4.15,4.14
235.90,5.39,1.33,5.39,1.32,-1.30,-1.32,-1.95,4.09,4.10,4.06
238.26,5.37,1.35,5.37,1.34,-1.33,-1.33,-1.97,4.04,4.04,4.03
240.64,5.36,1.36,5.36,1.36,-1.36,-1.33,-1.98,3.99,3.99,4.00
243.05,5.34,1.37,5.34,1.38,-1.39,-1.34,-2.00,3.94,3.94,3.97
245.48,5.31,1.42,5.31,1.41,-1.42,-1.34,-2.01,3.89,3.89,3.90
247.93,5.29,1.45,5.29,1.44,-1.44,-1.35,-2.01,3.85,3.85,3.83
250.41,5.26,1.47,5.26,1.47,-1.46,-1.35,-2.01,3.80,3.80,3.79
252.92,5.23,1.48,5.23,1.49,-1.48,-1.36,-2.01,3.74,3.74,3.75
255.45,5.19,1.50,5.19,1.51,-1.51,-1.36,-2.01,3.69,3.69,3.69
258.00,5.15,1.54,5.15,1.52,-1.53,-1.37,-2.00,3.63,3.63,3.61
260.58,5.11,1.53,5.11,1.53,-1.55,-1.37,-1.99,3.57,3.57,3.59
263.19,5.07,1.53,5.07,1.55,-1.56,-1.38,-1.98,3.51,3.51,3.54
265.82,5.02,1.57,5.02,1.57,-1.56,-1.39,-1.97,3.46,3.46,3.45
268.48,4.97,1.62,4.97,1.59,-1.57,-1.39,-1.95,3.41,3.41,3.36
271.16,4.92,1.59,4.92,1.58,-1.56,-1.40,-1.93,3.36,3.36,3.33
273.87,4.87,1.55,4.87,1.57,-1.56,-1.40,-1.91,3.31,3.31,3.32
276.61,4.82,1.53,4.82,1.55,-1.56,-1.41,-1.88,3.26,3.26,3.29
279.38,4.76,1.55,4.76,1.53,-1.55,-1.42,-1.86,3.21,3.21,3.21
282.17,4.71,1.54,4.71,1.53,-1.54,-1.42,-1.83,3.17,3.17,3.17
284.99,4.65,1.50,4.65,1.52,-1.53,-1.43,-1.80,3.12,3.12,3.15
287.84,4.59,1.51,4.59,1.52,-1.53,-1.43,-1.77,3.07,3.07,3.08
290.72,4.54,1.53,4.54,1.54,-1.52,-1.44,-1.74,3.02,3.02,3.01
293.63,4.48,1.57,4.48,1.54,-1.52,-1.45,-1.71,2.96,2.96,2.91
296.57,4.42,1.54,4.42,1.52,-1.52,-1.45,-1.68,2.90,2.90,2.88
299.53,4.36,1.46,4.36,1.50,-1.51,-1.46,-1.64,2.85,2.85,2.90
302.53,4.30,1.47,4.30,1.49,-1.51,-1.47,-1.61,2.80,2.80,2.83
305.55,4.24,1.51,4.24,1.49,-1.50,-1.47,-1.58,2.74,2.74,2.73
308.61,4.18,1.52,4.18,1.50,-1.49,-1.48,-1.54,2.70,2.70,2.67
311.69,4.12,1.48,4.12,1.49,-1.48,-1.48,-1.51,2.65,2.65,2.64
314.81,4.06,1.46,4.06,1.47,-1.47,-1.49,-1.48,2.60,2.60,2.61
317.96,4.00,1.45,4.01,1.45,-1.46,-1.49,-1.45,2.55,2.55,2.55
321.14,3.95,1.44,3.95,1.44,-1.44,-1.49,-1.41,2.50,2.50,2.50
324.35,3.89,1.43,3.89,1.43,-1.43,-1.49,-1.38,2.46,2.46,2.45
327.59,3.83,1.42,3.83,1.42,-1.41,-1.49,-1.35,2.41,2.41,2.41
330.87,3.77,1.40,3.77,1.40,-1.40,-1.49,-1.32,2.37,2.37,2.37
334.18,3.71,1.38,3.71,1.38,-1.39,-1.49,-1.29,2.32,2.32,2.33
337.52,3.65,1.37,3.65,1.37,-1.37,-1.48,-1.26,2.27,2.27,2.28
340.90,3.59,1.36,3.59,1.36,-1.36,-1.47,-1.24,2.23,2.23,2.23
344.30,3.53,1.35,3.53,1.35,-1.35,-1.46,-1.21,2.18,2.18,2.18
347.75,3.47,1.33,3.47,1.33,-1.33,-1.45,-1.18,2.14,2.14,2.14
351.23,3.41,1.32,3.41,1.32,-1.32,-1.44,-1.16,2.09,2.09,2.09
354.74,3.35,1.31,3.35,1.31,-1.31,-1.43,-1.13,2.05,2.05,2.04
358.28,3.29,1.30,3.29,1.29,-1.29,-1.41,-1.11,2.00,2.00,1.99
361.87,3.23,1.28,3.23,1.28,-1.27,-1.39,-1.09,1.96,1.96,1.96
365.49,3.18,1.25,3.18,1.26,-1.26,-1.37,-1.07,1.92,1.92,1.93
369.14,3.12,1.24,3.12,1.24,-1.24,-1.35,-1.05,1.87,1.87,1.88
372.83,3.06,1.23,3.06,1.23,-1.23,-1.33,-1.03,1.83,1.83,1.83
376.56,3.00,1.21,3.00,1.21,-1.22,-1.31,-1.01,1.78,1.78,1.79
380.33,2.94,1.20,2.94,1.20,-1.20,-1.28,-0.99,1.74,1.74,1.74
384.13,2.88,1.19,2.88,1.19,-1.19,-1.26,-0.98,1.69,1.69,1.69
387.97,2.82,1.18,2.82,1.18,-1.18,-1.23,-0.96,1.64,1.64,1.64
391.85,2.76,1.17,2.76,1.17,-1.16,-1.21,-0.94,1.60,1.60,1.60
395.77,2.70,1.15,2.70,1.15,-1.15,-1.18,-0.93,1.55,1.55,1.55
399.73,2.64,1.14,2.64,1.14,-1.13,-1.16,-0.92,1.51,1.51,1.51
403.72,2.59,1.12,2.59,1.12,-1.12,-1.13,-0.90,1.47,1.47,1.47
407.76,2.53,1.10,2.53,1.10,-1.10,-1.10,-0.89,1.43,1.43,1.43
411.84,2.47,1.07,2.47,1.08,-1.08,-1.08,-0.88,1.39,1.39,1.40
415.96,2.41,1.06,2.41,1.06,-1.06,-1.05,-0.87,1.35,1.35,1.35
420.12,2.35,1.04,2.35,1.04,-1.04,-1.03,-0.86,1.31,1.31,1.31
424.32,2.29,1.02,2.29,1.03,-1.02,-1.00,-0.84,1.27,1.27,1.27
428.56,2.23,1.01,2.23,1.01,-1.01,-0.98,-0.83,1.23,1.23,1.22
432.85,2.18,0.99,2.18,0.99,-0.99,-0.95,-0.82,1.19,1.19,1.18
437.18,2.12,0.97,2.12,0.97,-0.97,-0.93,-0.81,1.15,1.15,1.15
441.55,2.06,0.95,2.06,0.95,-0.95,-0.90,-0.80,1.11,1.11,1.11
445.96,2.00,0.93,2.00,0.93,-0.94,-0.88,-0.79,1.07,1.07,1.07
450.42,1.95,0.92,1.95,0.92,-0.92,-0.86,-0.78,1.03,1.03,1.03
454.93,1.89,0.90,1.89,0.90,-0.90,-0.83,-0.77,0.99,0.99,0.98
459.48,1.83,0.88,1.83,0.88,-0.88,-0.81,-0.76,0.95,0.95,0.95
464.07,1.77,0.86,1.77,0.86,-0.86,-0.79,-0.75,0.91,0.91,0.92
468.71,1.72,0.84,1.72,0.84,-0.84,-0.77,-0.74,0.88,0.88,0.88
473.40,1.66,0.82,1.66,0.82,-0.82,-0.74,-0.73,0.84,0.84,0.84
478.13,1.60,0.80,1.60,0.80,-0.80,-0.72,-0.72,0.80,0.80,0.80
482.91,1.55,0.78,1.55,0.78,-0.78,-0.70,-0.70,0.77,0.77,0.77
487.74,1.49,0.76,1.49,0.76,-0.76,-0.68,-0.69,0.73,0.73,0.73
492.62,1.43,0.74,1.43,0.74,-0.74,-0.66,-0.68,0.70,0.70,0.70
497.55,1.38,0.71,1.38,0.72,-0.72,-0.64,-0.66,0.66,0.66,0.67
502.52,1.32,0.69,1.32,0.69,-0.70,-0.62,-0.65,0.63,0.63,0.63
507.55,1.27,0.68,1.27,0.67,-0.67,-0.60,-0.63,0.59,0.59,0.59
512.62,1.21,0.64,1.21,0.65,-0.65,-0.58,-0.62,0.56,0.56,0.57
517.75,1.16,0.62,1.16,0.63,-0.63,-0.57,-0.60,0.53,0.53,0.54
522.93,1.11,0.62,1.11,0.61,-0.60,-0.55,-0.58,0.50,0.50,0.49
528.16,1.05,0.59,1.05,0.59,-0.58,-0.53,-0.57,0.47,0.47,0.46
533.44,1.00,0.56,1.00,0.56,-0.55,-0.51,-0.55,0.45,0.45,0.44
