frequency,raw,error,smoothed,error_smoothed,equalization,parametric_eq,fixed_band_eq,equalized_raw,equalized_smoothed,target
20.00,2.85,-4.02,2.85,-4.01,3.99,3.97,2.00,6.84,6.84,6.87
20.20,2.88,-3.99,2.88,-4.01,4.00,3.87,2.06,6.89,6.89,6.87
20.40,2.91,-4.00,2.91,-4.00,4.02,3.77,2.12,6.93,6.93,6.91
20.61,2.94,-4.04,2.93,-4.01,4.03,3.73,2.18,6.97,6.96,6.97
20.81,2.96,-4.02,2.96,-4.04,4.04,3.69,2.24,7.00,7.00,6.97
21.02,2.97,-4.04,2.97,-4.05,4.06,3.73,2.31,7.03,7.03,7.01
21.23,2.99,-4.09,2.99,-4.06,4.07,3.77,2.37,7.06,7.06,7.07
21.44,3.00,-4.08,3.00,-4.09,4.08,3.86,2.44,7.08,7.08,7.07
21.66,3.01,-4.08,3.01,-4.10,4.11,3.95,2.51,7.12,7.12,7.09
21.87,3.03,-4.14,3.03,-4.11,4.13,4.04,2.59,7.15,7.15,7.17
22.09,3.04,-4.13,3.04,-4.14,4.14,4.12,2.66,7.19,7.19,7.17
22.31,3.06,-4.15,3.06,-4.16,4.15,4.19,2.74,7.22,7.22,7.21
22.54,3.08,-4.19,3.08,-4.17,4.15,4.25,2.82,7.24,7.24,7.27
22.76,3.10,-4.17,3.10,-4.17,4.15,4.29,2.90,7.25,7.25,7.27
22.99,3.12,-4.15,3.12,-4.16,4.14,4.34,2.98,7.26,7.26,7.27
23.22,3.14,-4.14,3.14,-4.14,4.13,4.36,3.07,7.27,7.26,7.27
23.45,3.15,-4.13,3.15,-4.10,4.11,4.39,3.16,7.26,7.26,7.27
23.69,3.15,-4.06,3.15,-4.08,4.10,4.41,3.25,7.25,7.25,7.21
23.92,3.16,-4.04,3.16,-4.07,4.08,4.42,3.34,7.25,7.25,7.21
24.16,3.17,-4.10,3.17,-4.08,4.08,4.43,3.43,7.25,7.25,7.26
24.40,3.17,-4.10,3.17,-4.09,4.09,4.44,3.52,7.26,7.26,7.27
24.65,3.18,-4.10,3.18,-4.10,4.10,4.45,3.62,7.28,7.28,7.27
24.89,3.18,-4.09,3.18,-4.11,4.13,4.46,3.71,7.31,7.31,7.27
25.14,3.19,-4.14,3.19,-4.15,4.16,4.46,3.81,7.35,7.35,7.34
25.39,3.20,-4.21,3.20,-4.20,4.19,4.47,3.91,7.39,7.39,7.41
25.65,3.21,-4.27,3.21,-4.25,4.23,4.47,4.01,7.43,7.43,7.47
25.91,3.21,-4.26,3.21,-4.28,4.27,4.47,4.10,7.48,7.48,7.47
26.16,3.22,-4.30,3.22,-4.30,4.30,4.48,4.20,7.52,7.52,7.52
26.43,3.23,-4.35,3.23,-4.32,4.34,4.48,4.30,7.56,7.56,7.57
26.69,3.23,-4.34,3.23,-4.36,4.36,4.48,4.40,7.60,7.60,7.57
26.96,3.24,-4.37,3.24,-4.39,4.38,4.48,4.49,7.62,7.62,7.61
27.23,3.25,-4.43,3.25,-4.41,4.39,4.48,4.58,7.63,7.63,7.67
27.50,3.25,-4.42,3.25,-4.43,4.39,4.48,4.68,7.64,7.64,7.67
27.77,3.26,-4.42,3.26,-4.41,4.39,4.48,4.76,7.64,7.64,7.67
28.05,3.26,-4.40,3.26,-4.38,4.39,4.48,4.85,7.65,7.64,7.66
28.33,3.26,-4.34,3.26,-4.37,4.39,4.48,4.93,7.65,7.65,7.59
28.62,3.25,-4.38,3.25,-4.37,4.40,4.48,5.00,7.65,7.65,7.63
28.90,3.25,-4.42,3.25,-4.40,4.43,4.48,5.07,7.68,7.68,7.67
29.19,3.25,-4.43,3.25,-4.45,4.47,4.47,5.14,7.72,7.71,7.67
29.48,3.25,-4.50,3.25,-4.49,4.52,4.47,5.19,7.77,7.77,7.75
29.78,3.25,-4.56,3.25,-4.56,4.59,4.47,5.25,7.85,7.85,7.82
30.08,3.26,-4.64,3.26,-4.66,4.66,4.46,5.29,7.92,7.92,7.90
30.38,3.27,-4.75,3.27,-4.75,4.73,4.45,5.33,8.00,8.00,8.02
30.68,3.28,-4.84,3.28,-4.83,4.79,4.45,5.36,8.07,8.07,8.12
30.99,3.29,-4.88,3.29,-4.87,4.83,4.44,5.38,8.12,8.12,8.17
31.30,3.30,-4.87,3.30,-4.88,4.85,4.43,5.40,8.15,8.15,8.17
31.61,3.31,-4.87,3.31,-4.86,4.85,4.43,5.41,8.16,8.16,8.17
31.93,3.31,-4.84,3.31,-4.83,4.83,4.42,5.40,8.14,8.14,8.15
32.24,3.31,-4.77,3.31,-4.80,4.80,4.41,5.40,8.11,8.11,8.09
32.57,3.32,-4.76,3.32,-4.75,4.76,4.40,5.38,8.08,8.08,8.07
32.89,3.32,-4.73,3.32,-4.70,4.72,4.39,5.36,8.05,8.05,8.05
33.22,3.33,-4.64,3.33,-4.67,4.69,4.38,5.33,8.02,8.02,7.97
33.55,3.34,-4.63,3.34,-4.64,4.67,4.36,5.29,8.01,8.01,7.97
33.89,3.35,-4.63,3.35,-4.62,4.66,4.35,5.25,8.00,8.00,7.97
34.23,3.35,-4.63,3.35,-4.63,4.64,4.34,5.20,7.99,7.99,7.97
34.57,3.35,-4.63,3.35,-4.63,4.62,4.32,5.15,7.97,7.97,7.97
34.92,3.34,-4.63,3.34,-4.63,4.59,4.31,5.10,7.93,7.93,7.97
35.27,3.34,-4.62,3.34,-4.61,4.55,4.29,5.04,7.89,7.89,7.96
35.62,3.34,-4.55,3.34,-4.53,4.50,4.28,4.97,7.84,7.84,7.89
35.97,3.34,-4.43,3.34,-4.44,4.44,4.26,4.91,7.77,7.77,7.76
36.33,3.34,-4.32,3.34,-4.34,4.37,4.25,4.84,7.70,7.70,7.65
36.70,3.34,-4.26,3.34,-4.25,4.29,4.23,4.77,7.62,7.62,7.59
37.06,3.34,-4.19,3.34,-4.18,4.20,4.21,4.71,7.54,7.54,7.52
37.43,3.34,-4.12,3.34,-4.12,4.12,4.19,4.64,7.46,7.46,7.45
37.81,3.34,-4.05,3.34,-4.05,4.04,4.17,4.57,7.38,7.38,7.39
38.19,3.34,-3.98,3.34,-3.98,3.97,4.15,4.50,7.31,7.31,7.32
38.57,3.34,-3.91,3.34,-3.91,3.91,4.13,4.43,7.24,7.24,7.25
38.95,3.34,-3.85,3.34,-3.84,3.83,4.11,4.36,7.17,7.17,7.18
39.34,3.34,-3.77,3.34,-3.77,3.76,4.09,4.30,7.09,7.09,7.11
39.74,3.33,-3.70,3.33,-3.70,3.68,4.07,4.23,7.02,7.01,7.03
40.14,3.33,-3.64,3.33,-3.63,3.61,4.05,4.17,6.94,6.94,6.97
40.54,3.33,-3.57,3.33,-3.56,3.55,4.03,4.11,6.88,6.88,6.90
40.94,3.33,-3.50,3.33,-3.50,3.52,4.00,4.05,6.85,6.85,6.83
41.35,3.33,-3.44,3.33,-3.46,3.51,3.98,4.00,6.84,6.84,6.77
41.76,3.33,-3.44,3.33,-3.45,3.53,3.96,3.94,6.86,6.86,6.77
42.18,3.33,-3.49,3.33,-3.50,3.57,3.94,3.89,6.90,6.90,6.82
42.60,3.33,-3.58,3.33,-3.59,3.62,3.91,3.84,6.95,6.95,6.91
43.03,3.33,-3.72,3.33,-3.70,3.68,3.89,3.80,7.01,7.01,7.05
43.46,3.33,-3.80,3.33,-3.79,3.73,3.86,3.76,7.06,7.06,7.13
43.90,3.33,-3.84,3.33,-3.85,3.77,3.84,3.72,7.10,7.10,7.17
44.33,3.33,-3.84,3.33,-3.86,3.79,3.81,3.68,7.12,7.12,7.17
44.78,3.33,-3.85,3.33,-3.83,3.78,3.79,3.65,7.11,7.11,7.17
45.23,3.32,-3.78,3.32,-3.76,3.76,3.77,3.61,7.08,7.08,7.11
45.68,3.32,-3.66,3.32,-3.68,3.71,3.74,3.59,7.03,7.03,6.98
46.13,3.32,-3.58,3.32,-3.61,3.65,3.72,3.56,6.97,6.97,6.90
46.60,3.31,-3.56,3.31,-3.56,3.60,3.69,3.54,6.91,6.91,6.87
47.06,3.31,-3.55,3.31,-3.53,3.54,3.67,3.52,6.85,6.85,6.87
47.53,3.31,-3.49,3.31,-3.50,3.50,3.64,3.50,6.81,6.81,6.80
48.01,3.30,-3.47,3.30,-3.49,3.47,3.61,3.48,6.78,6.78,6.77
48.49,3.30,-3.47,3.30,-3.47,3.46,3.59,3.47,6.76,6.76,6.77
48.97,3.30,-3.47,3.30,-3.45,3.45,3.56,3.46,6.75,6.75,6.77
49.46,3.30,-3.42,3.30,-3.44,3.45,3.54,3.45,6.75,6.75,6.72
49.96,3.30,-3.40,3.30,-3.43,3.46,3.52,3.45,6.75,6.75,6.70
50.46,3.30,-3.47,3.30,-3.45,3.46,3.49,3.44,6.76,6.76,6.77
50.96,3.30,-3.48,3.30,-3.47,3.47,3.47,3.44,6.76,6.76,6.77
51.47,3.29,-3.48,3.29,-3.49,3.47,3.44,3.44,6.76,6.76,6.77
51.99,3.29,-3.49,3.29,-3.49,3.47,3.42,3.44,6.75,6.75,6.77
52.51,3.28,-3.49,3.28,-3.48,3.46,3.39,3.44,6.74,6.74,6.77
53.03,3.28,-3.46,3.28,-3.45,3.44,3.37,3.44,6.72,6.72,6.74
53.56,3.28,-3.40,3.28,-3.43,3.42,3.35,3.45,6.69,6.69,6.67
54.10,3.27,-3.40,3.27,-3.39,3.39,3.33,3.45,6.66,6.66,6.67
54.64,3.27,-3.36,3.27,-3.35,3.37,3.30,3.45,6.64,6.64,6.63
55.18,3.26,-3.31,3.26,-3.33,3.35,3.28,3.46,6.61,6.61,6.57
55.74,3.26,-3.31,3.26,-3.31,3.33,3.26,3.46,6.59,6.59,6.57
56.29,3.26,-3.32,3.26,-3.31,3.32,3.24,3.46,6.58,6.58,6.57
56.86,3.25,-3.32,3.25,-3.32,3.31,3.22,3.47,6.57,6.57,6.57
57.42,3.25,-3.33,3.24,-3.33,3.32,3.21,3.47,6.56,6.56,6.57
58.00,3.24,-3.34,3.24,-3.34,3.33,3.19,3.47,6.57,6.57,6.57
58.58,3.23,-3.35,3.23,-3.34,3.36,3.17,3.46,6.58,6.58,6.57
59.16,3.22,-3.35,3.22,-3.35,3.38,3.16,3.46,6.60,6.60,6.57
59.76,3.21,-3.36,3.21,-3.37,3.40,3.14,3.45,6.61,6.61,6.57
60.35,3.21,-3.40,3.21,-3.41,3.41,3.13,3.45,6.62,6.62,6.60
60.96,3.20,-3.47,3.20,-3.45,3.42,3.12,3.44,6.62,6.62,6.67
61.57,3.20,-3.48,3.20,-3.46,3.41,3.11,3.42,6.60,6.60,6.67
62.18,3.19,-3.44,3.19,-3.44,3.39,3.10,3.41,6.58,6.58,6.63
62.80,3.19,-3.38,3.19,-3.38,3.37,3.10,3.39,6.56,6.56,6.56
63.43,3.18,-3.32,3.18,-3.32,3.34,3.09,3.37,6.53,6.53,6.50
64.07,3.17,-3.26,3.17,-3.26,3.31,3.09,3.34,6.49,6.49,6.43
64.71,3.17,-3.21,3.17,-3.23,3.27,3.10,3.32,6.44,6.44,6.37
65.35,3.16,-3.22,3.16,-3.22,3.23,3.10,3.29,6.39,6.39,6.37
66.01,3.15,-3.23,3.15,-3.22,3.19,3.11,3.26,6.33,6.33,6.37
66.67,3.14,-3.22,3.14,-3.20,3.14,3.12,3.23,6.28,6.28,6.36
67.33,3.13,-3.15,3.13,-3.16,3.10,3.13,3.19,6.24,6.24,6.28
68.01,3.12,-3.09,3.12,-3.09,3.07,3.14,3.15,6.20,6.20,6.21
68.69,3.12,-3.03,3.12,-3.02,3.05,3.16,3.11,6.17,6.17,6.15
69.37,3.11,-2.97,3.11,-2.98,3.04,3.18,3.07,6.15,6.15,6.08
70.07,3.10,-2.97,3.10,-2.98,3.04,3.20,3.03,6.15,6.15,6.07
70.77,3.09,-3.01,3.09,-3.02,3.06,3.22,2.99,6.15,6.15,6.11
71.48,3.09,-3.09,3.09,-3.09,3.08,3.24,2.95,6.16,6.16,6.17
72.19,3.08,-3.17,3.08,-3.15,3.11,3.26,2.90,6.19,6.19,6.24
72.91,3.07,-3.21,3.07,-3.20,3.15,3.28,2.86,6.22,6.22,6.27
73.64,3.06,-3.21,3.06,-3.22,3.19,3.29,2.81,6.25,6.25,6.27
74.38,3.05,-3.22,3.05,-3.23,3.23,3.29,2.77,6.28,6.28,6.27
75.12,3.04,-3.23,3.04,-3.23,3.25,3.28,2.72,6.29,6.29,6.27
75.87,3.03,-3.25,3.03,-3.25,3.27,3.27,2.68,6.29,6.29,6.27
76.63,3.02,-3.26,3.02,-3.26,3.28,3.24,2.64,6.29,6.29,6.27
77.40,3.00,-3.27,3.01,-3.27,3.29,3.21,2.60,6.29,6.29,6.27
78.17,2.99,-3.28,2.99,-3.28,3.29,3.16,2.55,6.29,6.29,6.27
78.95,2.98,-3.29,2.98,-3.27,3.29,3.11,2.51,6.27,6.27,6.27
79.74,2.97,-3.24,2.97,-3.26,3.27,3.05,2.47,6.24,6.24,6.22
80.54,2.96,-3.21,2.96,-3.24,3.22,2.99,2.44,6.18,6.18,6.17
81.35,2.95,-3.22,2.95,-3.19,3.13,2.93,2.40,6.08,6.08,6.17
82.16,2.94,-3.11,2.94,-3.10,3.02,2.86,2.36,5.96,5.96,6.05
82.98,2.93,-2.95,2.93,-2.96,2.88,2.80,2.33,5.80,5.80,5.88
83.81,2.91,-2.76,2.91,-2.76,2.72,2.73,2.30,5.64,5.64,5.67
84.65,2.90,-2.56,2.90,-2.55,2.57,2.67,2.26,5.47,5.47,5.46
85.50,2.88,-2.37,2.88,-2.36,2.44,2.62,2.24,5.32,5.32,5.25
86.35,2.87,-2.19,2.87,-2.22,2.32,2.56,2.21,5.19,5.19,5.06
87.22,2.85,-2.14,2.85,-2.14,2.24,2.51,2.18,5.10,5.10,5.00
88.09,2.84,-2.14,2.84,-2.14,2.20,2.46,2.16,5.03,5.03,4.97
88.97,2.82,-2.18,2.82,-2.19,2.19,2.41,2.13,5.01,5.01,5.00
89.86,2.80,-2.26,2.80,-2.24,2.20,2.36,2.11,5.01,5.01,5.06
90.76,2.79,-2.29,2.79,-2.28,2.23,2.32,2.09,5.02,5.02,5.07
91.66,2.78,-2.30,2.78,-2.31,2.26,2.28,2.07,5.04,5.04,5.07
92.58,2.77,-2.31,2.77,-2.31,2.28,2.25,2.06,5.05,5.05,5.07
93.51,2.76,-2.31,2.76,-2.31,2.28,2.21,2.04,5.04,5.04,5.07
94.44,2.75,-2.29,2.75,-2.28,2.27,2.18,2.03,5.02,5.02,5.04
95.39,2.74,-2.24,2.74,-2.24,2.24,2.14,2.02,4.98,4.98,4.98
96.34,2.72,-2.19,2.72,-2.19,2.20,2.11,2.01,4.92,4.92,4.91
97.30,2.70,-2.14,2.70,-2.14,2.16,2.08,2.00,4.86,4.86,4.84
98.28,2.68,-2.09,2.68,-2.09,2.11,2.06,1.99,4.78,4.78,4.77
99.26,2.65,-2.04,2.65,-2.06,2.05,2.03,1.98,4.70,4.71,4.70
100.25,2.64,-2.04,2.64,-2.04,2.00,2.00,1.98,4.63,4.63,4.67
101.25,2.62,-2.03,2.62,-1.99,1.95,1.98,1.97,4.58,4.58,4.65
102.27,2.61,-1.93,2.61,-1.93,1.92,1.95,1.97,4.54,4.54,4.55
103.29,2.60,-1.84,2.60,-1.86,1.91,1.93,1.96,4.51,4.51,4.45
104.32,2.59,-1.80,2.59,-1.83,1.92,1.91,1.96,4.51,4.51,4.39
105.37,2.58,-1.87,2.58,-1.87,1.94,1.89,1.96,4.51,4.51,4.44
106.42,2.56,-1.96,2.56,-1.94,1.96,1.87,1.96,4.52,4.52,4.52
107.48,2.54,-2.03,2.54,-2.02,1.99,1.84,1.95,4.54,4.54,4.57
108.56,2.52,-2.05,2.52,-2.06,2.02,1.82,1.95,4.54,4.54,4.57
109.64,2.50,-2.07,2.50,-2.10,2.04,1.80,1.95,4.53,4.53,4.57
110.74,2.48,-2.10,2.48,-2.10,2.03,1.79,1.95,4.51,4.51,4.57
111.85,2.46,-2.11,2.46,-2.05,2.00,1.77,1.95,4.46,4.47,4.57
112.97,2.44,-1.94,2.44,-1.97,1.95,1.75,1.94,4.39,4.39,4.38
114.10,2.42,-1.84,2.42,-1.86,1.89,1.73,1.94,4.31,4.31,4.26
115.24,2.40,-1.76,2.40,-1.76,1.82,1.71,1.93,4.22,4.22,4.16
116.39,2.39,-1.72,2.39,-1.70,1.74,1.69,1.93,4.13,4.13,4.10
117.55,2.37,-1.65,2.37,-1.65,1.67,1.67,1.92,4.04,4.04,4.02
118.73,2.35,-1.59,2.35,-1.60,1.60,1.66,1.91,3.94,3.94,3.94
119.92,2.33,-1.55,2.33,-1.55,1.52,1.64,1.90,3.85,3.85,3.88
121.12,2.31,-1.51,2.31,-1.52,1.46,1.62,1.89,3.76,3.76,3.82
122.33,2.28,-1.47,2.29,-1.46,1.41,1.60,1.88,3.70,3.70,3.76
123.55,2.26,-1.43,2.26,-1.39,1.39,1.59,1.86,3.65,3.65,3.70
124.79,2.24,-1.27,2.24,-1.31,1.39,1.57,1.85,3.64,3.64,3.52
126.03,2.22,-1.25,2.22,-1.27,1.42,1.55,1.83,3.64,3.64,3.47
127.29,2.20,-1.31,2.20,-1.32,1.45,1.53,1.81,3.65,3.65,3.50
128.57,2.17,-1.46,2.17,-1.47,1.48,1.51,1.79,3.66,3.66,3.63
129.85,2.15,-1.61,2.15,-1.60,1.51,1.50,1.76,3.66,3.66,3.76
131.15,2.13,-1.73,2.13,-1.67,1.52,1.48,1.74,3.65,3.65,3.86
132.46,2.10,-1.63,2.10,-1.64,1.51,1.46,1.71,3.61,3.61,3.73
133.79,2.08,-1.52,2.08,-1.54,1.47,1.44,1.68,3.55,3.55,3.60
135.12,2.05,-1.41,2.05,-1.41,1.41,1.42,1.65,3.46,3.46,3.46
136.48,2.02,-1.30,2.03,-1.30,1.32,1.41,1.62,3.35,3.35,3.33
137.84,2.00,-1.19,2.00,-1.18,1.24,1.39,1.59,3.24,3.24,3.19
139.22,1.98,-1.09,1.98,-1.09,1.18,1.37,1.56,3.15,3.15,3.06
140.61,1.95,-1.04,1.95,-1.04,1.14,1.35,1.52,3.10,3.10,2.99
142.02,1.93,-1.05,1.93,-1.06,1.14,1.33,1.49,3.07,3.07,2.97
143.44,1.90,-1.12,1.90,-1.14,1.16,1.31,1.45,3.07,3.07,3.02
144.87,1.88,-1.28,1.88,-1.24,1.20,1.29,1.41,3.07,3.07,3.16
146.32,1.85,-1.32,1.85,-1.32,1.23,1.27,1.37,3.09,3.09,3.17
147.78,1.83,-1.35,1.83,-1.36,1.27,1.25,1.34,3.10,3.10,3.17
149.26,1.80,-1.36,1.80,-1.34,1.30,1.23,1.30,3.11,3.11,3.16
150.75,1.78,-1.31,1.78,-1.31,1.32,1.21,1.26,3.10,3.10,3.09
152.26,1.75,-1.28,1.75,-1.28,1.33,1.19,1.22,3.08,3.08,3.03
153.78,1.73,-1.25,1.73,-1.27,1.32,1.17,1.18,3.04,3.04,2.98
155.32,1.70,-1.27,1.70,-1.28,1.30,1.15,1.14,3.00,3.00,2.97
156.88,1.67,-1.30,1.67,-1.29,1.28,1.13,1.11,2.95,2.95,2.97
158.44,1.65,-1.31,1.65,-1.29,1.26,1.10,1.07,2.91,2.91,2.95
160.03,1.62,-1.25,1.62,-1.27,1.24,1.08,1.03,2.86,2.86,2.87
161.63,1.59,-1.23,1.59,-1.23,1.22,1.06,0.99,2.81,2.81,2.82
163.24,1.56,-1.20,1.56,-1.19,1.20,1.04,0.95,2.76,2.76,2.76
164.88,1.53,-1.15,1.53,-1.17,1.18,1.01,0.92,2.71,2.71,2.68
166.53,1.50,-1.13,1.50,-1.12,1.15,0.99,0.88,2.65,2.65,2.62
168.19,1.47,-1.10,1.47,-1.09,1.12,0.97,0.84,2.58,2.58,2.56
169.87,1.43,-1.05,1.43,-1.08,1.07,0.94,0.81,2.51,2.50,2.48
171.57,1.40,-1.08,1.40,-1.06,1.02,0.92,0.77,2.42,2.42,2.47
173.29,1.36,-1.03,1.36,-1.01,0.96,0.89,0.74,2.32,2.32,2.39
175.02,1.32,-0.95,1.32,-0.94,0.89,0.87,0.70,2.21,2.21,2.27
176.77,1.27,-0.82,1.27,-0.84,0.83,0.84,0.67,2.11,2.11,2.10
178.54,1.23,-0.74,1.23,-0.74,0.78,0.82,0.64,2.01,2.01,1.97
180.32,1.19,-0.67,1.19,-0.67,0.74,0.79,0.61,1.93,1.93,1.86
182.13,1.16,-0.64,1.16,-0.65,0.71,0.76,0.57,1.87,1.87,1.80
183.95,1.13,-0.65,1.13,-0.65,0.70,0.74,0.54,1.82,1.82,1.77
185.79,1.09,-0.68,1.09,-0.68,0.70,0.71,0.51,1.79,1.79,1.77
187.65,1.05,-0.72,1.05,-0.73,0.71,0.68,0.48,1.77,1.77,1.77
189.52,1.01,-0.76,1.01,-0.76,0.72,0.66,0.45,1.73,1.73,1.77
191.42,0.97,-0.79,0.97,-0.78,0.72,0.63,0.42,1.69,1.69,1.76
193.33,0.93,-0.76,0.93,-0.76,0.70,0.60,0.39,1.63,1.63,1.70
195.27,0.90,-0.71,0.90,-0.71,0.66,0.57,0.36,1.56,1.56,1.61
197.22,0.86,-0.63,0.86,-0.62,0.62,0.54,0.33,1.48,1.48,1.49
199.19,0.83,-0.53,0.83,-0.52,0.57,0.52,0.30,1.40,1.40,1.36
201.18,0.80,-0.43,0.80,-0.45,0.51,0.49,0.28,1.32,1.32,1.23
203.19,0.78,-0.40,0.78,-0.41,0.46,0.46,0.25,1.24,1.24,1.17
205.23,0.76,-0.42,0.76,-0.41,0.42,0.43,0.22,1.18,1.18,1.17
207.28,0.74,-0.43,0.74,-0.41,0.39,0.40,0.20,1.13,1.13,1.17
209.35,0.73,-0.39,0.74,-0.39,0.37,0.37,0.17,1.10,1.10,1.13
211.44,0.74,-0.34,0.74,-0.36,0.35,0.34,0.15,1.09,1.09,1.07
213.56,0.75,-0.33,0.75,-0.33,0.33,0.31,0.12,1.08,1.08,1.07
215.69,0.76,-0.32,0.76,-0.30,0.30,0.28,0.10,1.06,1.06,1.07
217.85,0.77,-0.28,0.76,-0.27,0.26,0.26,0.07,1.03,1.03,1.05
220.03,0.77,-0.21,0.76,-0.22,0.21,0.23,0.05,0.97,0.97,0.97
222.23,0.75,-0.17,0.75,-0.17,0.15,0.20,0.03,0.90,0.90,0.92
224.45,0.73,-0.12,0.73,-0.12,0.09,0.17,0.01,0.83,0.83,0.86
226.70,0.71,-0.07,0.71,-0.05,0.05,0.14,-0.02,0.76,0.76,0.78
228.96,0.68,0.04,0.68,0.03,0.01,0.11,-0.04,0.69,0.69,0.64
231.25,0.65,0.11,0.65,0.09,-0.03,0.08,-0.06,0.63,0.63,0.54
233.57,0.62,0.14,0.62,0.10,-0.06,0.05,-0.08,0.57,0.57,0.49
235.90,0.60,0.06,0.60,0.08,-0.09,0.02,-0.09,0.51,0.51,0.54
238.26,0.57,0.03,0.57,0.06,-0.11,-0.01,-0.11,0.46,0.46,0.53
240.64,0.54,0.08,0.54,0.06,-0.13,-0.03,-0.13,0.40,0.40,0.46
243.05,0.51,0.11,0.51,0.13,-0.15,-0.06,-0.15,0.35,0.35,0.40
245.48,0.47,0.20,0.47,0.19,-0.17,-0.09,-0.16,0.30,0.30,0.28
247.93,0.44,0.27,0.44,0.23,-0.20,-0.12,-0.18,0.24,0.24,0.17
250.41,0.41,0.23,0.41,0.25,-0.23,-0.15,-0.19,0.18,0.18,0.17
252.92,0.38,0.25,0.38,0.27,-0.26,-0.17,-0.20,0.11,0.11,0.13
255.45,0.35,0.29,0.35,0.29,-0.29,-0.20,-0.22,0.05,0.05,0.06
258.00,0.31,0.34,0.31,0.31,-0.31,-0.23,-0.23,0.01,0.01,-0.03
260.58,0.28,0.31,0.28,0.32,-0.31,-0.25,-0.24,-0.03,-0.03,-0.03
263.19,0.25,0.30,0.25,0.32,-0.31,-0.28,-0.25,-0.07,-0.07,-0.06
265.82,0.21,0.34,0.21,0.31,-0.31,-0.30,-0.26,-0.10,-0.10,-0.12
268.48,0.18,0.31,0.18,0.32,-0.32,-0.33,-0.27,-0.13,-0.13,-0.13
271.16,0.15,0.31,0.15,0.32,-0.32,-0.35,-0.28,-0.17,-0.17,-0.15
273.87,0.12,0.34,0.12,0.32,-0.32,-0.37,-0.29,-0.20,-0.20,-0.22
276.61,0.09,0.32,0.09,0.32,-0.34,-0.40,-0.30,-0.25,-0.25,-0.23
279.38,0.06,0.32,0.06,0.34,-0.36,-0.42,-0.31,-0.29,-0.30,-0.26
282.17,0.03,0.36,0.03,0.35,-0.38,-0.44,-0.32,-0.35,-0.35,-0.33
284.99,-0.01,0.40,-0.01,0.39,-0.40,-0.46,-0.32,-0.40,-0.40,-0.40
287.84,-0.04,0.43,-0.04,0.44,-0.41,-0.48,-0.33,-0.45,-0.45,-0.47
290.72,-0.08,0.47,-0.08,0.47,-0.43,-0.50,-0.34,-0.50,-0.50,-0.54
293.63,-0.11,0.50,-0.11,0.49,-0.44,-0.52,-0.34,-0.56,-0.56,-0.62
296.57,-0.14,0.48,-0.14,0.47,-0.47,-0.54,-0.35,-0.61,-0.61,-0.63
299.53,-0.17,0.45,-0.17,0.45,-0.49,-0.56,-0.36,-0.67,-0.67,-0.63
302.53,-0.20,0.42,-0.20,0.47,-0.53,-0.57,-0.37,-0.73,-0.73,-0.63
305.55,-0.23,0.53,-0.23,0.51,-0.57,-0.59,-0.37,-0.79,-0.79,-0.75
308.61,-0.25,0.61,-0.25,0.58,-0.60,-0.61,-0.38,-0.85,-0.85,-0.86
311.69,-0.28,0.64,-0.28,0.65,-0.63,-0.62,-0.39,-0.91,-0.91,-0.92
314.81,-0.30,0.69,-0.30,0.71,-0.65,-0.63,-0.40,-0.95,-0.95,-1.00
317.96,-0.33,0.74,-0.33,0.73,-0.66,-0.65,-0.40,-0.99,-0.99,-1.07
321.14,-0.36,0.77,-0.36,0.72,-0.66,-0.66,-0.41,-1.02,-1.02,-1.12
324.35,-0.39,0.66,-0.39,0.68,-0.66,-0.67,-0.42,-1.04,-1.04,-1.04
327.59,-0.42,0.61,-0.42,0.62,-0.65,-0.68,-0.43,-1.06,-1.06,-1.03
330.87,-0.45,0.58,-0.45,0.57,-0.64,-0.69,-0.44,-1.08,-1.08,-1.03
334.18,-0.48,0.55,-0.48,0.56,-0.64,-0.70,-0.45,-1.11,-1.11,-1.03
337.52,-0.50,0.57,-0.50,0.58,-0.64,-0.71,-0.46,-1.14,-1.14,-1.08
340.90,-0.53,0.63,-0.53,0.64,-0.65,-0.72,-0.47,-1.18,-1.18,-1.16
344.30,-0.56,0.73,-0.56,0.73,-0.67,-0.73,-0.48,-1.23,-1.23,-1.30
347.75,-0.59,0.79,-0.59,0.76,-0.69,-0.74,-0.49,-1.29,-1.29,-1.38
351.23,-0.62,0.78,-0.62,0.75,-0.72,-0.74,-0.50,-1.35,-1.35,-1.40
354.74,-0.65,0.68,-0.65,0.73,-0.74,-0.75,-0.51,-1.40,-1.40,-1.33
358.28,-0.68,0.71,-0.68,0.72,-0.75,-0.76,-0.52,-1.43,-1.43,-1.39
361.87,-0.71,0.76,-0.71,0.74,-0.75,-0.76,-0.53,-1.46,-1.46,-1.46
365.49,-0.73,0.79,-0.73,0.77,-0.75,-0.77,-0.55,-1.48,-1.48,-1.53
369.14,-0.76,0.77,-0.76,0.77,-0.75,-0.77,-0.56,-1.51,-1.51,-1.53
372.83,-0.79,0.74,-0.79,0.75,-0.76,-0.77,-0.57,-1.54,-1.54,-1.53
376.56,-0.81,0.72,-0.81,0.74,-0.78,-0.78,-0.59,-1.59,-1.59,-1.54
380.33,-0.84,0.76,-0.84,0.76,-0.80,-0.78,-0.60,-1.64,-1.64,-1.60
384.13,-0.87,0.80,-0.87,0.80,-0.82,-0.78,-0.62,-1.68,-1.68,-1.67
387.97,-0.89,0.85,-0.89,0.85,-0.83,-0.78,-0.63,-1.72,-1.72,-1.74
391.85,-0.92,0.89,-0.92,0.88,-0.84,-0.79,-0.65,-1.76,-1.76,-1.81
395.77,-0.95,0.88,-0.95,0.88,-0.84,-0.79,-0.66,-1.79,-1.79,-1.83
399.73,-0.97,0.85,-0.97,0.86,-0.84,-0.79,-0.68,-1.81,-1.81,-1.83
403.72,-1.00,0.83,-1.00,0.83,-0.83,-0.79,-0.69,-1.83,-1.83,-1.83
407.76,-1.02,0.80,-1.02,0.80,-0.82,-0.79,-0.71,-1.84,-1.84,-1.83
411.84,-1.05,0.78,-1.05,0.77,-0.79,-0.79,-0.73,-1.84,-1.84,-1.83
415.96,-1.07,0.75,-1.07,0.75,-0.77,-0.79,-0.74,-1.85,-1.85,-1.83
420.12,-1.10,0.73,-1.10,0.74,-0.75,-0.79,-0.76,-1.85,-1.85,-1.83
424.32,-1.12,0.74,-1.12,0.75,-0.74,-0.79,-0.78,-1.86,-1.86,-1.86
428.56,-1.15,0.78,-1.15,0.76,-0.74,-0.79,-0.79,-1.89,-1.89,-1.93
432.85,-1.17,0.75,-1.17,0.75,-0.75,-0.79,-0.81,-1.92,-1.92,-1.93
437.18,-1.19,0.73,-1.19,0.74,-0.75,-0.79,-0.82,-1.95,-1.95,-1.93
441.55,-1.22,0.72,-1.22,0.74,-0.76,-0.79,-0.84,-1.98,-1.98,-1.93
445.96,-1.24,0.77,-1.24,0.77,-0.77,-0.79,-0.86,-2.01,-2.01,-2.01
450.42,-1.26,0.81,-1.26,0.80,-0.78,-0.79,-0.87,-2.04,-2.04,-2.07
454.93,-1.29,0.84,-1.29,0.83,-0.79,-0.79,-0.89,-2.07,-2.07,-2.13
459.48,-1.31,0.82,-1.31,0.82,-0.80,-0.79,-0.90,-2.11,-2.11,-2.13
464.07,-1.33,0.80,-1.33,0.81,-0.83,-0.79,-0.91,-2.16,-2.16,-2.13
468.71,-1.35,0.80,-1.35,0.81,-0.85,-0.80,-0.93,-2.21,-2.21,-2.15
473.40,-1.37,0.84,-1.37,0.84,-0.88,-0.80,-0.94,-2.25,-2.25,-2.22
478.13,-1.39,0.89,-1.39,0.89,-0.90,-0.80,-0.95,-2.29,-2.29,-2.28
482.91,-1.41,0.94,-1.41,0.94,-0.92,-0.80,-0.96,-2.33,-2.33,-2.35
487.74,-1.43,0.99,-1.43,0.97,-0.93,-0.80,-0.97,-2.36,-2.36,-2.42
492.62,-1.45,0.97,-1.45,0.97,-0.94,-0.80,-0.98,-2.39,-2.39,-2.43
497.55,-1.47,0.95,-1.47,0.96,-0.94,-0.81,-0.99,-2.41,-2.41,-2.43
502.52,-1.49,0.93,-1.49,0.93,-0.94,-0.81,-1.00,-2.43,-2.43,-2.43
507.55,-1.51,0.91,-1.51,0.91,-0.93,-0.81,-1.00,-2.44,-2.44,-2.43
512.62,-1.53,0.89,-1.53,0.89,-0.92,-0.81,-1.01,-2.46,-2.46,-2.43
517.75,-1.55,0.88,-1.55,0.87,-0.92,-0.82,-1.02,-2.46,-2.46,-2.43
522.93,-1.57,0.86,-1.57,0.88,-0.90,-0.82,-1.02,-2.47,-2.47,-2.43
528.16,-1.59,0.89,-1.59,0.90,-0.88,-0.83,-1.02,-2.46,-2.46,-2.48
533.44,-1.60,0.92,-1.60,0.91,-0.85,-0.83,-1.03,-2.45,-2.45,-2.53
538.77,-1.62,0.90,-1.62,0.89,-0.81,-0.84,-1.03,-2.44,-2.44,-2.53
