frequency,raw,error,smoothed,error_smoothed,equalization,parametric_eq,fixed_band_eq,equalized_raw,equalized_smoothed,target
20.00,8.37,0.99,8.36,0.98,-1.03,-0.03,-0.31,7.34,7.33,7.38
20.20,8.55,1.14,8.56,1.15,-1.17,-0.03,-0.32,7.37,7.39,7.40
20.40,8.71,1.28,8.72,1.29,-1.29,-0.03,-0.33,7.42,7.44,7.43
20.61,8.87,1.41,8.86,1.40,-1.38,-0.03,-0.34,7.49,7.48,7.46
20.81,8.98,1.50,8.98,1.50,-1.45,-0.04,-0.35,7.53,7.53,7.49
21.02,9.06,1.55,9.06,1.55,-1.49,-0.04,-0.36,7.57,7.57,7.52
21.23,9.11,1.57,9.10,1.56,-1.52,-0.04,-0.37,7.59,7.59,7.54
21.44,9.11,1.54,9.11,1.53,-1.51,-0.04,-0.38,7.60,7.59,7.57
21.66,9.07,1.47,9.08,1.48,-1.47,-0.04,-0.39,7.61,7.61,7.60
21.87,9.03,1.40,9.03,1.39,-1.40,-0.04,-0.40,7.63,7.63,7.63
22.09,8.96,1.30,8.96,1.30,-1.31,-0.05,-0.42,7.65,7.65,7.66
22.31,8.89,1.20,8.89,1.20,-1.21,-0.05,-0.43,7.68,7.68,7.68
22.54,8.81,1.10,8.81,1.10,-1.11,-0.05,-0.44,7.71,7.71,7.71
22.76,8.74,1.01,8.74,1.01,-1.01,-0.05,-0.45,7.73,7.73,7.73
22.99,8.68,0.92,8.68,0.92,-0.92,-0.06,-0.47,7.76,7.76,7.76
23.22,8.63,0.85,8.63,0.85,-0.85,-0.06,-0.48,7.77,7.77,7.78
23.45,8.59,0.79,8.59,0.79,-0.81,-0.06,-0.50,7.78,7.78,7.80
23.69,8.58,0.76,8.58,0.76,-0.79,-0.06,-0.51,7.79,7.79,7.82
23.92,8.60,0.76,8.60,0.76,-0.81,-0.07,-0.52,7.79,7.80,7.84
24.16,8.66,0.79,8.66,0.80,-0.84,-0.07,-0.54,7.81,7.82,7.86
24.40,8.74,0.86,8.75,0.86,-0.90,-0.08,-0.55,7.85,7.85,7.88
24.65,8.85,0.95,8.85,0.95,-0.96,-0.08,-0.57,7.89,7.89,7.90
24.89,8.96,1.04,8.96,1.04,-1.01,-0.08,-0.59,7.95,7.95,7.92
25.14,9.04,1.10,9.05,1.10,-1.05,-0.09,-0.60,7.99,8.00,7.94
25.39,9.10,1.14,9.09,1.13,-1.06,-0.09,-0.62,8.05,8.03,7.96
25.65,9.08,1.11,9.08,1.11,-1.03,-0.10,-0.63,8.05,8.06,7.98
25.91,9.03,1.03,9.03,1.03,-0.97,-0.11,-0.65,8.06,8.05,8.00
26.16,8.93,0.92,8.92,0.91,-0.89,-0.11,-0.66,8.04,8.04,8.01
26.43,8.80,0.77,8.80,0.77,-0.79,-0.12,-0.68,8.01,8.01,8.03
26.69,8.68,0.63,8.68,0.63,-0.69,-0.13,-0.69,7.99,7.99,8.04
26.96,8.58,0.52,8.59,0.53,-0.61,-0.14,-0.71,7.97,7.98,8.06
27.23,8.53,0.45,8.54,0.46,-0.53,-0.15,-0.72,8.00,8.01,8.08
27.50,8.54,0.44,8.54,0.44,-0.48,-0.16,-0.74,8.06,8.06,8.10
27.77,8.56,0.45,8.56,0.44,-0.44,-0.17,-0.75,8.12,8.12,8.11
28.05,8.58,0.46,8.58,0.45,-0.41,-0.18,-0.76,8.18,8.17,8.13
28.33,8.58,0.44,8.58,0.44,-0.38,-0.19,-0.77,8.20,8.20,8.14
28.62,8.56,0.41,8.56,0.40,-0.36,-0.21,-0.79,8.21,8.20,8.15
28.90,8.51,0.35,8.51,0.35,-0.33,-0.23,-0.80,8.18,8.18,8.16
29.19,8.46,0.29,8.46,0.29,-0.30,-0.25,-0.80,8.16,8.16,8.17
29.48,8.41,0.22,8.42,0.24,-0.27,-0.27,-0.81,8.14,8.15,8.18
29.78,8.40,0.21,8.40,0.21,-0.24,-0.29,-0.82,8.16,8.16,8.19
30.08,8.41,0.21,8.41,0.21,-0.22,-0.32,-0.83,8.19,8.19,8.20
30.38,8.44,0.23,8.44,0.23,-0.21,-0.35,-0.83,8.23,8.23,8.21
30.68,8.47,0.25,8.46,0.24,-0.22,-0.38,-0.83,8.25,8.25,8.22
30.99,8.49,0.26,8.49,0.26,-0.24,-0.42,-0.84,8.25,8.24,8.23
31.30,8.51,0.28,8.51,0.28,-0.29,-0.46,-0.84,8.22,8.22,8.23
31.61,8.55,0.31,8.56,0.31,-0.37,-0.51,-0.84,8.19,8.19,8.24
31.93,8.62,0.37,8.63,0.38,-0.45,-0.56,-0.84,8.17,8.18,8.25
32.24,8.75,0.49,8.75,0.49,-0.55,-0.62,-0.83,8.20,8.21,8.26
32.57,8.89,0.63,8.89,0.63,-0.64,-0.69,-0.83,8.25,8.26,8.26
32.89,9.04,0.77,9.04,0.77,-0.72,-0.75,-0.82,8.32,8.32,8.27
33.22,9.15,0.87,9.15,0.87,-0.79,-0.83,-0.82,8.36,8.36,8.28
33.55,9.22,0.94,9.21,0.92,-0.83,-0.90,-0.81,8.39,8.37,8.28
33.89,9.21,0.92,9.21,0.92,-0.85,-0.98,-0.80,8.36,8.35,8.29
34.23,9.16,0.87,9.16,0.87,-0.85,-1.05,-0.79,8.31,8.31,8.29
34.57,9.10,0.80,9.10,0.81,-0.84,-1.11,-0.78,8.26,8.26,8.30
34.92,9.05,0.75,9.06,0.76,-0.82,-1.16,-0.77,8.23,8.24,8.30
35.27,9.04,0.73,9.04,0.73,-0.81,-1.19,-0.76,8.23,8.23,8.31
35.62,9.06,0.75,9.06,0.75,-0.82,-1.20,-0.75,8.24,8.25,8.31
35.97,9.11,0.79,9.11,0.79,-0.83,-1.18,-0.74,8.28,8.28,8.32
36.33,9.17,0.85,9.17,0.85,-0.85,-1.15,-0.72,8.32,8.32,8.32
36.70,9.23,0.90,9.23,0.90,-0.86,-1.09,-0.71,8.36,8.36,8.32
37.06,9.26,0.93,9.25,0.93,-0.86,-1.03,-0.70,8.40,8.39,8.33
37.43,9.25,0.92,9.24,0.91,-0.83,-0.95,-0.68,8.41,8.40,8.33
37.81,9.18,0.85,9.18,0.85,-0.79,-0.88,-0.67,8.39,8.39,8.33
38.19,9.09,0.76,9.08,0.75,-0.72,-0.80,-0.66,8.37,8.37,8.33
38.57,8.96,0.63,8.96,0.63,-0.64,-0.73,-0.64,8.32,8.32,8.33
38.95,8.85,0.52,8.85,0.52,-0.57,-0.66,-0.63,8.28,8.28,8.33
39.34,8.75,0.43,8.76,0.43,-0.51,-0.60,-0.61,8.24,8.25,8.33
39.74,8.71,0.39,8.72,0.40,-0.48,-0.54,-0.60,8.24,8.25,8.32
40.14,8.73,0.41,8.73,0.41,-0.47,-0.49,-0.59,8.26,8.26,8.32
40.54,8.78,0.47,8.78,0.46,-0.48,-0.44,-0.57,8.30,8.29,8.31
40.94,8.85,0.53,8.84,0.53,-0.52,-0.40,-0.56,8.33,8.33,8.31
41.35,8.90,0.59,8.90,0.59,-0.56,-0.36,-0.55,8.34,8.34,8.31
41.76,8.94,0.64,8.94,0.63,-0.60,-0.33,-0.54,8.35,8.34,8.30
42.18,8.95,0.65,8.96,0.66,-0.62,-0.30,-0.53,8.33,8.33,8.30
42.60,8.95,0.66,8.95,0.66,-0.62,-0.28,-0.51,8.33,8.33,8.29
43.03,8.92,0.63,8.92,0.63,-0.60,-0.25,-0.50,8.32,8.32,8.29
43.46,8.86,0.58,8.86,0.58,-0.56,-0.23,-0.49,8.30,8.30,8.28
43.90,8.79,0.51,8.79,0.51,-0.51,-0.21,-0.48,8.28,8.28,8.27
44.33,8.70,0.43,8.70,0.44,-0.45,-0.20,-0.47,8.25,8.25,8.27
44.78,8.62,0.36,8.62,0.37,-0.40,-0.18,-0.46,8.21,8.22,8.25
45.23,8.55,0.31,8.56,0.31,-0.36,-0.17,-0.45,8.19,8.20,8.24
45.68,8.52,0.28,8.52,0.28,-0.32,-0.15,-0.44,8.20,8.20,8.24
46.13,8.51,0.27,8.51,0.27,-0.28,-0.14,-0.43,8.23,8.23,8.24
46.60,8.51,0.28,8.51,0.28,-0.25,-0.13,-0.43,8.27,8.27,8.24
47.06,8.50,0.28,8.50,0.28,-0.21,-0.12,-0.42,8.29,8.29,8.23
47.53,8.47,0.26,8.46,0.25,-0.18,-0.11,-0.41,8.29,8.28,8.21
48.01,8.40,0.19,8.40,0.19,-0.16,-0.10,-0.40,8.24,8.24,8.21
48.49,8.33,0.11,8.34,0.11,-0.15,-0.10,-0.40,8.18,8.19,8.22
48.97,8.29,0.06,8.29,0.07,-0.16,-0.09,-0.39,8.14,8.14,8.23
49.46,8.28,0.05,8.30,0.07,-0.17,-0.08,-0.38,8.11,8.13,8.23
49.96,8.33,0.14,8.34,0.14,-0.18,-0.08,-0.38,8.15,8.16,8.20
50.46,8.40,0.25,8.40,0.24,-0.20,-0.07,-0.37,8.20,8.20,8.16
50.96,8.46,0.33,8.45,0.32,-0.23,-0.07,-0.37,8.23,8.22,8.13
51.47,8.48,0.36,8.47,0.35,-0.26,-0.06,-0.36,8.22,8.21,8.12
51.99,8.45,0.33,8.45,0.33,-0.30,-0.06,-0.36,8.15,8.15,8.12
52.51,8.42,0.31,8.42,0.31,-0.34,-0.05,-0.35,8.08,8.08,8.11
53.03,8.39,0.29,8.40,0.30,-0.37,-0.05,-0.35,8.02,8.03,8.10
53.56,8.41,0.33,8.41,0.33,-0.40,-0.04,-0.34,8.01,8.02,8.08
54.10,8.45,0.39,8.45,0.39,-0.42,-0.04,-0.34,8.03,8.03,8.06
54.64,8.50,0.46,8.50,0.45,-0.44,-0.04,-0.33,8.06,8.06,8.04
55.18,8.54,0.51,8.53,0.50,-0.46,-0.03,-0.33,8.08,8.07,8.03
55.74,8.53,0.52,8.53,0.52,-0.47,-0.03,-0.32,8.07,8.07,8.02
56.29,8.51,0.50,8.51,0.50,-0.46,-0.03,-0.32,8.05,8.05,8.01
56.86,8.45,0.46,8.45,0.45,-0.43,-0.02,-0.31,8.03,8.03,8.00
57.42,8.37,0.39,8.37,0.39,-0.37,-0.02,-0.31,8.00,8.00,7.99
58.00,8.28,0.31,8.28,0.30,-0.30,-0.02,-0.30,7.98,7.98,7.98
58.58,8.18,0.21,8.18,0.21,-0.22,-0.02,-0.29,7.96,7.96,7.96
59.16,8.08,0.13,8.08,0.13,-0.14,-0.01,-0.29,7.93,7.93,7.95
59.76,7.99,0.05,7.99,0.05,-0.08,-0.01,-0.28,7.90,7.91,7.93
60.35,7.92,-0.00,7.92,-0.00,-0.04,-0.01,-0.27,7.88,7.88,7.92
60.96,7.87,-0.03,7.88,-0.02,-0.02,-0.00,-0.27,7.86,7.86,7.91
61.57,7.86,-0.02,7.86,-0.01,-0.01,-0.00,-0.26,7.85,7.85,7.88
62.18,7.87,0.02,7.87,0.02,-0.02,0.00,-0.25,7.85,7.85,7.85
62.80,7.88,0.06,7.88,0.06,-0.04,0.00,-0.24,7.84,7.84,7.82
63.43,7.89,0.09,7.89,0.09,-0.07,0.01,-0.23,7.82,7.82,7.80
64.07,7.89,0.12,7.89,0.11,-0.10,0.01,-0.22,7.80,7.80,7.78
64.71,7.88,0.13,7.89,0.13,-0.12,0.01,-0.21,7.77,7.77,7.75
65.35,7.87,0.14,7.87,0.14,-0.13,0.01,-0.20,7.74,7.74,7.73
66.01,7.85,0.15,7.85,0.15,-0.13,0.02,-0.19,7.72,7.71,7.70
66.67,7.82,0.14,7.81,0.14,-0.13,0.02,-0.18,7.69,7.69,7.68
67.33,7.77,0.13,7.77,0.12,-0.12,0.02,-0.17,7.65,7.65,7.65
68.01,7.73,0.10,7.73,0.11,-0.12,0.02,-0.16,7.61,7.61,7.62
68.69,7.68,0.09,7.69,0.09,-0.11,0.03,-0.15,7.57,7.58,7.60
69.37,7.66,0.09,7.66,0.09,-0.11,0.03,-0.13,7.55,7.55,7.57
70.07,7.64,0.09,7.64,0.10,-0.11,0.03,-0.12,7.53,7.53,7.54
70.77,7.63,0.12,7.63,0.11,-0.11,0.03,-0.11,7.52,7.52,7.51
71.48,7.62,0.13,7.61,0.13,-0.12,0.04,-0.09,7.50,7.50,7.48
72.19,7.60,0.14,7.59,0.14,-0.13,0.04,-0.08,7.47,7.47,7.46
72.91,7.57,0.14,7.57,0.14,-0.14,0.04,-0.06,7.43,7.43,7.43
73.64,7.54,0.15,7.54,0.15,-0.15,0.05,-0.05,7.39,7.39,7.40
74.38,7.52,0.15,7.52,0.15,-0.16,0.05,-0.03,7.36,7.36,7.36
75.12,7.50,0.16,7.50,0.16,-0.17,0.05,-0.02,7.33,7.33,7.33
75.87,7.47,0.17,7.47,0.17,-0.17,0.05,-0.00,7.30,7.30,7.30
76.63,7.45,0.18,7.45,0.18,-0.18,0.06,0.01,7.27,7.27,7.27
77.40,7.42,0.18,7.42,0.18,-0.18,0.06,0.03,7.24,7.24,7.24
78.17,7.38,0.18,7.38,0.18,-0.17,0.07,0.05,7.21,7.21,7.20
78.95,7.34,0.17,7.34,0.17,-0.16,0.07,0.06,7.18,7.18,7.17
79.74,7.28,0.15,7.28,0.15,-0.14,0.07,0.08,7.15,7.14,7.13
80.54,7.22,0.12,7.22,0.12,-0.11,0.08,0.10,7.10,7.10,7.09
81.35,7.14,0.09,7.14,0.09,-0.09,0.08,0.11,7.05,7.06,7.05
82.16,7.07,0.05,7.07,0.05,-0.07,0.09,0.13,7.01,7.01,7.02
82.98,7.01,0.02,7.01,0.02,-0.05,0.09,0.15,6.96,6.96,6.98
83.81,6.95,0.00,6.95,0.01,-0.03,0.10,0.17,6.92,6.92,6.94
84.65,6.90,0.00,6.91,0.00,-0.02,0.10,0.18,6.88,6.89,6.90
85.50,6.87,0.01,6.87,0.01,-0.01,0.11,0.20,6.86,6.86,6.86
86.35,6.84,0.02,6.84,0.02,-0.00,0.11,0.22,6.83,6.83,6.82
87.22,6.80,0.02,6.80,0.02,0.01,0.12,0.24,6.81,6.80,6.78
88.09,6.75,0.01,6.74,0.01,0.02,0.12,0.26,6.77,6.76,6.74
88.97,6.68,-0.01,6.68,-0.02,0.03,0.13,0.28,6.71,6.71,6.69
89.86,6.60,-0.05,6.60,-0.05,0.05,0.14,0.30,6.65,6.65,6.65
90.76,6.53,-0.08,6.53,-0.08,0.07,0.14,0.32,6.59,6.60,6.61
91.66,6.46,-0.11,6.46,-0.11,0.08,0.15,0.34,6.54,6.54,6.56
92.58,6.39,-0.12,6.40,-0.12,0.10,0.16,0.36,6.49,6.49,6.51
93.51,6.35,-0.12,6.35,-0.12,0.10,0.17,0.38,6.45,6.45,6.47
94.44,6.31,-0.12,6.31,-0.11,0.11,0.18,0.40,6.42,6.42,6.43
95.39,6.28,-0.10,6.28,-0.10,0.11,0.19,0.42,6.39,6.39,6.38
96.34,6.24,-0.09,6.24,-0.09,0.11,0.20,0.44,6.35,6.35,6.33
97.30,6.20,-0.09,6.19,-0.09,0.12,0.21,0.46,6.31,6.31,6.28
98.28,6.13,-0.11,6.13,-0.11,0.13,0.22,0.48,6.25,6.25,6.24
99.26,6.05,-0.14,6.05,-0.14,0.14,0.23,0.50,6.19,6.19,6.19
100.25,5.97,-0.18,5.97,-0.17,0.17,0.24,0.53,6.13,6.13,6.14
101.25,5.88,-0.21,5.88,-0.21,0.20,0.25,0.55,6.08,6.08,6.09
102.27,5.80,-0.24,5.80,-0.24,0.23,0.27,0.57,6.03,6.03,6.04
103.29,5.71,-0.28,5.71,-0.27,0.27,0.28,0.59,5.98,5.99,5.99
104.32,5.63,-0.31,5.62,-0.31,0.31,0.30,0.61,5.94,5.94,5.93
105.37,5.53,-0.34,5.53,-0.35,0.36,0.31,0.63,5.89,5.89,5.88
106.42,5.43,-0.39,5.43,-0.39,0.40,0.33,0.65,5.83,5.83,5.82
107.48,5.33,-0.44,5.33,-0.44,0.44,0.35,0.67,5.77,5.77,5.77
108.56,5.23,-0.48,5.23,-0.48,0.48,0.37,0.68,5.71,5.71,5.71
109.64,5.13,-0.52,5.13,-0.52,0.51,0.38,0.70,5.65,5.65,5.66
110.74,5.04,-0.56,5.04,-0.56,0.55,0.41,0.72,5.59,5.59,5.60
111.85,4.96,-0.59,4.96,-0.59,0.58,0.43,0.73,5.54,5.54,5.55
112.97,4.88,-0.61,4.88,-0.61,0.61,0.45,0.75,5.49,5.49,5.49
114.10,4.80,-0.63,4.80,-0.63,0.64,0.47,0.76,5.43,5.43,5.43
115.24,4.72,-0.66,4.72,-0.66,0.66,0.50,0.77,5.38,5.38,5.38
116.39,4.64,-0.68,4.64,-0.68,0.68,0.53,0.79,5.32,5.32,5.32
117.55,4.56,-0.70,4.56,-0.70,0.70,0.55,0.80,5.26,5.26,5.26
118.73,4.48,-0.72,4.49,-0.71,0.71,0.58,0.80,5.20,5.20,5.20
119.92,4.41,-0.73,4.41,-0.73,0.73,0.61,0.81,5.14,5.14,5.14
121.12,4.33,-0.75,4.33,-0.75,0.75,0.64,0.81,5.09,5.09,5.08
122.33,4.25,-0.77,4.25,-0.77,0.77,0.67,0.82,5.03,5.02,5.02
123.55,4.17,-0.79,4.17,-0.79,0.79,0.70,0.82,4.96,4.96,4.96
124.79,4.08,-0.81,4.08,-0.81,0.81,0.73,0.82,4.89,4.89,4.89
126.03,4.00,-0.83,4.00,-0.83,0.82,0.76,0.82,4.82,4.82,4.83
127.29,3.92,-0.85,3.92,-0.85,0.84,0.79,0.81,4.76,4.76,4.77
128.57,3.84,-0.86,3.84,-0.86,0.85,0.82,0.81,4.70,4.70,4.70
129.85,3.77,-0.86,3.77,-0.86,0.86,0.85,0.80,4.63,4.63,4.63
131.15,3.70,-0.87,3.70,-0.87,0.87,0.87,0.79,4.57,4.57,4.56
132.46,3.62,-0.88,3.62,-0.88,0.88,0.90,0.78,4.50,4.50,4.50
133.79,3.55,-0.88,3.55,-0.89,0.89,0.92,0.76,4.43,4.43,4.43
135.12,3.47,-0.89,3.47,-0.89,0.89,0.93,0.75,4.37,4.37,4.37
136.48,3.40,-0.90,3.40,-0.90,0.90,0.95,0.74,4.30,4.30,4.30
137.84,3.32,-0.90,3.32,-0.90,0.90,0.96,0.72,4.23,4.23,4.23
139.22,3.26,-0.90,3.26,-0.90,0.90,0.96,0.70,4.16,4.16,4.16
140.61,3.19,-0.90,3.19,-0.90,0.90,0.96,0.68,4.09,4.09,4.09
142.02,3.12,-0.90,3.12,-0.90,0.90,0.96,0.66,4.02,4.02,4.02
143.44,3.06,-0.89,3.06,-0.89,0.89,0.94,0.64,3.95,3.95,3.96
144.87,3.01,-0.88,3.01,-0.88,0.87,0.93,0.62,3.88,3.88,3.89
146.32,2.95,-0.86,2.95,-0.86,0.85,0.91,0.59,3.81,3.81,3.81
147.78,2.90,-0.83,2.90,-0.83,0.83,0.89,0.57,3.74,3.74,3.74
149.26,2.86,-0.80,2.86,-0.80,0.81,0.86,0.55,3.67,3.67,3.66
150.75,2.81,-0.77,2.81,-0.77,0.78,0.82,0.52,3.60,3.60,3.59
152.26,2.77,-0.75,2.77,-0.75,0.76,0.79,0.50,3.53,3.53,3.52
153.78,2.72,-0.73,2.72,-0.73,0.73,0.75,0.47,3.45,3.45,3.45
155.32,2.67,-0.71,2.67,-0.71,0.71,0.70,0.45,3.38,3.38,3.38
156.88,2.63,-0.68,2.63,-0.68,0.68,0.66,0.42,3.31,3.31,3.31
158.44,2.59,-0.65,2.59,-0.65,0.65,0.61,0.40,3.24,3.24,3.24
160.03,2.55,-0.62,2.55,-0.62,0.62,0.57,0.37,3.17,3.17,3.17
161.63,2.52,-0.59,2.52,-0.59,0.58,0.52,0.34,3.10,3.10,3.10
163.24,2.49,-0.55,2.49,-0.55,0.54,0.47,0.32,3.03,3.03,3.03
164.88,2.46,-0.50,2.46,-0.50,0.50,0.42,0.29,2.96,2.96,2.96
166.53,2.44,-0.45,2.44,-0.45,0.45,0.37,0.27,2.89,2.89,2.89
168.19,2.43,-0.39,2.43,-0.39,0.39,0.32,0.24,2.82,2.82,2.82
169.87,2.42,-0.33,2.42,-0.33,0.33,0.27,0.21,2.75,2.75,2.75
171.57,2.41,-0.27,2.41,-0.27,0.27,0.22,0.19,2.68,2.68,2.67
173.29,2.40,-0.20,2.40,-0.20,0.20,0.17,0.16,2.61,2.61,2.60
175.02,2.39,-0.14,2.39,-0.14,0.14,0.12,0.14,2.53,2.53,2.53
176.77,2.38,-0.08,2.38,-0.08,0.08,0.07,0.11,2.46,2.46,2.46
178.54,2.37,-0.02,2.37,-0.02,0.01,0.02,0.09,2.39,2.39,2.39
180.32,2.36,0.05,2.36,0.05,-0.04,-0.03,0.06,2.32,2.32,2.31
182.13,2.34,0.10,2.34,0.10,-0.10,-0.08,0.04,2.25,2.25,2.24
183.95,2.32,0.15,2.32,0.16,-0.15,-0.13,0.01,2.18,2.18,2.17
185.79,2.30,0.20,2.30,0.20,-0.20,-0.18,-0.01,2.10,2.10,2.10
187.65,2.27,0.25,2.27,0.24,-0.24,-0.23,-0.04,2.03,2.03,2.02
189.52,2.24,0.28,2.25,0.28,-0.28,-0.28,-0.06,1.96,1.96,1.96
191.42,2.23,0.32,2.23,0.32,-0.32,-0.33,-0.09,1.90,1.90,1.91
193.33,2.21,0.36,2.21,0.36,-0.37,-0.37,-0.11,1.85,1.85,1.86
195.27,2.21,0.40,2.21,0.40,-0.41,-0.42,-0.14,1.80,1.80,1.81
197.22,2.21,0.45,2.21,0.45,-0.46,-0.46,-0.16,1.76,1.76,1.77
199.19,2.22,0.50,2.22,0.50,-0.50,-0.50,-0.18,1.72,1.72,1.72
201.18,2.22,0.55,2.22,0.55,-0.55,-0.54,-0.21,1.68,1.68,1.67
203.19,2.23,0.59,2.23,0.59,-0.59,-0.58,-0.23,1.64,1.64,1.63
205.23,2.23,0.64,2.23,0.64,-0.63,-0.61,-0.26,1.60,1.60,1.59
207.28,2.23,0.67,2.23,0.67,-0.66,-0.64,-0.28,1.57,1.57,1.56
209.35,2.23,0.69,2.23,0.69,-0.69,-0.66,-0.30,1.54,1.54,1.54
211.44,2.23,0.70,2.23,0.71,-0.71,-0.68,-0.32,1.52,1.52,1.52
213.56,2.21,0.72,2.21,0.72,-0.72,-0.70,-0.35,1.49,1.49,1.49
215.69,2.18,0.73,2.19,0.73,-0.72,-0.71,-0.37,1.46,1.46,1.46
217.85,2.15,0.74,2.15,0.73,-0.72,-0.71,-0.39,1.43,1.43,1.42
220.03,2.11,0.72,2.11,0.72,-0.71,-0.72,-0.41,1.40,1.40,1.39
222.23,2.06,0.70,2.06,0.70,-0.70,-0.72,-0.43,1.36,1.36,1.35
224.45,2.00,0.69,2.00,0.69,-0.69,-0.71,-0.45,1.31,1.31,1.31
226.70,1.94,0.67,1.94,0.67,-0.68,-0.71,-0.47,1.27,1.27,1.27
228.96,1.89,0.66,1.89,0.65,-0.67,-0.70,-0.49,1.22,1.22,1.23
231.25,1.84,0.65,1.84,0.65,-0.66,-0.69,-0.51,1.18,1.18,1.20
233.57,1.80,0.64,1.80,0.65,-0.65,-0.68,-0.52,1.15,1.15,1.16
235.90,1.77,0.65,1.77,0.65,-0.65,-0.67,-0.54,1.12,1.12,1.12
238.26,1.74,0.66,1.74,0.66,-0.66,-0.66,-0.56,1.09,1.08,1.08
240.64,1.72,0.67,1.72,0.67,-0.66,-0.65,-0.57,1.05,1.05,1.05
243.05,1.69,0.67,1.69,0.67,-0.67,-0.64,-0.58,1.02,1.02,1.01
245.48,1.65,0.67,1.65,0.68,-0.67,-0.63,-0.60,0.98,0.98,0.98
247.93,1.62,0.67,1.62,0.67,-0.67,-0.62,-0.61,0.95,0.95,0.95
250.41,1.59,0.67,1.59,0.67,-0.67,-0.61,-0.62,0.92,0.92,0.92
252.92,1.55,0.66,1.55,0.66,-0.66,-0.60,-0.63,0.89,0.89,0.89
255.45,1.52,0.66,1.52,0.66,-0.66,-0.59,-0.64,0.86,0.86,0.86
258.00,1.48,0.65,1.48,0.65,-0.65,-0.59,-0.65,0.83,0.83,0.84
260.58,1.45,0.64,1.45,0.64,-0.64,-0.58,-0.66,0.81,0.81,0.81
263.19,1.42,0.63,1.42,0.63,-0.63,-0.58,-0.67,0.79,0.79,0.79
265.82,1.40,0.62,1.40,0.62,-0.62,-0.58,-0.67,0.77,0.77,0.77
268.48,1.37,0.62,1.37,0.62,-0.61,-0.57,-0.68,0.75,0.75,0.75
271.16,1.34,0.61,1.34,0.60,-0.60,-0.57,-0.69,0.73,0.73,0.73
273.87,1.31,0.59,1.31,0.59,-0.59,-0.57,-0.69,0.72,0.72,0.72
276.61,1.28,0.58,1.28,0.58,-0.59,-0.57,-0.70,0.70,0.70,0.70
279.38,1.26,0.58,1.26,0.58,-0.58,-0.57,-0.70,0.68,0.68,0.68
282.17,1.24,0.57,1.24,0.57,-0.57,-0.58,-0.70,0.67,0.67,0.67
284.99,1.22,0.56,1.22,0.56,-0.56,-0.58,-0.71,0.66,0.66,0.66
287.84,1.20,0.56,1.20,0.56,-0.55,-0.58,-0.71,0.65,0.65,0.65
290.72,1.18,0.55,1.18,0.55,-0.55,-0.58,-0.72,0.64,0.63,0.63
293.63,1.17,0.55,1.17,0.55,-0.54,-0.59,-0.72,0.62,0.62,0.62
296.57,1.15,0.54,1.15,0.54,-0.54,-0.59,-0.72,0.61,0.61,0.61
299.53,1.14,0.54,1.14,0.54,-0.54,-0.60,-0.73,0.60,0.60,0.60
302.53,1.13,0.53,1.13,0.54,-0.54,-0.61,-0.73,0.59,0.59,0.59
305.55,1.12,0.54,1.12,0.54,-0.54,-0.61,-0.74,0.58,0.58,0.58
308.61,1.12,0.54,1.12,0.54,-0.54,-0.62,-0.74,0.58,0.58,0.58
311.69,1.11,0.54,1.11,0.54,-0.54,-0.63,-0.75,0.57,0.57,0.57
314.81,1.12,0.55,1.12,0.55,-0.55,-0.64,-0.75,0.57,0.57,0.57
317.96,1.12,0.56,1.12,0.56,-0.56,-0.65,-0.76,0.56,0.56,0.56
321.14,1.13,0.57,1.13,0.56,-0.57,-0.66,-0.77,0.56,0.56,0.56
324.35,1.14,0.57,1.14,0.58,-0.58,-0.66,-0.77,0.56,0.56,0.56
327.59,1.15,0.59,1.15,0.59,-0.59,-0.67,-0.78,0.56,0.56,0.56
330.87,1.16,0.61,1.16,0.60,-0.60,-0.68,-0.79,0.56,0.56,0.55
334.18,1.17,0.62,1.17,0.62,-0.62,-0.70,-0.80,0.56,0.56,0.56
337.52,1.19,0.63,1.19,0.63,-0.63,-0.71,-0.81,0.56,0.56,0.56
340.90,1.20,0.65,1.20,0.65,-0.65,-0.72,-0.82,0.56,0.56,0.56
344.30,1.22,0.66,1.22,0.66,-0.67,-0.73,-0.83,0.56,0.56,0.56
347.75,1.24,0.68,1.24,0.68,-0.68,-0.74,-0.84,0.56,0.56,0.56
351.23,1.26,0.70,1.26,0.70,-0.70,-0.75,-0.86,0.56,0.56,0.56
354.74,1.28,0.72,1.28,0.72,-0.72,-0.77,-0.87,0.56,0.56,0.56
358.28,1.31,0.74,1.31,0.74,-0.74,-0.78,-0.88,0.57,0.57,0.56
361.87,1.33,0.76,1.33,0.76,-0.76,-0.79,-0.90,0.57,0.57,0.57
365.49,1.35,0.78,1.35,0.78,-0.78,-0.80,-0.91,0.57,0.57,0.57
369.14,1.37,0.80,1.37,0.80,-0.80,-0.82,-0.93,0.58,0.58,0.58
372.83,1.40,0.82,1.40,0.82,-0.82,-0.83,-0.95,0.58,0.58,0.58
376.56,1.42,0.84,1.42,0.84,-0.84,-0.84,-0.96,0.59,0.59,0.59
380.33,1.45,0.86,1.45,0.86,-0.86,-0.86,-0.98,0.59,0.59,0.59
384.13,1.47,0.87,1.47,0.88,-0.88,-0.87,-1.00,0.60,0.60,0.60
387.97,1.50,0.90,1.50,0.90,-0.90,-0.89,-1.02,0.60,0.60,0.60
391.85,1.52,0.92,1.52,0.92,-0.92,-0.90,-1.04,0.61,0.61,0.61
395.77,1.55,0.94,1.55,0.94,-0.94,-0.91,-1.06,0.61,0.61,0.61
399.73,1.57,0.96,1.57,0.96,-0.96,-0.93,-1.08,0.61,0.61,0.61
403.72,1.59,0.98,1.59,0.98,-0.98,-0.94,-1.10,0.61,0.61,0.62
407.76,1.62,1.00,1.62,1.00,-1.00,-0.96,-1.12,0.62,0.62,0.62
411.84,1.64,1.02,1.64,1.02,-1.02,-0.97,-1.14,0.62,0.62,0.62
415.96,1.66,1.04,1.66,1.04,-1.04,-0.98,-1.16,0.62,0.62,0.62
420.12,1.68,1.06,1.68,1.06,-1.06,-1.00,-1.18,0.62,0.62,0.62
424.32,1.70,1.08,1.70,1.08,-1.08,-1.01,-1.20,0.62,0.62,0.62
428.56,1.71,1.10,1.71,1.10,-1.09,-1.02,-1.22,0.62,0.62,0.62
432.85,1.73,1.11,1.73,1.11,-1.11,-1.04,-1.24,0.62,0.62,0.62
437.18,1.74,1.12,1.74,1.12,-1.12,-1.05,-1.26,0.62,0.62,0.62
441.55,1.75,1.14,1.75,1.14,-1.14,-1.06,-1.27,0.61,0.61,0.61
445.96,1.76,1.15,1.76,1.15,-1.15,-1.08,-1.29,0.61,0.61,0.61
450.42,1.77,1.16,1.77,1.16,-1.16,-1.09,-1.30,0.61,0.61,0.61
454.93,1.78,1.17,1.78,1.17,-1.17,-1.10,-1.32,0.61,0.61,0.61
459.48,1.79,1.18,1.79,1.18,-1.18,-1.11,-1.33,0.60,0.60,0.61
464.07,1.79,1.19,1.79,1.19,-1.19,-1.12,-1.34,0.60,0.60,0.60
468.71,1.80,1.20,1.80,1.20,-1.20,-1.13,-1.35,0.60,0.60,0.59
473.40,1.80,1.21,1.80,1.21,-1.21,-1.14,-1.35,0.59,0.59,0.59
478.13,1.81,1.22,1.81,1.22,-1.22,-1.15,-1.36,0.59,0.59,0.59
482.91,1.81,1.23,1.81,1.23,-1.23,-1.16,-1.36,0.58,0.58,0.58
487.74,1.81,1.23,1.81,1.23,-1.23,-1.17,-1.36,0.58,0.58,0.58
492.62,1.81,1.24,1.81,1.24,-1.24,-1.18,-1.35,0.57,0.57,0.57
497.55,1.80,1.24,1.80,1.24,-1.24,-1.18,-1.35,0.56,0.56,0.56
502.52,1.80,1.24,1.80,1.24,-1.24,-1.19,-1.34,0.55,0.56,0.56
507.55,1.79,1.24,1.79,1.24,-1.24,-1.19,-1.33,0.55,0.55,0.55
512.62,1.78,1.24,1.78,1.24,-1.24,-1.20,-1.32,0.54,0.54,0.54
517.75,1.77,1.24,1.77,1.24,-1.24,-1.20,-1.30,0.53,0.53,0.53
522.93,1.76,1.24,1.76,1.24,-1.24,-1.20,-1.28,0.52,0.52,0.52
528.16,1.75,1.23,1.75,1.24,-1.24,-1.20,-1.26,0.51,0.51,0.51
533.44,1.73,1.23,1.73,1.23,-1.23,-1.20,-1.24,0.50,0.50,0.50
538.77,1.72,1.22,1.72,1.22,-1.22,-1.20,-1.21,0.50,0.50,0.50
544.16,1.70,1.21,1.70,1.21,-1.21,-1.20,-1.19,0.50,0.50,0.49
549.60,1.69,1.19,1.69,1.19,-1.19,-1.20,-1.16,0.50,0.50,0.50
555.10,1.67,1.17,1.67,1.17,-1.17,-1.19,-1.13,0.50,0.50,0.50
