frequency,raw,error,smoothed,error_smoothed,equalization,parametric_eq,fixed_band_eq,equalized_raw,equalized_smoothed,target
20.00,6.31,-6.59,6.31,-6.59,5.97,5.85,1.91,12.27,12.27,12.90
20.20,6.36,-6.53,6.36,-6.53,5.99,6.04,1.97,12.35,12.35,12.89
20.40,6.41,-6.48,6.41,-6.48,6.01,6.22,2.03,12.42,12.42,12.89
20.61,6.47,-6.42,6.47,-6.42,6.02,6.26,2.09,12.49,12.49,12.88
20.81,6.52,-6.36,6.52,-6.36,6.03,6.30,2.15,12.54,12.54,12.88
21.02,6.57,-6.30,6.57,-6.30,6.03,6.24,2.22,12.60,12.60,12.87
21.23,6.62,-6.24,6.62,-6.24,6.02,6.17,2.28,12.64,12.64,12.86
21.44,6.67,-6.18,6.67,-6.18,6.01,6.07,2.35,12.68,12.68,12.85
21.66,6.72,-6.12,6.72,-6.12,6.00,5.97,2.42,12.72,12.72,12.84
21.87,6.77,-6.06,6.77,-6.06,5.98,5.88,2.49,12.75,12.75,12.83
22.09,6.82,-5.99,6.82,-5.99,5.95,5.79,2.57,12.78,12.78,12.82
22.31,6.87,-5.93,6.87,-5.93,5.91,5.72,2.65,12.79,12.79,12.80
22.54,6.92,-5.86,6.92,-5.86,5.87,5.65,2.72,12.79,12.79,12.79
22.76,6.97,-5.80,6.97,-5.80,5.81,5.60,2.81,12.78,12.78,12.77
22.99,7.02,-5.74,7.02,-5.74,5.75,5.55,2.89,12.77,12.77,12.76
23.22,7.07,-5.67,7.07,-5.67,5.68,5.52,2.97,12.75,12.75,12.74
23.45,7.12,-5.61,7.12,-5.61,5.61,5.48,3.06,12.73,12.73,12.73
23.69,7.17,-5.54,7.17,-5.54,5.54,5.45,3.15,12.71,12.71,12.71
23.92,7.22,-5.47,7.22,-5.47,5.47,5.41,3.24,12.69,12.69,12.69
24.16,7.26,-5.40,7.26,-5.40,5.40,5.38,3.33,12.67,12.67,12.67
24.40,7.31,-5.33,7.31,-5.33,5.33,5.34,3.42,12.64,12.64,12.64
24.65,7.36,-5.26,7.36,-5.26,5.26,5.29,3.51,12.62,12.62,12.62
24.89,7.41,-5.19,7.41,-5.19,5.19,5.25,3.61,12.60,12.60,12.60
25.14,7.45,-5.12,7.45,-5.12,5.12,5.19,3.71,12.57,12.57,12.57
25.39,7.50,-5.05,7.50,-5.05,5.05,5.14,3.80,12.54,12.54,12.54
25.65,7.54,-4.97,7.54,-4.98,4.97,5.07,3.90,12.52,12.52,12.52
25.91,7.59,-4.90,7.59,-4.90,4.90,5.01,3.99,12.49,12.49,12.49
26.16,7.63,-4.83,7.63,-4.83,4.83,4.94,4.09,12.46,12.46,12.46
26.43,7.67,-4.76,7.67,-4.76,4.76,4.86,4.18,12.43,12.43,12.43
26.69,7.72,-4.68,7.72,-4.68,4.69,4.78,4.27,12.40,12.40,12.40
26.96,7.76,-4.61,7.76,-4.61,4.61,4.70,4.36,12.37,12.37,12.37
27.23,7.80,-4.54,7.80,-4.54,4.54,4.62,4.45,12.34,12.34,12.34
27.50,7.84,-4.47,7.84,-4.47,4.47,4.54,4.54,12.31,12.31,12.31
27.77,7.88,-4.40,7.88,-4.40,4.40,4.45,4.62,12.28,12.28,12.28
28.05,7.92,-4.32,7.92,-4.32,4.32,4.36,4.69,12.24,12.24,12.25
28.33,7.96,-4.25,7.96,-4.25,4.25,4.27,4.76,12.21,12.21,12.21
28.62,8.00,-4.17,8.00,-4.17,4.17,4.19,4.83,12.17,12.17,12.17
28.90,8.04,-4.10,8.04,-4.10,4.10,4.10,4.88,12.14,12.14,12.14
29.19,8.08,-4.02,8.08,-4.02,4.03,4.01,4.94,12.10,12.10,12.10
29.48,8.11,-3.95,8.11,-3.95,3.95,3.93,4.98,12.07,12.07,12.06
29.78,8.15,-3.88,8.15,-3.88,3.88,3.84,5.02,12.03,12.03,12.03
30.08,8.19,-3.81,8.19,-3.81,3.81,3.76,5.04,11.99,11.99,11.99
30.38,8.22,-3.73,8.22,-3.73,3.73,3.68,5.06,11.96,11.96,11.96
30.68,8.26,-3.66,8.26,-3.66,3.66,3.60,5.06,11.92,11.92,11.92
30.99,8.29,-3.59,8.29,-3.59,3.59,3.52,5.06,11.88,11.88,11.88
31.30,8.33,-3.52,8.33,-3.52,3.51,3.44,5.05,11.84,11.84,11.84
31.61,8.36,-3.44,8.36,-3.44,3.44,3.37,5.03,11.80,11.80,11.80
31.93,8.40,-3.37,8.40,-3.37,3.37,3.29,4.99,11.76,11.76,11.76
32.24,8.43,-3.29,8.43,-3.29,3.29,3.22,4.95,11.72,11.72,11.72
32.57,8.46,-3.22,8.46,-3.22,3.22,3.15,4.89,11.68,11.68,11.68
32.89,8.49,-3.14,8.49,-3.14,3.14,3.08,4.83,11.64,11.64,11.64
33.22,8.53,-3.07,8.53,-3.07,3.07,3.01,4.76,11.59,11.59,11.59
33.55,8.56,-3.00,8.56,-3.00,2.99,2.94,4.68,11.55,11.55,11.55
33.89,8.59,-2.92,8.59,-2.92,2.92,2.88,4.59,11.51,11.51,11.51
34.23,8.62,-2.85,8.62,-2.85,2.85,2.81,4.50,11.46,11.46,11.46
34.57,8.65,-2.77,8.65,-2.77,2.77,2.75,4.39,11.42,11.42,11.42
34.92,8.68,-2.70,8.68,-2.70,2.70,2.68,4.29,11.38,11.38,11.38
35.27,8.71,-2.63,8.71,-2.63,2.63,2.61,4.17,11.33,11.33,11.33
35.62,8.73,-2.56,8.73,-2.56,2.56,2.55,4.06,11.29,11.29,11.29
35.97,8.76,-2.49,8.76,-2.49,2.48,2.48,3.93,11.25,11.25,11.25
36.33,8.79,-2.42,8.79,-2.41,2.41,2.42,3.81,11.20,11.20,11.20
36.70,8.81,-2.34,8.81,-2.34,2.34,2.35,3.68,11.15,11.15,11.16
37.06,8.84,-2.27,8.84,-2.27,2.27,2.28,3.55,11.11,11.11,11.11
37.43,8.87,-2.19,8.87,-2.19,2.20,2.22,3.41,11.06,11.06,11.06
37.81,8.89,-2.12,8.89,-2.12,2.12,2.15,3.28,11.01,11.01,11.01
38.19,8.91,-2.05,8.91,-2.05,2.05,2.08,3.14,10.97,10.97,10.96
38.57,8.94,-1.98,8.94,-1.98,1.98,2.01,3.01,10.92,10.92,10.92
38.95,8.96,-1.91,8.96,-1.91,1.91,1.94,2.87,10.87,10.87,10.87
39.34,8.98,-1.84,8.98,-1.84,1.84,1.87,2.73,10.82,10.82,10.82
39.74,9.01,-1.77,9.01,-1.76,1.76,1.79,2.59,10.77,10.77,10.77
40.14,9.03,-1.69,9.03,-1.69,1.69,1.72,2.46,10.72,10.72,10.72
40.54,9.05,-1.62,9.05,-1.62,1.62,1.65,2.32,10.67,10.67,10.67
40.94,9.07,-1.54,9.07,-1.54,1.54,1.57,2.18,10.61,10.61,10.61
41.35,9.09,-1.47,9.09,-1.47,1.47,1.49,2.04,10.56,10.56,10.56
41.76,9.11,-1.39,9.11,-1.39,1.39,1.42,1.91,10.50,10.50,10.50
42.18,9.13,-1.32,9.13,-1.32,1.32,1.34,1.77,10.44,10.44,10.44
42.60,9.14,-1.24,9.14,-1.24,1.24,1.26,1.64,10.39,10.39,10.39
43.03,9.16,-1.17,9.16,-1.17,1.17,1.18,1.51,10.33,10.33,10.33
43.46,9.18,-1.09,9.18,-1.09,1.09,1.10,1.38,10.27,10.27,10.27
43.90,9.19,-1.01,9.20,-1.01,1.02,1.02,1.24,10.21,10.21,10.21
44.33,9.21,-0.94,9.21,-0.94,0.94,0.93,1.11,10.15,10.15,10.15
44.78,9.23,-0.86,9.23,-0.86,0.86,0.85,0.98,10.09,10.09,10.09
45.23,9.24,-0.79,9.24,-0.79,0.79,0.77,0.86,10.03,10.03,10.03
45.68,9.26,-0.71,9.26,-0.71,0.71,0.68,0.73,9.96,9.96,9.97
46.13,9.27,-0.63,9.27,-0.63,0.63,0.60,0.60,9.90,9.90,9.90
46.60,9.28,-0.55,9.28,-0.55,0.55,0.52,0.48,9.84,9.84,9.84
47.06,9.29,-0.48,9.30,-0.47,0.47,0.43,0.35,9.77,9.77,9.77
47.53,9.31,-0.39,9.31,-0.39,0.40,0.35,0.23,9.70,9.70,9.70
48.01,9.32,-0.31,9.32,-0.31,0.32,0.27,0.10,9.63,9.63,9.63
48.49,9.33,-0.23,9.33,-0.23,0.23,0.18,-0.02,9.56,9.56,9.56
48.97,9.34,-0.15,9.34,-0.15,0.15,0.10,-0.14,9.49,9.49,9.49
49.46,9.35,-0.07,9.35,-0.07,0.07,0.02,-0.26,9.42,9.42,9.42
49.96,9.36,0.01,9.36,0.01,-0.01,-0.07,-0.38,9.35,9.35,9.35
50.46,9.37,0.09,9.37,0.09,-0.09,-0.15,-0.50,9.28,9.28,9.28
50.96,9.38,0.17,9.38,0.17,-0.17,-0.23,-0.61,9.20,9.20,9.20
51.47,9.38,0.26,9.38,0.26,-0.26,-0.31,-0.73,9.13,9.13,9.13
51.99,9.39,0.34,9.39,0.34,-0.34,-0.40,-0.84,9.05,9.05,9.05
52.51,9.40,0.42,9.40,0.42,-0.42,-0.48,-0.95,8.98,8.98,8.98
53.03,9.40,0.51,9.40,0.51,-0.51,-0.56,-1.06,8.90,8.90,8.90
53.56,9.41,0.59,9.41,0.59,-0.59,-0.64,-1.17,8.82,8.82,8.82
54.10,9.41,0.67,9.41,0.67,-0.67,-0.72,-1.28,8.74,8.74,8.74
54.64,9.42,0.76,9.42,0.76,-0.76,-0.80,-1.38,8.66,8.66,8.66
55.18,9.42,0.84,9.42,0.84,-0.84,-0.88,-1.49,8.58,8.58,8.58
55.74,9.43,0.93,9.43,0.93,-0.92,-0.96,-1.58,8.50,8.50,8.50
56.29,9.43,1.01,9.43,1.01,-1.01,-1.04,-1.68,8.42,8.42,8.42
56.86,9.43,1.09,9.43,1.09,-1.09,-1.11,-1.77,8.34,8.34,8.34
57.42,9.43,1.17,9.43,1.17,-1.17,-1.19,-1.86,8.26,8.26,8.26
58.00,9.43,1.25,9.43,1.25,-1.25,-1.27,-1.95,8.18,8.18,8.18
58.58,9.43,1.34,9.43,1.34,-1.33,-1.34,-2.03,8.10,8.10,8.10
59.16,9.43,1.42,9.43,1.42,-1.41,-1.42,-2.11,8.02,8.02,8.01
59.76,9.43,1.50,9.43,1.50,-1.49,-1.50,-2.19,7.94,7.94,7.93
60.35,9.43,1.58,9.43,1.58,-1.57,-1.57,-2.26,7.86,7.86,7.85
60.96,9.43,1.65,9.43,1.65,-1.65,-1.65,-2.33,7.77,7.77,7.78
61.57,9.43,1.73,9.43,1.73,-1.73,-1.72,-2.39,7.69,7.69,7.70
62.18,9.42,1.81,9.42,1.81,-1.81,-1.79,-2.45,7.61,7.61,7.61
62.80,9.42,1.89,9.42,1.89,-1.89,-1.87,-2.51,7.53,7.53,7.53
63.43,9.41,1.97,9.41,1.97,-1.96,-1.94,-2.56,7.45,7.45,7.45
64.07,9.41,2.04,9.41,2.04,-2.04,-2.01,-2.60,7.37,7.37,7.37
64.71,9.40,2.11,9.40,2.11,-2.11,-2.08,-2.64,7.29,7.29,7.29
65.35,9.40,2.19,9.40,2.19,-2.19,-2.15,-2.68,7.21,7.21,7.21
66.01,9.39,2.26,9.39,2.26,-2.26,-2.22,-2.72,7.13,7.13,7.13
66.67,9.38,2.33,9.38,2.33,-2.33,-2.29,-2.75,7.05,7.05,7.05
67.33,9.37,2.40,9.37,2.40,-2.40,-2.36,-2.78,6.98,6.98,6.98
68.01,9.37,2.47,9.37,2.47,-2.47,-2.43,-2.81,6.90,6.90,6.90
68.69,9.36,2.54,9.36,2.54,-2.54,-2.50,-2.83,6.82,6.82,6.82
69.37,9.35,2.61,9.35,2.61,-2.61,-2.57,-2.85,6.74,6.74,6.74
70.07,9.34,2.67,9.34,2.67,-2.68,-2.64,-2.87,6.66,6.66,6.66
70.77,9.33,2.74,9.33,2.74,-2.74,-2.71,-2.89,6.58,6.58,6.58
71.48,9.32,2.81,9.32,2.81,-2.81,-2.77,-2.91,6.50,6.50,6.50
72.19,9.30,2.88,9.30,2.88,-2.88,-2.84,-2.92,6.43,6.43,6.42
72.91,9.29,2.95,9.29,2.95,-2.94,-2.90,-2.94,6.35,6.35,6.34
73.64,9.28,3.01,9.28,3.01,-3.01,-2.97,-2.95,6.27,6.27,6.27
74.38,9.26,3.07,9.26,3.07,-3.07,-3.03,-2.97,6.19,6.19,6.19
75.12,9.25,3.13,9.25,3.13,-3.13,-3.10,-2.99,6.12,6.12,6.12
75.87,9.24,3.19,9.24,3.19,-3.19,-3.16,-3.00,6.04,6.04,6.04
76.63,9.22,3.25,9.22,3.25,-3.25,-3.23,-3.02,5.97,5.97,5.97
77.40,9.21,3.31,9.21,3.31,-3.31,-3.29,-3.04,5.89,5.89,5.89
78.17,9.19,3.37,9.19,3.37,-3.37,-3.35,-3.06,5.82,5.82,5.82
78.95,9.17,3.43,9.17,3.43,-3.43,-3.41,-3.08,5.74,5.74,5.74
79.74,9.16,3.49,9.16,3.49,-3.49,-3.47,-3.10,5.67,5.67,5.67
80.54,9.14,3.54,9.14,3.54,-3.54,-3.53,-3.13,5.59,5.59,5.59
81.35,9.12,3.60,9.12,3.60,-3.60,-3.59,-3.15,5.52,5.52,5.52
82.16,9.10,3.66,9.10,3.66,-3.66,-3.65,-3.18,5.44,5.44,5.44
82.98,9.08,3.71,9.08,3.71,-3.71,-3.71,-3.21,5.37,5.37,5.37
83.81,9.06,3.76,9.06,3.76,-3.76,-3.76,-3.25,5.30,5.30,5.30
84.65,9.04,3.81,9.04,3.81,-3.81,-3.82,-3.28,5.22,5.22,5.22
85.50,9.02,3.86,9.02,3.86,-3.86,-3.87,-3.32,5.15,5.15,5.15
86.35,9.00,3.92,9.00,3.91,-3.91,-3.93,-3.36,5.08,5.08,5.08
87.22,8.97,3.96,8.97,3.96,-3.96,-3.98,-3.41,5.01,5.01,5.01
88.09,8.95,4.01,8.95,4.01,-4.01,-4.03,-3.45,4.94,4.94,4.94
88.97,8.92,4.06,8.92,4.06,-4.06,-4.08,-3.50,4.86,4.86,4.86
89.86,8.90,4.11,8.90,4.11,-4.11,-4.13,-3.55,4.79,4.79,4.79
90.76,8.88,4.16,8.88,4.16,-4.16,-4.18,-3.61,4.72,4.72,4.72
91.66,8.85,4.20,8.85,4.20,-4.20,-4.23,-3.67,4.65,4.65,4.65
92.58,8.82,4.25,8.82,4.25,-4.25,-4.27,-3.73,4.58,4.58,4.58
93.51,8.80,4.29,8.80,4.29,-4.29,-4.32,-3.79,4.51,4.51,4.50
94.44,8.77,4.34,8.77,4.34,-4.34,-4.36,-3.86,4.44,4.44,4.43
95.39,8.74,4.38,8.74,4.38,-4.38,-4.41,-3.92,4.37,4.37,4.36
96.34,8.72,4.42,8.72,4.42,-4.42,-4.45,-3.99,4.30,4.30,4.30
97.30,8.69,4.45,8.69,4.45,-4.45,-4.49,-4.07,4.23,4.23,4.23
98.28,8.66,4.49,8.66,4.49,-4.49,-4.53,-4.14,4.17,4.17,4.17
99.26,8.63,4.53,8.63,4.53,-4.53,-4.56,-4.22,4.10,4.10,4.11
100.25,8.60,4.56,8.60,4.56,-4.56,-4.60,-4.29,4.04,4.04,4.04
101.25,8.57,4.59,8.57,4.59,-4.59,-4.63,-4.37,3.98,3.98,3.98
102.27,8.54,4.62,8.54,4.62,-4.62,-4.67,-4.45,3.92,3.92,3.92
103.29,8.51,4.65,8.51,4.65,-4.65,-4.70,-4.54,3.86,3.86,3.86
104.32,8.48,4.68,8.48,4.68,-4.68,-4.73,-4.62,3.80,3.80,3.80
105.37,8.45,4.71,8.45,4.71,-4.71,-4.75,-4.70,3.74,3.74,3.74
106.42,8.42,4.74,8.42,4.74,-4.74,-4.78,-4.78,3.68,3.68,3.68
107.48,8.39,4.76,8.39,4.76,-4.76,-4.81,-4.86,3.63,3.63,3.63
108.56,8.36,4.79,8.36,4.79,-4.79,-4.83,-4.94,3.57,3.57,3.57
109.64,8.32,4.81,8.32,4.81,-4.81,-4.85,-5.02,3.51,3.51,3.51
110.74,8.29,4.83,8.29,4.83,-4.83,-4.87,-5.09,3.46,3.46,3.46
111.85,8.26,4.86,8.26,4.86,-4.85,-4.89,-5.17,3.40,3.40,3.40
112.97,8.22,4.87,8.22,4.87,-4.87,-4.90,-5.23,3.35,3.35,3.35
114.10,8.19,4.89,8.19,4.89,-4.89,-4.92,-5.30,3.30,3.30,3.30
115.24,8.15,4.91,8.15,4.90,-4.90,-4.93,-5.36,3.25,3.25,3.25
116.39,8.12,4.92,8.12,4.92,-4.92,-4.94,-5.41,3.20,3.20,3.20
117.55,8.08,4.93,8.08,4.93,-4.93,-4.95,-5.46,3.15,3.15,3.15
118.73,8.04,4.93,8.04,4.93,-4.94,-4.95,-5.51,3.11,3.11,3.11
119.92,8.01,4.94,8.01,4.94,-4.94,-4.96,-5.54,3.06,3.06,3.06
121.12,7.97,4.95,7.97,4.95,-4.95,-4.96,-5.57,3.02,3.02,3.02
122.33,7.93,4.96,7.93,4.96,-4.96,-4.96,-5.59,2.98,2.98,2.97
123.55,7.89,4.96,7.89,4.96,-4.96,-4.96,-5.61,2.93,2.93,2.93
124.79,7.85,4.96,7.85,4.96,-4.96,-4.96,-5.61,2.89,2.89,2.89
126.03,7.81,4.96,7.81,4.96,-4.96,-4.96,-5.61,2.85,2.85,2.85
127.29,7.77,4.96,7.77,4.96,-4.96,-4.95,-5.60,2.81,2.81,2.81
128.57,7.73,4.95,7.73,4.95,-4.95,-4.94,-5.59,2.78,2.78,2.78
129.85,7.69,4.95,7.69,4.95,-4.95,-4.93,-5.56,2.74,2.74,2.74
131.15,7.65,4.94,7.65,4.94,-4.94,-4.92,-5.54,2.71,2.71,2.70
132.46,7.60,4.93,7.60,4.93,-4.93,-4.91,-5.50,2.67,2.67,2.67
133.79,7.56,4.92,7.56,4.92,-4.92,-4.89,-5.45,2.64,2.64,2.64
135.12,7.52,4.91,7.52,4.91,-4.91,-4.88,-5.40,2.61,2.61,2.61
136.48,7.47,4.89,7.47,4.89,-4.89,-4.86,-5.35,2.58,2.58,2.58
137.84,7.42,4.87,7.42,4.88,-4.88,-4.84,-5.29,2.55,2.55,2.55
139.22,7.38,4.86,7.38,4.86,-4.86,-4.82,-5.23,2.52,2.52,2.52
140.61,7.33,4.84,7.33,4.84,-4.84,-4.80,-5.16,2.49,2.49,2.49
142.02,7.29,4.82,7.29,4.82,-4.82,-4.78,-5.09,2.47,2.47,2.46
143.44,7.24,4.80,7.24,4.80,-4.80,-4.75,-5.01,2.44,2.44,2.44
144.87,7.19,4.77,7.19,4.77,-4.78,-4.73,-4.94,2.41,2.41,2.42
146.32,7.14,4.75,7.14,4.75,-4.75,-4.70,-4.86,2.39,2.39,2.39
147.78,7.09,4.73,7.09,4.73,-4.73,-4.67,-4.78,2.36,2.36,2.36
149.26,7.04,4.70,7.04,4.70,-4.70,-4.64,-4.70,2.34,2.34,2.34
150.75,6.99,4.68,6.99,4.68,-4.68,-4.61,-4.63,2.31,2.31,2.31
152.26,6.94,4.65,6.94,4.65,-4.65,-4.58,-4.55,2.29,2.29,2.29
153.78,6.89,4.62,6.89,4.62,-4.62,-4.55,-4.47,2.27,2.27,2.27
155.32,6.84,4.59,6.84,4.59,-4.59,-4.51,-4.39,2.25,2.25,2.25
156.88,6.79,4.56,6.79,4.56,-4.56,-4.48,-4.32,2.23,2.23,2.23
158.44,6.73,4.52,6.73,4.52,-4.52,-4.44,-4.25,2.21,2.21,2.21
160.03,6.68,4.49,6.68,4.49,-4.49,-4.41,-4.17,2.19,2.19,2.19
161.63,6.63,4.45,6.63,4.45,-4.45,-4.37,-4.10,2.18,2.18,2.18
163.24,6.57,4.41,6.57,4.41,-4.41,-4.33,-4.04,2.16,2.16,2.16
164.88,6.52,4.37,6.52,4.37,-4.37,-4.29,-3.97,2.14,2.14,2.15
166.53,6.46,4.33,6.46,4.33,-4.33,-4.26,-3.91,2.13,2.13,2.13
168.19,6.40,4.29,6.41,4.29,-4.29,-4.22,-3.85,2.12,2.12,2.12
169.87,6.35,4.25,6.35,4.25,-4.25,-4.18,-3.79,2.10,2.10,2.10
171.57,6.29,4.20,6.29,4.20,-4.20,-4.14,-3.74,2.09,2.09,2.09
173.29,6.23,4.16,6.23,4.16,-4.15,-4.10,-3.68,2.08,2.08,2.08
175.02,6.17,4.10,6.17,4.10,-4.11,-4.06,-3.64,2.06,2.06,2.07
176.77,6.11,4.05,6.11,4.05,-4.06,-4.02,-3.59,2.05,2.05,2.06
178.54,6.05,4.00,6.05,4.00,-4.00,-3.98,-3.55,2.04,2.04,2.05
180.32,5.99,3.95,5.99,3.95,-3.95,-3.94,-3.51,2.04,2.04,2.03
182.13,5.92,3.90,5.92,3.90,-3.89,-3.90,-3.47,2.03,2.03,2.02
183.95,5.86,3.85,5.86,3.84,-3.84,-3.85,-3.43,2.02,2.02,2.01
185.79,5.80,3.78,5.80,3.78,-3.78,-3.81,-3.40,2.02,2.02,2.01
187.65,5.73,3.72,5.73,3.72,-3.72,-3.77,-3.37,2.01,2.01,2.01
189.52,5.67,3.66,5.67,3.66,-3.67,-3.73,-3.34,2.00,2.00,2.01
191.42,5.61,3.61,5.61,3.61,-3.61,-3.69,-3.32,1.99,1.99,2.00
193.33,5.55,3.56,5.55,3.56,-3.56,-3.65,-3.30,1.98,1.98,1.99
195.27,5.49,3.52,5.49,3.51,-3.51,-3.61,-3.28,1.98,1.98,1.97
197.22,5.43,3.47,5.43,3.47,-3.46,-3.58,-3.26,1.97,1.97,1.96
199.19,5.37,3.42,5.37,3.42,-3.41,-3.54,-3.24,1.96,1.96,1.96
201.18,5.32,3.37,5.32,3.37,-3.37,-3.50,-3.23,1.96,1.96,1.95
203.19,5.27,3.32,5.27,3.32,-3.32,-3.46,-3.21,1.95,1.95,1.95
205.23,5.23,3.28,5.23,3.28,-3.28,-3.43,-3.20,1.95,1.95,1.95
207.28,5.19,3.24,5.19,3.24,-3.24,-3.39,-3.19,1.95,1.95,1.95
209.35,5.16,3.21,5.16,3.21,-3.21,-3.36,-3.18,1.95,1.95,1.95
211.44,5.13,3.18,5.13,3.18,-3.18,-3.32,-3.18,1.95,1.95,1.95
213.56,5.11,3.16,5.11,3.16,-3.17,-3.29,-3.17,1.94,1.94,1.95
215.69,5.09,3.15,5.09,3.15,-3.15,-3.26,-3.16,1.94,1.94,1.94
217.85,5.07,3.14,5.08,3.14,-3.15,-3.23,-3.15,1.93,1.93,1.94
220.03,5.06,3.14,5.07,3.14,-3.14,-3.20,-3.15,1.92,1.92,1.92
222.23,5.06,3.15,5.06,3.14,-3.14,-3.17,-3.14,1.92,1.92,1.91
224.45,5.05,3.15,5.05,3.15,-3.14,-3.14,-3.13,1.91,1.91,1.90
226.70,5.05,3.15,5.05,3.15,-3.14,-3.11,-3.12,1.90,1.90,1.90
228.96,5.04,3.14,5.04,3.14,-3.14,-3.09,-3.11,1.90,1.90,1.90
231.25,5.03,3.14,5.03,3.14,-3.14,-3.06,-3.09,1.89,1.90,1.89
233.57,5.02,3.13,5.02,3.13,-3.13,-3.04,-3.08,1.89,1.89,1.89
235.90,5.01,3.12,5.01,3.11,-3.11,-3.01,-3.06,1.89,1.89,1.89
238.26,4.99,3.10,4.99,3.10,-3.10,-2.99,-3.04,1.89,1.89,1.89
240.64,4.97,3.07,4.97,3.07,-3.07,-2.97,-3.02,1.89,1.89,1.89
243.05,4.94,3.05,4.94,3.05,-3.05,-2.94,-3.00,1.89,1.89,1.89
245.48,4.91,3.02,4.91,3.02,-3.01,-2.92,-2.97,1.89,1.89,1.89
247.93,4.87,2.98,4.87,2.98,-2.98,-2.89,-2.94,1.89,1.89,1.89
250.41,4.83,2.94,4.83,2.94,-2.94,-2.86,-2.90,1.89,1.89,1.89
252.92,4.79,2.90,4.79,2.90,-2.90,-2.83,-2.87,1.89,1.89,1.89
255.45,4.74,2.85,4.74,2.85,-2.85,-2.80,-2.83,1.89,1.89,1.89
258.00,4.69,2.80,4.69,2.80,-2.80,-2.77,-2.79,1.89,1.89,1.89
260.58,4.64,2.74,4.64,2.74,-2.74,-2.73,-2.74,1.89,1.89,1.89
263.19,4.58,2.69,4.58,2.69,-2.69,-2.69,-2.69,1.89,1.89,1.89
265.82,4.52,2.63,4.52,2.63,-2.63,-2.64,-2.64,1.89,1.89,1.89
268.48,4.46,2.57,4.46,2.57,-2.57,-2.59,-2.59,1.89,1.89,1.89
271.16,4.40,2.51,4.40,2.51,-2.51,-2.54,-2.53,1.89,1.89,1.89
273.87,4.34,2.45,4.34,2.45,-2.45,-2.48,-2.47,1.89,1.89,1.89
276.61,4.27,2.38,4.27,2.38,-2.38,-2.42,-2.41,1.89,1.89,1.89
279.38,4.21,2.32,4.21,2.32,-2.32,-2.36,-2.34,1.89,1.89,1.89
282.17,4.15,2.25,4.15,2.25,-2.25,-2.30,-2.28,1.89,1.89,1.89
284.99,4.08,2.19,4.08,2.19,-2.19,-2.23,-2.21,1.90,1.90,1.89
287.84,4.02,2.12,4.02,2.12,-2.12,-2.16,-2.14,1.90,1.90,1.90
290.72,3.95,2.05,3.95,2.05,-2.05,-2.09,-2.07,1.90,1.90,1.90
293.63,3.89,1.99,3.89,1.99,-1.99,-2.02,-2.00,1.90,1.90,1.90
296.57,3.82,1.92,3.82,1.92,-1.92,-1.95,-1.93,1.90,1.90,1.90
299.53,3.76,1.86,3.76,1.86,-1.86,-1.87,-1.86,1.90,1.90,1.90
302.53,3.69,1.79,3.69,1.79,-1.79,-1.80,-1.79,1.90,1.90,1.90
305.55,3.63,1.73,3.63,1.73,-1.73,-1.73,-1.72,1.90,1.90,1.90
308.61,3.57,1.66,3.57,1.66,-1.66,-1.65,-1.64,1.90,1.90,1.90
311.69,3.50,1.60,3.50,1.60,-1.60,-1.58,-1.57,1.90,1.90,1.90
314.81,3.44,1.53,3.44,1.53,-1.53,-1.51,-1.50,1.90,1.91,1.90
317.96,3.38,1.47,3.38,1.47,-1.47,-1.44,-1.42,1.91,1.91,1.91
321.14,3.31,1.40,3.31,1.40,-1.40,-1.37,-1.35,1.91,1.91,1.91
324.35,3.25,1.33,3.25,1.33,-1.33,-1.30,-1.28,1.92,1.92,1.92
327.59,3.19,1.26,3.19,1.26,-1.26,-1.24,-1.21,1.93,1.93,1.93
330.87,3.13,1.19,3.13,1.19,-1.19,-1.17,-1.14,1.93,1.94,1.93
334.18,3.06,1.12,3.06,1.12,-1.12,-1.11,-1.07,1.94,1.94,1.94
337.52,3.00,1.05,3.00,1.05,-1.06,-1.04,-1.00,1.95,1.95,1.95
340.90,2.94,0.99,2.94,0.98,-0.99,-0.98,-0.93,1.95,1.95,1.96
344.30,2.88,0.92,2.88,0.92,-0.93,-0.91,-0.86,1.95,1.95,1.96
347.75,2.82,0.86,2.82,0.86,-0.87,-0.85,-0.79,1.95,1.95,1.96
351.23,2.76,0.81,2.76,0.81,-0.81,-0.79,-0.72,1.95,1.95,1.95
354.74,2.70,0.75,2.70,0.75,-0.74,-0.73,-0.65,1.95,1.95,1.94
358.28,2.64,0.69,2.64,0.69,-0.68,-0.67,-0.58,1.95,1.95,1.95
361.87,2.58,0.63,2.58,0.63,-0.62,-0.61,-0.52,1.95,1.95,1.95
365.49,2.52,0.56,2.52,0.56,-0.56,-0.55,-0.45,1.96,1.96,1.96
369.14,2.46,0.50,2.46,0.50,-0.50,-0.50,-0.38,1.96,1.96,1.96
372.83,2.40,0.44,2.40,0.44,-0.44,-0.44,-0.32,1.96,1.96,1.96
376.56,2.34,0.38,2.34,0.38,-0.38,-0.38,-0.25,1.96,1.96,1.96
380.33,2.29,0.32,2.29,0.32,-0.32,-0.32,-0.19,1.96,1.96,1.96
384.13,2.23,0.27,2.23,0.27,-0.26,-0.27,-0.13,1.96,1.96,1.96
387.97,2.17,0.21,2.17,0.21,-0.21,-0.21,-0.06,1.96,1.96,1.96
391.85,2.11,0.15,2.11,0.15,-0.15,-0.16,0.00,1.96,1.96,1.96
395.77,2.06,0.09,2.06,0.09,-0.09,-0.10,0.06,1.96,1.96,1.96
399.73,2.00,0.04,2.00,0.04,-0.04,-0.04,0.12,1.96,1.96,1.96
403.72,1.94,-0.02,1.94,-0.02,0.02,0.01,0.19,1.96,1.96,1.96
407.76,1.89,-0.07,1.89,-0.07,0.07,0.07,0.25,1.96,1.96,1.96
411.84,1.83,-0.13,1.83,-0.13,0.13,0.12,0.31,1.96,1.96,1.96
415.96,1.78,-0.18,1.78,-0.18,0.18,0.18,0.37,1.96,1.96,1.96
420.12,1.72,-0.24,1.72,-0.24,0.24,0.23,0.42,1.96,1.96,1.96
424.32,1.67,-0.30,1.67,-0.30,0.30,0.29,0.48,1.97,1.97,1.96
428.56,1.61,-0.35,1.61,-0.35,0.36,0.34,0.54,1.97,1.97,1.97
432.85,1.56,-0.41,1.56,-0.41,0.41,0.39,0.59,1.97,1.97,1.97
437.18,1.51,-0.47,1.51,-0.47,0.47,0.45,0.65,1.98,1.98,1.98
441.55,1.45,-0.53,1.45,-0.53,0.53,0.50,0.70,1.99,1.99,1.99
445.96,1.40,-0.60,1.40,-0.59,0.59,0.56,0.76,1.99,1.99,2.00
450.42,1.35,-0.66,1.35,-0.65,0.65,0.61,0.81,2.00,2.00,2.00
454.93,1.29,-0.71,1.29,-0.71,0.71,0.67,0.86,2.00,2.00,2.01
459.48,1.24,-0.77,1.24,-0.77,0.77,0.72,0.91,2.01,2.01,2.01
464.07,1.19,-0.82,1.19,-0.82,0.82,0.78,0.95,2.02,2.02,2.01
468.71,1.14,-0.88,1.14,-0.88,0.88,0.83,1.00,2.02,2.02,2.02
473.40,1.09,-0.94,1.09,-0.94,0.94,0.89,1.04,2.02,2.02,2.02
478.13,1.04,-0.99,1.04,-0.99,0.99,0.94,1.08,2.03,2.03,2.03
482.91,0.99,-1.04,0.99,-1.04,1.04,0.99,1.12,2.03,2.03,2.03
487.74,0.94,-1.09,0.94,-1.10,1.09,1.05,1.16,2.03,2.03,2.03
492.62,0.89,-1.14,0.89,-1.14,1.14,1.10,1.20,2.03,2.03,2.03
497.55,0.84,-1.19,0.84,-1.19,1.19,1.16,1.23,2.03,2.03,2.03
502.52,0.79,-1.24,0.79,-1.24,1.24,1.21,1.27,2.03,2.03,2.03
507.55,0.74,-1.29,0.74,-1.29,1.29,1.26,1.30,2.03,2.03,2.03
512.62,0.69,-1.34,0.69,-1.34,1.34,1.32,1.33,2.03,2.03,2.03
517.75,0.64,-1.39,0.64,-1.39,1.39,1.37,1.35,2.03,2.03,2.03
522.93,0.60,-1.43,0.60,-1.43,1.43,1.42,1.38,2.03,2.03,2.03
528.16,0.55,-1.48,0.55,-1.48,1.48,1.48,1.40,2.03,2.03,2.03
533.44,0.50,-1.53,0.50,-1.53,1.53,1.53,1.43,2.03,2.03,2.03
