frequency,raw,error,smoothed,error_smoothed,equalization,parametric_eq,fixed_band_eq,equalized_raw,equalized_smoothed,target
20.00,3.57,-6.27,3.57,-6.27,5.99,6.78,2.10,9.55,9.56,9.84
20.20,3.62,-6.24,3.62,-6.25,6.00,6.76,2.16,9.62,9.62,9.86
20.40,3.66,-6.22,3.66,-6.22,6.01,6.73,2.22,9.68,9.67,9.88
20.61,3.70,-6.20,3.69,-6.20,6.02,6.54,2.29,9.71,9.71,9.90
20.81,3.72,-6.18,3.72,-6.18,6.01,6.34,2.36,9.74,9.74,9.91
21.02,3.75,-6.16,3.75,-6.16,6.00,6.12,2.43,9.75,9.75,9.91
21.23,3.78,-6.12,3.78,-6.12,5.99,5.90,2.50,9.76,9.77,9.90
21.44,3.82,-6.06,3.82,-6.06,5.96,5.73,2.57,9.78,9.78,9.88
21.66,3.88,-5.98,3.88,-5.98,5.92,5.56,2.65,9.80,9.79,9.86
21.87,3.94,-5.90,3.94,-5.90,5.87,5.47,2.72,9.80,9.81,9.84
22.09,4.00,-5.82,4.00,-5.82,5.81,5.38,2.80,9.81,9.81,9.81
22.31,4.06,-5.74,4.05,-5.74,5.76,5.35,2.89,9.82,9.82,9.79
22.54,4.10,-5.68,4.10,-5.68,5.72,5.33,2.97,9.82,9.82,9.78
22.76,4.12,-5.64,4.11,-5.65,5.70,5.36,3.06,9.81,9.81,9.76
22.99,4.11,-5.64,4.10,-5.64,5.69,5.39,3.14,9.80,9.79,9.74
23.22,4.06,-5.66,4.06,-5.66,5.70,5.45,3.23,9.76,9.76,9.73
23.45,4.01,-5.71,4.01,-5.71,5.72,5.51,3.33,9.73,9.73,9.72
23.69,3.96,-5.75,3.95,-5.75,5.74,5.59,3.42,9.69,9.69,9.71
23.92,3.91,-5.79,3.92,-5.79,5.74,5.66,3.52,9.66,9.66,9.70
24.16,3.90,-5.80,3.91,-5.79,5.73,5.73,3.61,9.64,9.64,9.70
24.40,3.94,-5.76,3.94,-5.76,5.70,5.80,3.71,9.63,9.64,9.70
24.65,4.01,-5.69,4.01,-5.69,5.64,5.84,3.81,9.65,9.65,9.70
24.89,4.11,-5.59,4.11,-5.59,5.57,5.88,3.92,9.68,9.68,9.70
25.14,4.22,-5.47,4.22,-5.47,5.48,5.88,4.02,9.71,9.71,9.69
25.39,4.33,-5.35,4.33,-5.36,5.40,5.88,4.12,9.74,9.73,9.69
25.65,4.40,-5.28,4.40,-5.28,5.34,5.83,4.23,9.74,9.74,9.68
25.91,4.45,-5.23,4.44,-5.23,5.29,5.79,4.33,9.74,9.74,9.68
26.16,4.45,-5.22,4.45,-5.22,5.27,5.71,4.43,9.72,9.72,9.67
26.43,4.43,-5.24,4.43,-5.24,5.26,5.62,4.53,9.69,9.69,9.67
26.69,4.39,-5.28,4.39,-5.28,5.27,5.52,4.63,9.66,9.66,9.67
26.96,4.35,-5.31,4.35,-5.31,5.28,5.41,4.73,9.63,9.63,9.66
27.23,4.33,-5.33,4.33,-5.32,5.28,5.29,4.83,9.61,9.61,9.66
27.50,4.33,-5.31,4.33,-5.31,5.27,5.17,4.92,9.60,9.60,9.63
27.77,4.35,-5.26,4.34,-5.26,5.24,5.05,5.01,9.58,9.58,9.60
28.05,4.38,-5.19,4.38,-5.19,5.18,4.93,5.10,9.56,9.56,9.57
28.33,4.42,-5.09,4.42,-5.10,5.10,4.82,5.18,9.52,9.52,9.52
28.62,4.48,-4.99,4.48,-4.99,4.99,4.70,5.26,9.46,9.46,9.47
28.90,4.54,-4.87,4.54,-4.87,4.86,4.60,5.33,9.40,9.40,9.42
29.19,4.63,-4.74,4.63,-4.74,4.72,4.50,5.39,9.34,9.34,9.37
29.48,4.72,-4.60,4.72,-4.59,4.57,4.41,5.44,9.29,9.30,9.32
29.78,4.83,-4.44,4.83,-4.44,4.43,4.32,5.49,9.26,9.26,9.27
30.08,4.94,-4.28,4.94,-4.28,4.30,4.24,5.53,9.24,9.24,9.22
30.38,5.03,-4.14,5.03,-4.14,4.19,4.16,5.56,9.23,9.22,9.18
30.68,5.10,-4.04,5.10,-4.04,4.10,4.10,5.58,9.20,9.20,9.14
30.99,5.13,-3.98,5.13,-3.98,4.03,4.03,5.60,9.16,9.16,9.11
31.30,5.13,-3.95,5.13,-3.95,3.97,3.98,5.60,9.11,9.10,9.08
31.61,5.12,-3.94,5.12,-3.94,3.93,3.92,5.59,9.05,9.05,9.07
31.93,5.11,-3.94,5.12,-3.93,3.89,3.87,5.57,9.00,9.01,9.05
32.24,5.13,-3.90,5.14,-3.90,3.85,3.83,5.55,8.98,8.98,9.04
32.57,5.17,-3.85,5.17,-3.85,3.80,3.79,5.51,8.97,8.98,9.02
32.89,5.24,-3.77,5.24,-3.77,3.75,3.75,5.47,8.99,8.99,9.01
33.22,5.31,-3.68,5.31,-3.69,3.70,3.71,5.42,9.01,9.01,8.99
33.55,5.38,-3.60,5.38,-3.61,3.65,3.67,5.36,9.03,9.02,8.98
33.89,5.43,-3.55,5.43,-3.55,3.60,3.64,5.29,9.03,9.02,8.98
34.23,5.46,-3.52,5.46,-3.52,3.55,3.60,5.22,9.01,9.01,8.98
34.57,5.47,-3.51,5.46,-3.51,3.52,3.57,5.14,8.99,8.98,8.98
34.92,5.46,-3.51,5.46,-3.51,3.49,3.53,5.06,8.95,8.95,8.97
35.27,5.45,-3.50,5.45,-3.50,3.47,3.50,4.97,8.92,8.92,8.94
35.62,5.43,-3.48,5.43,-3.47,3.45,3.47,4.87,8.88,8.89,8.91
35.97,5.42,-3.44,5.42,-3.44,3.43,3.43,4.78,8.86,8.86,8.87
36.33,5.42,-3.40,5.42,-3.40,3.41,3.39,4.68,8.83,8.83,8.82
36.70,5.41,-3.36,5.41,-3.36,3.38,3.36,4.58,8.79,8.79,8.78
37.06,5.41,-3.33,5.41,-3.33,3.35,3.32,4.47,8.76,8.76,8.74
37.43,5.41,-3.30,5.41,-3.30,3.31,3.28,4.37,8.72,8.72,8.71
37.81,5.41,-3.27,5.41,-3.28,3.27,3.24,4.26,8.68,8.68,8.69
38.19,5.42,-3.24,5.42,-3.24,3.22,3.20,4.16,8.64,8.64,8.67
38.57,5.44,-3.19,5.44,-3.19,3.17,3.16,4.05,8.61,8.61,8.63
38.95,5.47,-3.12,5.47,-3.12,3.11,3.11,3.95,8.57,8.57,8.59
39.34,5.49,-3.05,5.49,-3.05,3.04,3.07,3.84,8.54,8.54,8.54
39.74,5.52,-2.97,5.51,-2.97,2.98,3.02,3.74,8.49,8.49,8.48
40.14,5.53,-2.89,5.53,-2.89,2.91,2.97,3.63,8.44,8.44,8.42
40.54,5.54,-2.83,5.54,-2.83,2.84,2.93,3.53,8.38,8.38,8.37
40.94,5.54,-2.77,5.55,-2.77,2.78,2.88,3.43,8.33,8.33,8.32
41.35,5.55,-2.72,5.55,-2.72,2.72,2.83,3.34,8.27,8.28,8.27
41.76,5.56,-2.68,5.56,-2.68,2.67,2.78,3.24,8.23,8.23,8.23
42.18,5.57,-2.63,5.57,-2.63,2.63,2.72,3.15,8.20,8.20,8.20
42.60,5.58,-2.58,5.58,-2.58,2.58,2.67,3.05,8.17,8.16,8.16
43.03,5.60,-2.54,5.60,-2.54,2.54,2.62,2.96,8.13,8.13,8.13
43.46,5.60,-2.50,5.60,-2.50,2.50,2.57,2.87,8.10,8.10,8.10
43.90,5.61,-2.46,5.61,-2.46,2.45,2.52,2.79,8.07,8.06,8.07
44.33,5.62,-2.42,5.62,-2.42,2.41,2.46,2.70,8.03,8.03,8.03
44.78,5.62,-2.37,5.62,-2.37,2.37,2.41,2.62,7.99,7.99,8.00
45.23,5.63,-2.33,5.63,-2.33,2.32,2.36,2.54,7.96,7.96,7.96
45.68,5.64,-2.28,5.64,-2.28,2.28,2.31,2.46,7.92,7.92,7.92
46.13,5.65,-2.23,5.65,-2.23,2.23,2.26,2.39,7.89,7.88,7.89
46.60,5.66,-2.19,5.66,-2.19,2.19,2.21,2.31,7.85,7.84,7.84
47.06,5.66,-2.14,5.66,-2.14,2.15,2.16,2.24,7.80,7.80,7.80
47.53,5.66,-2.10,5.66,-2.10,2.10,2.11,2.17,7.76,7.76,7.76
48.01,5.65,-2.06,5.65,-2.06,2.06,2.06,2.10,7.71,7.71,7.71
48.49,5.64,-2.02,5.65,-2.02,2.02,2.01,2.03,7.67,7.67,7.67
48.97,5.64,-1.99,5.64,-1.99,1.98,1.96,1.97,7.62,7.62,7.63
49.46,5.64,-1.95,5.64,-1.95,1.95,1.91,1.91,7.59,7.59,7.59
49.96,5.64,-1.92,5.64,-1.92,1.92,1.87,1.85,7.56,7.56,7.56
50.46,5.64,-1.89,5.64,-1.89,1.89,1.82,1.79,7.53,7.53,7.53
50.96,5.64,-1.86,5.64,-1.86,1.86,1.78,1.73,7.50,7.50,7.50
51.47,5.63,-1.84,5.63,-1.84,1.84,1.74,1.67,7.47,7.48,7.47
51.99,5.63,-1.82,5.63,-1.82,1.83,1.69,1.62,7.46,7.46,7.45
52.51,5.63,-1.81,5.63,-1.81,1.82,1.65,1.57,7.44,7.44,7.43
53.03,5.63,-1.79,5.63,-1.79,1.81,1.61,1.52,7.43,7.43,7.42
53.56,5.63,-1.79,5.63,-1.79,1.79,1.57,1.47,7.42,7.42,7.41
54.10,5.63,-1.78,5.63,-1.78,1.77,1.53,1.42,7.40,7.40,7.41
54.64,5.62,-1.77,5.63,-1.77,1.74,1.50,1.37,7.37,7.37,7.39
55.18,5.62,-1.74,5.62,-1.73,1.71,1.46,1.33,7.33,7.33,7.36
55.74,5.62,-1.68,5.62,-1.68,1.66,1.42,1.29,7.28,7.28,7.30
56.29,5.61,-1.61,5.61,-1.61,1.60,1.39,1.25,7.22,7.22,7.23
56.86,5.61,-1.53,5.61,-1.54,1.54,1.36,1.21,7.15,7.15,7.14
57.42,5.60,-1.46,5.60,-1.46,1.47,1.32,1.17,7.08,7.08,7.07
58.00,5.60,-1.39,5.60,-1.39,1.41,1.29,1.13,7.00,7.00,6.99
58.58,5.59,-1.33,5.59,-1.33,1.34,1.26,1.09,6.93,6.93,6.92
59.16,5.58,-1.28,5.58,-1.28,1.29,1.23,1.06,6.87,6.87,6.86
59.76,5.57,-1.23,5.57,-1.23,1.24,1.20,1.03,6.81,6.81,6.80
60.35,5.56,-1.20,5.56,-1.20,1.20,1.17,1.00,6.76,6.76,6.75
60.96,5.54,-1.17,5.54,-1.17,1.17,1.14,0.97,6.71,6.71,6.71
61.57,5.53,-1.14,5.53,-1.14,1.15,1.12,0.94,6.67,6.67,6.67
62.18,5.51,-1.13,5.51,-1.13,1.13,1.09,0.91,6.64,6.64,6.64
62.80,5.49,-1.11,5.49,-1.11,1.11,1.06,0.88,6.60,6.60,6.60
63.43,5.47,-1.10,5.47,-1.10,1.10,1.04,0.86,6.57,6.57,6.57
64.07,5.45,-1.09,5.45,-1.09,1.08,1.01,0.84,6.53,6.53,6.54
64.71,5.43,-1.07,5.43,-1.07,1.06,0.99,0.81,6.50,6.50,6.51
65.35,5.41,-1.05,5.41,-1.05,1.04,0.97,0.79,6.46,6.46,6.47
66.01,5.39,-1.03,5.39,-1.02,1.02,0.95,0.77,6.41,6.41,6.42
66.67,5.37,-0.99,5.37,-0.99,0.99,0.93,0.76,6.36,6.36,6.36
67.33,5.35,-0.96,5.35,-0.96,0.96,0.91,0.74,6.31,6.31,6.31
68.01,5.33,-0.93,5.33,-0.93,0.93,0.89,0.72,6.26,6.26,6.26
68.69,5.31,-0.90,5.31,-0.90,0.90,0.87,0.71,6.21,6.21,6.21
69.37,5.29,-0.87,5.29,-0.87,0.88,0.85,0.69,6.16,6.16,6.16
70.07,5.27,-0.84,5.27,-0.85,0.85,0.83,0.68,6.12,6.12,6.12
70.77,5.25,-0.82,5.25,-0.82,0.83,0.81,0.66,6.08,6.08,6.07
71.48,5.23,-0.80,5.23,-0.80,0.80,0.79,0.65,6.03,6.03,6.03
72.19,5.21,-0.78,5.21,-0.78,0.78,0.78,0.64,5.99,5.99,5.99
72.91,5.19,-0.77,5.19,-0.76,0.76,0.76,0.63,5.95,5.95,5.96
73.64,5.17,-0.74,5.17,-0.74,0.74,0.75,0.62,5.91,5.91,5.92
74.38,5.15,-0.72,5.15,-0.72,0.72,0.73,0.61,5.87,5.87,5.88
75.12,5.13,-0.70,5.13,-0.70,0.70,0.72,0.60,5.83,5.83,5.83
75.87,5.10,-0.68,5.10,-0.68,0.69,0.70,0.60,5.79,5.79,5.78
76.63,5.07,-0.67,5.07,-0.67,0.67,0.69,0.59,5.74,5.74,5.74
77.40,5.04,-0.65,5.04,-0.65,0.66,0.68,0.58,5.70,5.70,5.69
78.17,5.01,-0.64,5.01,-0.64,0.64,0.66,0.58,5.65,5.65,5.65
78.95,4.97,-0.63,4.97,-0.63,0.63,0.65,0.57,5.60,5.60,5.61
79.74,4.94,-0.62,4.94,-0.62,0.61,0.64,0.57,5.55,5.55,5.56
80.54,4.91,-0.60,4.91,-0.60,0.59,0.63,0.56,5.51,5.51,5.51
81.35,4.89,-0.58,4.89,-0.58,0.58,0.62,0.56,5.46,5.46,5.47
82.16,4.87,-0.56,4.86,-0.56,0.56,0.61,0.55,5.42,5.42,5.42
82.98,4.84,-0.53,4.84,-0.53,0.54,0.59,0.55,5.38,5.38,5.38
83.81,4.82,-0.51,4.82,-0.51,0.52,0.58,0.55,5.34,5.34,5.33
84.65,4.79,-0.49,4.79,-0.49,0.50,0.58,0.54,5.29,5.29,5.28
85.50,4.76,-0.48,4.76,-0.48,0.48,0.57,0.54,5.25,5.25,5.24
86.35,4.73,-0.47,4.73,-0.47,0.47,0.56,0.54,5.20,5.20,5.20
87.22,4.70,-0.46,4.70,-0.46,0.45,0.55,0.54,5.15,5.15,5.16
88.09,4.67,-0.45,4.67,-0.45,0.44,0.54,0.54,5.10,5.10,5.12
88.97,4.64,-0.44,4.64,-0.44,0.42,0.53,0.53,5.06,5.06,5.07
89.86,4.61,-0.42,4.61,-0.42,0.41,0.52,0.53,5.02,5.02,5.03
90.76,4.58,-0.40,4.58,-0.40,0.40,0.52,0.53,4.98,4.98,4.98
91.66,4.54,-0.39,4.54,-0.39,0.39,0.51,0.53,4.94,4.94,4.93
92.58,4.50,-0.38,4.50,-0.38,0.39,0.50,0.53,4.90,4.89,4.88
93.51,4.45,-0.39,4.45,-0.39,0.41,0.50,0.53,4.86,4.86,4.84
94.44,4.40,-0.41,4.40,-0.41,0.43,0.49,0.54,4.83,4.83,4.81
95.39,4.34,-0.44,4.35,-0.44,0.47,0.48,0.54,4.81,4.82,4.79
96.34,4.29,-0.48,4.29,-0.49,0.51,0.48,0.54,4.80,4.80,4.77
97.30,4.23,-0.54,4.23,-0.54,0.56,0.47,0.54,4.79,4.79,4.77
98.28,4.17,-0.60,4.16,-0.61,0.59,0.47,0.54,4.76,4.75,4.77
99.26,4.09,-0.66,4.09,-0.65,0.61,0.46,0.54,4.70,4.70,4.75
100.25,4.03,-0.68,4.03,-0.67,0.61,0.46,0.55,4.64,4.64,4.71
101.25,3.99,-0.65,4.00,-0.64,0.60,0.45,0.55,4.59,4.59,4.64
102.27,3.98,-0.58,3.98,-0.58,0.57,0.45,0.55,4.55,4.55,4.57
103.29,3.99,-0.51,3.99,-0.51,0.53,0.44,0.55,4.51,4.51,4.50
104.32,4.00,-0.44,3.99,-0.44,0.48,0.44,0.56,4.47,4.47,4.43
105.37,3.98,-0.39,3.98,-0.39,0.43,0.44,0.56,4.41,4.41,4.37
106.42,3.96,-0.36,3.96,-0.36,0.39,0.43,0.56,4.35,4.34,4.32
107.48,3.93,-0.34,3.92,-0.34,0.35,0.43,0.57,4.28,4.28,4.26
108.56,3.89,-0.33,3.89,-0.33,0.33,0.43,0.57,4.22,4.22,4.22
109.64,3.85,-0.33,3.85,-0.33,0.32,0.42,0.57,4.17,4.17,4.18
110.74,3.81,-0.33,3.82,-0.33,0.31,0.42,0.58,4.12,4.13,4.14
111.85,3.79,-0.32,3.79,-0.32,0.30,0.42,0.58,4.09,4.09,4.11
112.97,3.77,-0.31,3.77,-0.30,0.30,0.42,0.58,4.07,4.07,4.07
114.10,3.75,-0.29,3.75,-0.29,0.29,0.41,0.59,4.04,4.04,4.04
115.24,3.72,-0.28,3.72,-0.28,0.28,0.41,0.59,4.01,4.01,4.00
116.39,3.69,-0.27,3.69,-0.27,0.27,0.41,0.59,3.97,3.97,3.97
117.55,3.67,-0.27,3.66,-0.27,0.27,0.41,0.60,3.93,3.93,3.93
118.73,3.63,-0.26,3.63,-0.26,0.26,0.41,0.60,3.89,3.89,3.90
119.92,3.60,-0.26,3.60,-0.26,0.25,0.41,0.60,3.86,3.86,3.86
121.12,3.57,-0.25,3.57,-0.25,0.25,0.41,0.60,3.82,3.82,3.82
122.33,3.54,-0.24,3.54,-0.24,0.25,0.41,0.61,3.79,3.79,3.79
123.55,3.51,-0.25,3.50,-0.25,0.25,0.41,0.61,3.76,3.76,3.75
124.79,3.47,-0.25,3.46,-0.25,0.26,0.41,0.61,3.72,3.72,3.72
126.03,3.42,-0.26,3.42,-0.26,0.26,0.41,0.61,3.68,3.68,3.68
127.29,3.37,-0.27,3.37,-0.27,0.27,0.41,0.61,3.64,3.64,3.65
128.57,3.33,-0.28,3.33,-0.28,0.28,0.41,0.62,3.60,3.60,3.61
129.85,3.27,-0.30,3.28,-0.30,0.29,0.41,0.62,3.56,3.56,3.57
131.15,3.22,-0.31,3.22,-0.30,0.30,0.41,0.62,3.52,3.52,3.53
132.46,3.17,-0.31,3.17,-0.31,0.31,0.41,0.62,3.48,3.48,3.49
133.79,3.12,-0.32,3.12,-0.32,0.32,0.41,0.62,3.45,3.45,3.44
135.12,3.07,-0.33,3.07,-0.33,0.35,0.41,0.62,3.41,3.41,3.40
136.48,3.00,-0.35,3.00,-0.36,0.37,0.41,0.62,3.37,3.37,3.36
137.84,2.93,-0.39,2.93,-0.39,0.40,0.41,0.62,3.33,3.33,3.32
139.22,2.85,-0.44,2.85,-0.44,0.44,0.41,0.63,3.29,3.29,3.29
140.61,2.77,-0.49,2.77,-0.49,0.49,0.41,0.63,3.26,3.26,3.26
142.02,2.70,-0.53,2.70,-0.53,0.54,0.42,0.63,3.24,3.24,3.23
143.44,2.63,-0.58,2.63,-0.58,0.59,0.42,0.63,3.22,3.22,3.21
144.87,2.56,-0.62,2.56,-0.62,0.63,0.42,0.63,3.19,3.18,3.18
146.32,2.48,-0.66,2.48,-0.66,0.66,0.42,0.63,3.14,3.14,3.14
147.78,2.41,-0.69,2.41,-0.69,0.67,0.43,0.63,3.08,3.09,3.10
149.26,2.36,-0.70,2.36,-0.70,0.66,0.43,0.64,3.03,3.03,3.06
150.75,2.35,-0.68,2.35,-0.68,0.63,0.43,0.64,2.98,2.98,3.02
152.26,2.36,-0.63,2.37,-0.62,0.59,0.44,0.64,2.95,2.95,2.99
153.78,2.41,-0.54,2.41,-0.54,0.53,0.44,0.64,2.94,2.94,2.96
155.32,2.47,-0.45,2.47,-0.45,0.46,0.44,0.65,2.92,2.92,2.92
156.88,2.53,-0.35,2.53,-0.36,0.38,0.45,0.65,2.92,2.91,2.88
158.44,2.57,-0.28,2.57,-0.28,0.32,0.45,0.66,2.89,2.89,2.85
160.03,2.59,-0.22,2.59,-0.22,0.26,0.45,0.66,2.86,2.85,2.81
161.63,2.58,-0.20,2.58,-0.20,0.22,0.46,0.66,2.80,2.81,2.78
163.24,2.56,-0.19,2.56,-0.19,0.20,0.46,0.67,2.76,2.76,2.75
164.88,2.53,-0.19,2.53,-0.19,0.18,0.47,0.68,2.71,2.71,2.72
166.53,2.49,-0.20,2.49,-0.20,0.18,0.47,0.68,2.67,2.67,2.69
168.19,2.45,-0.20,2.45,-0.20,0.18,0.48,0.69,2.63,2.63,2.65
169.87,2.40,-0.20,2.40,-0.20,0.18,0.48,0.70,2.59,2.59,2.60
171.57,2.36,-0.20,2.36,-0.20,0.19,0.49,0.70,2.55,2.55,2.56
173.29,2.32,-0.19,2.32,-0.19,0.20,0.49,0.71,2.52,2.52,2.51
175.02,2.28,-0.19,2.28,-0.20,0.21,0.50,0.72,2.48,2.48,2.47
176.77,2.24,-0.21,2.23,-0.21,0.22,0.51,0.73,2.46,2.46,2.44
178.54,2.19,-0.23,2.19,-0.23,0.24,0.51,0.74,2.43,2.43,2.42
180.32,2.14,-0.26,2.14,-0.26,0.27,0.52,0.75,2.42,2.42,2.41
182.13,2.10,-0.30,2.10,-0.30,0.31,0.53,0.76,2.40,2.40,2.40
183.95,2.05,-0.34,2.05,-0.34,0.34,0.53,0.77,2.40,2.40,2.39
185.79,2.01,-0.38,2.01,-0.38,0.38,0.54,0.79,2.39,2.39,2.39
187.65,1.97,-0.42,1.97,-0.42,0.40,0.55,0.80,2.38,2.38,2.39
189.52,1.93,-0.45,1.93,-0.45,0.42,0.56,0.81,2.36,2.36,2.38
191.42,1.90,-0.47,1.90,-0.47,0.44,0.56,0.82,2.33,2.33,2.36
193.33,1.87,-0.47,1.87,-0.47,0.44,0.57,0.84,2.31,2.31,2.34
195.27,1.84,-0.46,1.85,-0.46,0.45,0.58,0.85,2.30,2.30,2.31
197.22,1.82,-0.44,1.82,-0.44,0.46,0.59,0.87,2.29,2.29,2.26
199.19,1.80,-0.43,1.79,-0.44,0.48,0.60,0.88,2.28,2.27,2.23
201.18,1.75,-0.46,1.75,-0.46,0.51,0.61,0.90,2.26,2.26,2.21
203.19,1.70,-0.51,1.70,-0.51,0.54,0.62,0.91,2.24,2.23,2.21
205.23,1.64,-0.58,1.64,-0.58,0.57,0.63,0.93,2.21,2.21,2.22
207.28,1.58,-0.64,1.58,-0.64,0.61,0.64,0.94,2.19,2.19,2.22
209.35,1.53,-0.69,1.53,-0.68,0.66,0.65,0.96,2.18,2.19,2.21
211.44,1.48,-0.72,1.48,-0.72,0.70,0.66,0.98,2.18,2.18,2.20
213.56,1.44,-0.74,1.44,-0.74,0.73,0.67,0.99,2.17,2.17,2.18
215.69,1.40,-0.76,1.40,-0.76,0.76,0.68,1.01,2.16,2.16,2.16
217.85,1.36,-0.78,1.36,-0.78,0.78,0.70,1.02,2.14,2.14,2.13
220.03,1.31,-0.79,1.31,-0.79,0.80,0.71,1.04,2.11,2.11,2.10
222.23,1.27,-0.81,1.27,-0.81,0.81,0.72,1.05,2.08,2.08,2.08
224.45,1.23,-0.82,1.23,-0.82,0.83,0.73,1.07,2.06,2.06,2.05
226.70,1.19,-0.84,1.19,-0.84,0.84,0.75,1.08,2.03,2.03,2.03
228.96,1.15,-0.85,1.15,-0.85,0.86,0.76,1.09,2.01,2.01,2.01
231.25,1.12,-0.87,1.12,-0.87,0.87,0.78,1.11,1.98,1.98,1.99
233.57,1.08,-0.88,1.08,-0.88,0.88,0.79,1.12,1.96,1.96,1.96
235.90,1.05,-0.89,1.05,-0.89,0.89,0.80,1.13,1.94,1.94,1.94
238.26,1.02,-0.90,1.02,-0.90,0.90,0.82,1.14,1.92,1.92,1.92
240.64,0.99,-0.91,0.99,-0.91,0.90,0.83,1.15,1.90,1.90,1.90
243.05,0.97,-0.91,0.97,-0.91,0.91,0.85,1.16,1.88,1.88,1.88
245.48,0.95,-0.91,0.95,-0.91,0.91,0.86,1.16,1.86,1.86,1.86
247.93,0.93,-0.91,0.93,-0.91,0.91,0.88,1.17,1.84,1.84,1.84
250.41,0.91,-0.91,0.91,-0.91,0.91,0.90,1.17,1.82,1.82,1.82
252.92,0.88,-0.91,0.88,-0.91,0.92,0.91,1.18,1.80,1.80,1.80
255.45,0.86,-0.92,0.86,-0.92,0.92,0.93,1.18,1.78,1.78,1.77
258.00,0.83,-0.92,0.83,-0.93,0.93,0.94,1.18,1.76,1.76,1.75
260.58,0.79,-0.94,0.79,-0.94,0.94,0.96,1.18,1.73,1.73,1.73
263.19,0.76,-0.95,0.76,-0.95,0.95,0.97,1.18,1.71,1.71,1.71
265.82,0.72,-0.97,0.72,-0.97,0.97,0.98,1.18,1.69,1.69,1.69
268.48,0.68,-0.99,0.68,-0.99,0.99,1.00,1.17,1.67,1.67,1.67
271.16,0.64,-1.01,0.64,-1.01,1.01,1.01,1.17,1.65,1.65,1.65
273.87,0.61,-1.03,0.61,-1.03,1.03,1.02,1.17,1.63,1.63,1.63
276.61,0.57,-1.05,0.57,-1.05,1.04,1.03,1.16,1.61,1.61,1.61
279.38,0.53,-1.06,0.53,-1.06,1.06,1.05,1.16,1.59,1.59,1.59
282.17,0.50,-1.08,0.50,-1.08,1.08,1.06,1.15,1.58,1.58,1.57
284.99,0.46,-1.09,0.46,-1.09,1.10,1.06,1.15,1.56,1.55,1.55
287.84,0.42,-1.11,0.42,-1.11,1.11,1.07,1.14,1.53,1.53,1.53
290.72,0.39,-1.13,0.39,-1.12,1.12,1.08,1.13,1.51,1.51,1.51
293.63,0.35,-1.14,0.35,-1.14,1.13,1.09,1.13,1.48,1.48,1.49
296.57,0.32,-1.14,0.32,-1.14,1.14,1.09,1.12,1.46,1.46,1.46
299.53,0.29,-1.15,0.29,-1.15,1.15,1.10,1.12,1.43,1.43,1.43
302.53,0.25,-1.15,0.25,-1.15,1.15,1.11,1.11,1.40,1.40,1.40
305.55,0.22,-1.14,0.22,-1.14,1.14,1.11,1.10,1.37,1.37,1.37
308.61,0.19,-1.14,0.19,-1.14,1.14,1.12,1.10,1.33,1.33,1.33
311.69,0.16,-1.13,0.16,-1.13,1.13,1.12,1.09,1.29,1.29,1.29
314.81,0.14,-1.12,0.14,-1.12,1.11,1.12,1.09,1.25,1.25,1.25
317.96,0.11,-1.10,0.11,-1.10,1.10,1.13,1.09,1.20,1.20,1.21
321.14,0.08,-1.08,0.08,-1.08,1.08,1.13,1.08,1.16,1.16,1.16
324.35,0.05,-1.06,0.05,-1.06,1.06,1.13,1.08,1.11,1.11,1.11
327.59,0.02,-1.04,0.02,-1.04,1.04,1.14,1.08,1.06,1.06,1.06
330.87,-0.01,-1.03,-0.01,-1.03,1.03,1.14,1.08,1.02,1.02,1.01
334.18,-0.04,-1.01,-0.04,-1.02,1.02,1.15,1.08,0.97,0.97,0.97
337.52,-0.07,-1.01,-0.07,-1.01,1.01,1.15,1.08,0.93,0.94,0.93
340.90,-0.10,-1.00,-0.10,-1.00,1.01,1.15,1.08,0.90,0.90,0.90
344.30,-0.13,-1.00,-0.13,-1.00,1.01,1.16,1.08,0.88,0.88,0.88
347.75,-0.15,-1.01,-0.15,-1.01,1.02,1.16,1.08,0.86,0.86,0.86
351.23,-0.18,-1.03,-0.18,-1.03,1.03,1.17,1.08,0.85,0.85,0.85
354.74,-0.21,-1.05,-0.21,-1.05,1.05,1.17,1.09,0.84,0.84,0.84
358.28,-0.24,-1.07,-0.24,-1.07,1.07,1.18,1.09,0.83,0.83,0.83
361.87,-0.26,-1.10,-0.26,-1.09,1.09,1.18,1.10,0.83,0.83,0.83
365.49,-0.29,-1.12,-0.29,-1.12,1.12,1.19,1.11,0.83,0.83,0.83
369.14,-0.31,-1.15,-0.31,-1.15,1.15,1.20,1.11,0.83,0.83,0.83
372.83,-0.34,-1.17,-0.34,-1.17,1.17,1.20,1.12,0.83,0.83,0.84
376.56,-0.36,-1.20,-0.36,-1.20,1.20,1.21,1.13,0.84,0.84,0.84
380.33,-0.39,-1.23,-0.39,-1.23,1.22,1.22,1.14,0.84,0.84,0.84
384.13,-0.41,-1.25,-0.41,-1.25,1.25,1.22,1.15,0.84,0.84,0.84
387.97,-0.43,-1.27,-0.43,-1.27,1.27,1.23,1.16,0.84,0.84,0.84
391.85,-0.46,-1.29,-0.46,-1.29,1.29,1.24,1.17,0.83,0.83,0.83
395.77,-0.48,-1.31,-0.48,-1.31,1.31,1.24,1.19,0.83,0.83,0.83
399.73,-0.50,-1.33,-0.50,-1.33,1.33,1.25,1.20,0.82,0.82,0.82
403.72,-0.53,-1.34,-0.53,-1.34,1.34,1.26,1.21,0.82,0.82,0.81
407.76,-0.55,-1.36,-0.55,-1.36,1.36,1.27,1.23,0.81,0.81,0.81
411.84,-0.58,-1.37,-0.58,-1.37,1.37,1.28,1.24,0.80,0.80,0.80
415.96,-0.60,-1.39,-0.60,-1.39,1.39,1.29,1.26,0.79,0.79,0.79
420.12,-0.62,-1.40,-0.62,-1.40,1.40,1.29,1.27,0.78,0.78,0.78
424.32,-0.64,-1.42,-0.64,-1.42,1.41,1.30,1.29,0.77,0.77,0.77
428.56,-0.66,-1.43,-0.66,-1.43,1.43,1.31,1.30,0.76,0.76,0.76
432.85,-0.68,-1.44,-0.68,-1.44,1.44,1.32,1.32,0.75,0.75,0.75
437.18,-0.70,-1.44,-0.70,-1.45,1.45,1.33,1.33,0.75,0.74,0.74
441.55,-0.72,-1.45,-0.72,-1.45,1.46,1.34,1.35,0.73,0.73,0.73
445.96,-0.74,-1.46,-0.74,-1.46,1.47,1.35,1.36,0.72,0.72,0.72
450.42,-0.76,-1.47,-0.76,-1.47,1.48,1.36,1.38,0.71,0.71,0.71
454.93,-0.78,-1.48,-0.78,-1.48,1.48,1.37,1.39,0.70,0.70,0.70
459.48,-0.80,-1.49,-0.80,-1.49,1.49,1.38,1.40,0.69,0.69,0.69
464.07,-0.82,-1.50,-0.82,-1.50,1.50,1.39,1.42,0.68,0.68,0.68
468.71,-0.84,-1.51,-0.84,-1.51,1.51,1.40,1.43,0.67,0.67,0.67
473.40,-0.86,-1.52,-0.86,-1.52,1.52,1.40,1.44,0.66,0.66,0.66
478.13,-0.88,-1.53,-0.88,-1.53,1.53,1.41,1.45,0.65,0.65,0.65
482.91,-0.89,-1.53,-0.89,-1.53,1.53,1.42,1.46,0.64,0.64,0.64
487.74,-0.91,-1.54,-0.91,-1.54,1.54,1.43,1.47,0.63,0.63,0.63
492.62,-0.93,-1.55,-0.93,-1.55,1.55,1.44,1.47,0.62,0.62,0.62
497.55,-0.94,-1.55,-0.94,-1.55,1.55,1.45,1.48,0.60,0.60,0.61
502.52,-0.96,-1.55,-0.96,-1.55,1.55,1.46,1.48,0.59,0.59,0.60
507.55,-0.97,-1.56,-0.97,-1.56,1.56,1.47,1.49,0.58,0.58,0.59
512.62,-0.98,-1.56,-0.98,-1.56,1.56,1.48,1.49,0.58,0.58,0.58
517.75,-0.99,-1.56,-0.99,-1.56,1.56,1.49,1.49,0.57,0.57,0.57
522.93,-1.00,-1.56,-1.01,-1.56,1.56,1.50,1.49,0.56,0.56,0.56
528.16,-1.02,-1.56,-1.02,-1.56,1.57,1.51,1.49,0.55,0.55,0.55
533.44,-1.03,-1.57,-1.03,-1.57,1.57,1.52,1.49,0.54,0.54,0.54
538.77,-1.05,-1.58,-1.05,-1.58,1.58,1.53,1.48,0.53,0.53,0.53
544.16,-1.06,-1.58,-1.06,-1.58,1.58,1.54,1.48,0.52,0.52,0.52
549.60,-1.07,-1.59,-1.07,-1.59,1.59,1.54,1.48,0.51,0.51,0.51
555.10,-1.09,-1.59,-1.09,-1.59,1.59,1.55,1.47,0.50,0.50,0.51
560.65,-1.10,-1.60,-1.10,-1.60,1.60,1.56,1.47,0.50,0.50,0.50
566.25,-1.11,-1.60,-1.11,-1.60,1.60,1.57,1.46,0.49,0.49,0.49
