frequency,raw,error,smoothed,error_smoothed,equalization,parametric_eq,fixed_band_eq,equalized_raw,equalized_smoothed,target
20.00,9.03,3.45,9.03,3.44,-3.42,-3.42,-1.48,5.61,5.61,5.58
20.20,9.01,3.43,9.02,3.43,-3.44,-3.46,-1.53,5.58,5.58,5.58
20.40,9.01,3.43,9.01,3.44,-3.46,-3.49,-1.57,5.55,5.55,5.58
20.61,9.01,3.43,9.02,3.46,-3.49,-3.53,-1.62,5.53,5.53,5.58
20.81,9.03,3.52,9.03,3.50,-3.51,-3.56,-1.67,5.52,5.52,5.51
21.02,9.05,3.56,9.05,3.55,-3.53,-3.59,-1.72,5.51,5.51,5.48
21.23,9.06,3.58,9.06,3.59,-3.56,-3.63,-1.78,5.51,5.51,5.48
21.44,9.08,3.59,9.08,3.60,-3.58,-3.66,-1.83,5.50,5.50,5.48
21.66,9.09,3.61,9.09,3.61,-3.60,-3.68,-1.89,5.49,5.49,5.48
21.87,9.10,3.62,9.10,3.62,-3.62,-3.71,-1.94,5.48,5.48,5.48
22.09,9.11,3.63,9.11,3.63,-3.63,-3.73,-2.00,5.48,5.48,5.48
22.31,9.13,3.65,9.13,3.65,-3.66,-3.75,-2.06,5.47,5.47,5.48
22.54,9.15,3.67,9.15,3.67,-3.69,-3.77,-2.12,5.47,5.47,5.48
22.76,9.18,3.70,9.19,3.70,-3.73,-3.79,-2.19,5.46,5.46,5.48
22.99,9.22,3.74,9.22,3.75,-3.78,-3.80,-2.25,5.45,5.45,5.48
23.22,9.27,3.79,9.27,3.82,-3.83,-3.81,-2.32,5.44,5.44,5.48
23.45,9.31,3.91,9.31,3.89,-3.89,-3.82,-2.39,5.43,5.43,5.40
23.69,9.35,3.97,9.35,3.96,-3.94,-3.83,-2.46,5.42,5.42,5.38
23.92,9.39,4.01,9.39,4.01,-3.98,-3.83,-2.53,5.41,5.41,5.38
24.16,9.41,4.03,9.41,4.03,-4.01,-3.83,-2.60,5.40,5.40,5.38
24.40,9.42,4.04,9.42,4.04,-4.03,-3.83,-2.67,5.39,5.39,5.38
24.65,9.42,4.04,9.42,4.04,-4.04,-3.83,-2.75,5.39,5.38,5.38
24.89,9.41,4.03,9.41,4.03,-4.04,-3.82,-2.82,5.38,5.38,5.38
25.14,9.39,4.01,9.39,4.00,-4.02,-3.81,-2.90,5.37,5.37,5.38
25.39,9.36,3.98,9.36,3.98,-4.00,-3.80,-2.97,5.36,5.36,5.38
25.65,9.31,3.94,9.31,3.96,-3.97,-3.79,-3.05,5.34,5.34,5.37
25.91,9.26,3.96,9.26,3.94,-3.94,-3.77,-3.12,5.33,5.33,5.31
26.16,9.21,3.92,9.21,3.91,-3.89,-3.75,-3.20,5.31,5.31,5.28
26.43,9.14,3.86,9.14,3.86,-3.84,-3.73,-3.27,5.30,5.30,5.28
26.69,9.07,3.79,9.07,3.79,-3.78,-3.71,-3.34,5.29,5.29,5.28
26.96,9.00,3.71,8.99,3.71,-3.71,-3.69,-3.42,5.28,5.28,5.28
27.23,8.92,3.64,8.92,3.64,-3.64,-3.66,-3.48,5.28,5.28,5.28
27.50,8.84,3.56,8.84,3.56,-3.56,-3.63,-3.55,5.28,5.28,5.28
27.77,8.76,3.48,8.76,3.48,-3.49,-3.60,-3.61,5.28,5.28,5.28
28.05,8.69,3.41,8.69,3.41,-3.42,-3.57,-3.67,5.28,5.28,5.28
28.33,8.63,3.35,8.63,3.35,-3.35,-3.54,-3.73,5.28,5.27,5.28
28.62,8.57,3.29,8.57,3.29,-3.30,-3.50,-3.78,5.27,5.27,5.28
28.90,8.53,3.24,8.53,3.24,-3.25,-3.47,-3.83,5.27,5.27,5.28
29.19,8.49,3.21,8.49,3.21,-3.22,-3.43,-3.87,5.27,5.27,5.28
29.48,8.46,3.18,8.46,3.18,-3.19,-3.39,-3.90,5.27,5.27,5.28
29.78,8.44,3.16,8.44,3.16,-3.16,-3.35,-3.94,5.28,5.28,5.28
30.08,8.43,3.14,8.43,3.15,-3.13,-3.31,-3.96,5.29,5.29,5.28
30.38,8.42,3.14,8.42,3.12,-3.11,-3.27,-3.98,5.31,5.31,5.28
30.68,8.42,3.09,8.42,3.09,-3.08,-3.22,-3.98,5.34,5.34,5.33
30.99,8.42,3.04,8.42,3.06,-3.05,-3.18,-3.99,5.37,5.37,5.38
31.30,8.42,3.04,8.42,3.02,-3.02,-3.14,-3.98,5.40,5.40,5.38
31.61,8.42,2.99,8.42,2.98,-3.00,-3.09,-3.97,5.43,5.43,5.43
31.93,8.42,2.94,8.42,2.96,-2.97,-3.05,-3.95,5.45,5.45,5.48
32.24,8.41,2.93,8.41,2.93,-2.94,-3.00,-3.93,5.47,5.48,5.48
32.57,8.40,2.92,8.40,2.92,-2.91,-2.96,-3.89,5.49,5.49,5.48
32.89,8.38,2.90,8.38,2.90,-2.89,-2.91,-3.85,5.49,5.49,5.48
33.22,8.36,2.88,8.36,2.88,-2.87,-2.86,-3.81,5.49,5.49,5.48
33.55,8.33,2.85,8.33,2.84,-2.85,-2.82,-3.75,5.48,5.48,5.48
33.89,8.29,2.81,8.29,2.81,-2.83,-2.77,-3.70,5.46,5.46,5.48
34.23,8.24,2.77,8.24,2.79,-2.80,-2.72,-3.63,5.45,5.45,5.48
34.57,8.19,2.78,8.19,2.77,-2.76,-2.68,-3.57,5.43,5.43,5.41
34.92,8.13,2.75,8.13,2.74,-2.72,-2.63,-3.49,5.42,5.42,5.38
35.27,8.07,2.68,8.07,2.69,-2.66,-2.58,-3.42,5.40,5.40,5.38
35.62,8.00,2.62,8.00,2.62,-2.60,-2.54,-3.34,5.39,5.39,5.38
35.97,7.93,2.54,7.93,2.54,-2.54,-2.49,-3.26,5.39,5.39,5.38
36.33,7.85,2.47,7.85,2.47,-2.48,-2.45,-3.17,5.38,5.38,5.38
36.70,7.78,2.40,7.78,2.40,-2.41,-2.40,-3.08,5.37,5.37,5.38
37.06,7.72,2.33,7.72,2.33,-2.35,-2.36,-3.00,5.37,5.37,5.38
37.43,7.65,2.27,7.65,2.27,-2.30,-2.31,-2.91,5.36,5.36,5.38
37.81,7.59,2.21,7.59,2.23,-2.25,-2.27,-2.82,5.34,5.34,5.38
38.19,7.54,2.21,7.54,2.21,-2.21,-2.22,-2.72,5.33,5.33,5.32
38.57,7.49,2.21,7.49,2.19,-2.18,-2.18,-2.63,5.31,5.31,5.28
38.95,7.45,2.16,7.44,2.17,-2.15,-2.13,-2.54,5.30,5.30,5.28
39.34,7.41,2.13,7.41,2.13,-2.12,-2.09,-2.45,5.28,5.28,5.28
39.74,7.37,2.09,7.38,2.09,-2.10,-2.04,-2.36,5.28,5.28,5.28
40.14,7.35,2.06,7.35,2.06,-2.07,-2.00,-2.27,5.28,5.28,5.28
40.54,7.32,2.04,7.32,2.04,-2.04,-1.96,-2.17,5.28,5.28,5.28
40.94,7.29,2.01,7.29,2.01,-2.00,-1.91,-2.08,5.28,5.28,5.28
41.35,7.25,1.97,7.25,1.97,-1.97,-1.87,-2.00,5.29,5.29,5.28
41.76,7.21,1.93,7.21,1.93,-1.93,-1.82,-1.91,5.29,5.29,5.28
42.18,7.17,1.88,7.17,1.89,-1.88,-1.78,-1.82,5.28,5.28,5.28
42.60,7.12,1.84,7.12,1.84,-1.84,-1.73,-1.74,5.28,5.28,5.28
43.03,7.07,1.78,7.07,1.78,-1.79,-1.69,-1.65,5.28,5.28,5.28
43.46,7.01,1.73,7.01,1.73,-1.73,-1.64,-1.57,5.28,5.28,5.28
43.90,6.95,1.67,6.96,1.67,-1.67,-1.60,-1.49,5.28,5.28,5.28
44.33,6.90,1.61,6.89,1.61,-1.61,-1.55,-1.40,5.29,5.29,5.28
44.78,6.83,1.55,6.83,1.55,-1.54,-1.50,-1.32,5.29,5.29,5.28
45.23,6.76,1.48,6.76,1.48,-1.47,-1.45,-1.25,5.29,5.29,5.28
45.68,6.68,1.40,6.68,1.40,-1.40,-1.40,-1.17,5.29,5.28,5.28
46.13,6.61,1.32,6.61,1.33,-1.33,-1.35,-1.09,5.28,5.28,5.28
46.60,6.53,1.25,6.53,1.25,-1.26,-1.30,-1.02,5.27,5.27,5.28
47.06,6.46,1.18,6.46,1.18,-1.19,-1.24,-0.94,5.27,5.27,5.28
47.53,6.39,1.11,6.39,1.11,-1.12,-1.19,-0.87,5.27,5.27,5.28
48.01,6.33,1.05,6.33,1.05,-1.05,-1.13,-0.80,5.28,5.28,5.28
48.49,6.27,0.99,6.27,0.99,-0.99,-1.07,-0.73,5.28,5.28,5.28
48.97,6.21,0.93,6.21,0.93,-0.92,-1.01,-0.66,5.29,5.29,5.28
49.46,6.15,0.87,6.15,0.86,-0.86,-0.95,-0.59,5.29,5.29,5.28
49.96,6.08,0.80,6.08,0.80,-0.79,-0.89,-0.52,5.29,5.29,5.28
50.46,6.01,0.73,6.01,0.73,-0.72,-0.82,-0.45,5.29,5.29,5.28
50.96,5.94,0.66,5.94,0.66,-0.65,-0.76,-0.39,5.29,5.29,5.28
51.47,5.88,0.59,5.88,0.59,-0.58,-0.69,-0.32,5.29,5.29,5.28
51.99,5.81,0.53,5.81,0.52,-0.53,-0.62,-0.26,5.28,5.28,5.28
52.51,5.74,0.46,5.74,0.45,-0.48,-0.55,-0.19,5.26,5.26,5.28
53.03,5.67,0.39,5.67,0.39,-0.44,-0.48,-0.13,5.23,5.23,5.28
53.56,5.61,0.33,5.61,0.35,-0.40,-0.41,-0.07,5.21,5.21,5.27
54.10,5.54,0.34,5.55,0.34,-0.36,-0.33,-0.01,5.18,5.18,5.21
54.64,5.48,0.34,5.48,0.34,-0.31,-0.26,0.05,5.17,5.17,5.14
55.18,5.42,0.33,5.41,0.32,-0.25,-0.18,0.11,5.16,5.16,5.08
55.74,5.34,0.26,5.34,0.25,-0.18,-0.10,0.17,5.16,5.16,5.08
56.29,5.27,0.14,5.27,0.13,-0.09,-0.02,0.23,5.17,5.17,5.13
56.86,5.18,-0.02,5.18,-0.01,0.01,0.06,0.29,5.20,5.20,5.20
57.42,5.10,-0.17,5.10,-0.15,0.13,0.14,0.35,5.23,5.23,5.27
58.00,5.01,-0.27,5.02,-0.28,0.25,0.22,0.40,5.27,5.27,5.28
58.58,4.93,-0.37,4.93,-0.39,0.38,0.30,0.46,5.31,5.31,5.30
59.16,4.85,-0.52,4.85,-0.50,0.48,0.38,0.52,5.34,5.34,5.38
59.76,4.78,-0.60,4.78,-0.61,0.57,0.47,0.57,5.35,5.36,5.38
60.35,4.71,-0.67,4.71,-0.68,0.65,0.55,0.62,5.36,5.36,5.38
60.96,4.64,-0.74,4.64,-0.71,0.70,0.63,0.68,5.35,5.35,5.38
61.57,4.58,-0.73,4.58,-0.75,0.75,0.72,0.73,5.33,5.32,5.31
62.18,4.51,-0.77,4.51,-0.78,0.79,0.80,0.79,5.30,5.30,5.28
62.80,4.43,-0.84,4.43,-0.81,0.83,0.89,0.84,5.26,5.26,5.27
63.43,4.36,-0.85,4.36,-0.86,0.88,0.97,0.89,5.23,5.23,5.21
64.07,4.28,-0.90,4.28,-0.92,0.93,1.05,0.94,5.21,5.21,5.18
64.71,4.19,-0.99,4.19,-0.98,1.00,1.14,0.99,5.20,5.20,5.18
65.35,4.11,-1.08,4.11,-1.07,1.09,1.22,1.05,5.19,5.19,5.18
66.01,4.02,-1.17,4.02,-1.17,1.18,1.31,1.10,5.20,5.20,5.18
66.67,3.93,-1.27,3.93,-1.29,1.29,1.39,1.15,5.21,5.21,5.20
67.33,3.83,-1.44,3.83,-1.42,1.40,1.47,1.20,5.24,5.24,5.27
68.01,3.74,-1.54,3.74,-1.53,1.53,1.55,1.25,5.27,5.27,5.28
68.69,3.65,-1.63,3.65,-1.64,1.65,1.64,1.31,5.30,5.30,5.28
69.37,3.56,-1.72,3.56,-1.75,1.77,1.72,1.36,5.32,5.32,5.28
70.07,3.47,-1.88,3.47,-1.87,1.87,1.80,1.41,5.34,5.34,5.35
70.77,3.38,-2.00,3.38,-1.99,1.97,1.88,1.47,5.35,5.35,5.38
71.48,3.29,-2.09,3.29,-2.10,2.06,1.96,1.52,5.35,5.35,5.38
72.19,3.21,-2.17,3.21,-2.16,2.13,2.04,1.58,5.34,5.34,5.38
72.91,3.13,-2.21,3.13,-2.21,2.20,2.12,1.63,5.33,5.33,5.34
73.64,3.05,-2.23,3.05,-2.26,2.26,2.20,1.69,5.30,5.30,5.28
74.38,2.97,-2.32,2.97,-2.30,2.31,2.28,1.75,5.28,5.28,5.28
75.12,2.88,-2.35,2.88,-2.34,2.37,2.36,1.81,5.25,5.25,5.23
75.87,2.80,-2.38,2.80,-2.40,2.43,2.44,1.87,5.23,5.23,5.18
76.63,2.71,-2.47,2.71,-2.47,2.50,2.52,1.93,5.21,5.21,5.18
77.40,2.62,-2.56,2.62,-2.55,2.57,2.60,1.99,5.20,5.20,5.18
78.17,2.54,-2.65,2.54,-2.65,2.65,2.67,2.06,5.18,5.18,5.18
78.95,2.45,-2.74,2.45,-2.74,2.71,2.75,2.13,5.16,5.16,5.18
79.74,2.36,-2.82,2.36,-2.82,2.78,2.83,2.19,5.14,5.14,5.18
80.54,2.27,-2.88,2.27,-2.87,2.83,2.90,2.26,5.10,5.10,5.15
81.35,2.18,-2.91,2.18,-2.91,2.88,2.98,2.34,5.06,5.06,5.09
82.16,2.09,-2.93,2.09,-2.93,2.93,3.05,2.41,5.02,5.02,5.02
82.98,2.00,-2.95,2.00,-2.95,2.98,3.13,2.49,4.98,4.98,4.95
83.81,1.91,-2.97,1.91,-2.99,3.03,3.20,2.57,4.94,4.94,4.88
84.65,1.82,-3.06,1.82,-3.06,3.10,3.27,2.65,4.91,4.91,4.88
85.50,1.73,-3.16,1.73,-3.14,3.17,3.35,2.73,4.90,4.90,4.88
86.35,1.64,-3.24,1.64,-3.24,3.25,3.42,2.81,4.89,4.89,4.88
87.22,1.55,-3.33,1.55,-3.36,3.34,3.49,2.90,4.89,4.89,4.88
88.09,1.46,-3.47,1.46,-3.46,3.43,3.56,2.99,4.89,4.89,4.93
88.97,1.37,-3.59,1.37,-3.55,3.53,3.63,3.08,4.90,4.90,4.96
89.86,1.28,-3.61,1.28,-3.63,3.62,3.70,3.17,4.90,4.90,4.89
90.76,1.19,-3.69,1.19,-3.70,3.71,3.77,3.27,4.90,4.90,4.88
91.66,1.10,-3.78,1.10,-3.77,3.79,3.84,3.37,4.90,4.90,4.88
92.58,1.01,-3.87,1.01,-3.87,3.88,3.91,3.47,4.89,4.89,4.88
93.51,0.92,-3.96,0.92,-3.96,3.96,3.98,3.57,4.89,4.89,4.88
94.44,0.83,-4.05,0.83,-4.05,4.05,4.04,3.68,4.89,4.89,4.88
95.39,0.74,-4.14,0.74,-4.14,4.14,4.11,3.79,4.88,4.88,4.88
96.34,0.65,-4.23,0.65,-4.23,4.22,4.17,3.89,4.88,4.88,4.88
97.30,0.57,-4.32,0.57,-4.32,4.30,4.24,4.01,4.87,4.87,4.88
98.28,0.48,-4.40,0.48,-4.41,4.38,4.30,4.12,4.86,4.86,4.88
99.26,0.39,-4.49,0.39,-4.47,4.46,4.37,4.23,4.85,4.85,4.88
100.25,0.31,-4.53,0.31,-4.53,4.53,4.43,4.35,4.84,4.84,4.84
101.25,0.22,-4.56,0.22,-4.58,4.61,4.49,4.46,4.83,4.83,4.78
102.27,0.13,-4.65,0.13,-4.65,4.69,4.55,4.58,4.82,4.82,4.78
103.29,0.04,-4.74,0.04,-4.73,4.76,4.61,4.70,4.80,4.80,4.78
104.32,-0.04,-4.83,-0.04,-4.83,4.83,4.67,4.82,4.78,4.78,4.78
105.37,-0.13,-4.91,-0.13,-4.91,4.89,4.73,4.93,4.76,4.76,4.78
106.42,-0.21,-4.99,-0.21,-4.99,4.94,4.79,5.05,4.73,4.73,4.78
107.48,-0.28,-5.04,-0.28,-5.03,4.99,4.84,5.17,4.70,4.70,4.76
108.56,-0.36,-5.06,-0.36,-5.05,5.03,4.90,5.28,4.67,4.67,4.70
109.64,-0.43,-5.05,-0.43,-5.05,5.07,4.95,5.39,4.63,4.63,4.62
110.74,-0.51,-5.05,-0.51,-5.06,5.10,5.01,5.50,4.59,4.59,4.54
111.85,-0.58,-5.07,-0.58,-5.08,5.13,5.06,5.60,4.54,4.54,4.49
112.97,-0.66,-5.14,-0.66,-5.14,5.16,5.11,5.70,4.50,4.50,4.48
114.10,-0.74,-5.22,-0.74,-5.21,5.20,5.16,5.80,4.47,4.46,4.48
115.24,-0.82,-5.29,-0.82,-5.27,5.26,5.21,5.89,4.44,4.44,4.47
116.39,-0.90,-5.31,-0.90,-5.32,5.32,5.26,5.98,4.42,4.42,4.41
117.55,-0.97,-5.36,-0.97,-5.37,5.38,5.30,6.05,4.41,4.41,4.38
118.73,-1.04,-5.43,-1.04,-5.42,5.44,5.35,6.12,4.40,4.40,4.38
119.92,-1.11,-5.49,-1.11,-5.50,5.49,5.39,6.18,4.37,4.37,4.38
121.12,-1.18,-5.56,-1.18,-5.56,5.52,5.44,6.24,4.34,4.34,4.38
122.33,-1.24,-5.61,-1.24,-5.60,5.54,5.48,6.28,4.30,4.30,4.37
123.55,-1.31,-5.61,-1.31,-5.60,5.57,5.52,6.32,4.26,4.26,4.30
124.79,-1.37,-5.57,-1.37,-5.58,5.59,5.56,6.35,4.22,4.22,4.20
126.03,-1.43,-5.56,-1.43,-5.57,5.62,5.60,6.37,4.19,4.19,4.13
127.29,-1.50,-5.58,-1.50,-5.59,5.65,5.63,6.38,4.15,4.15,4.08
128.57,-1.56,-5.64,-1.56,-5.64,5.68,5.67,6.39,4.12,4.12,4.08
129.85,-1.62,-5.71,-1.62,-5.71,5.71,5.70,6.38,4.08,4.08,4.08
131.15,-1.69,-5.77,-1.69,-5.77,5.74,5.73,6.36,4.05,4.05,4.08
132.46,-1.74,-5.83,-1.74,-5.82,5.77,5.76,6.34,4.02,4.02,4.08
133.79,-1.80,-5.84,-1.80,-5.84,5.79,5.79,6.31,3.99,3.99,4.04
135.12,-1.86,-5.83,-1.86,-5.84,5.82,5.82,6.28,3.96,3.96,3.98
136.48,-1.91,-5.82,-1.91,-5.82,5.83,5.84,6.24,3.92,3.92,3.91
137.84,-1.97,-5.81,-1.97,-5.81,5.85,5.86,6.19,3.88,3.88,3.84
139.22,-2.02,-5.81,-2.02,-5.82,5.86,5.89,6.14,3.84,3.84,3.78
140.61,-2.07,-5.86,-2.07,-5.85,5.88,5.91,6.08,3.80,3.80,3.78
142.02,-2.12,-5.90,-2.12,-5.90,5.89,5.93,6.02,3.78,3.78,3.78
143.44,-2.16,-5.94,-2.16,-5.94,5.91,5.94,5.96,3.75,3.75,3.78
144.87,-2.20,-5.98,-2.20,-5.96,5.94,5.96,5.90,3.74,3.74,3.78
146.32,-2.24,-5.96,-2.24,-5.98,5.96,5.97,5.83,3.72,3.72,3.72
147.78,-2.28,-5.97,-2.28,-5.97,5.98,5.98,5.77,3.70,3.70,3.68
149.26,-2.33,-5.99,-2.33,-5.97,5.99,5.99,5.70,3.66,3.66,3.67
150.75,-2.37,-5.96,-2.37,-5.98,5.99,6.00,5.64,3.62,3.62,3.59
152.26,-2.40,-5.99,-2.40,-6.00,5.98,6.01,5.58,3.58,3.58,3.58
153.78,-2.44,-6.02,-2.44,-5.99,5.97,6.01,5.51,3.54,3.54,3.58
155.32,-2.47,-5.98,-2.47,-5.98,5.96,6.01,5.45,3.50,3.50,3.52
156.88,-2.50,-5.94,-2.50,-5.95,5.95,6.02,5.39,3.46,3.46,3.44
158.44,-2.53,-5.91,-2.53,-5.93,5.94,6.02,5.33,3.42,3.42,3.38
160.03,-2.56,-5.94,-2.56,-5.91,5.93,6.02,5.28,3.38,3.38,3.38
161.63,-2.59,-5.91,-2.59,-5.92,5.92,6.01,5.23,3.33,3.33,3.33
163.24,-2.62,-5.90,-2.62,-5.92,5.91,6.01,5.18,3.30,3.30,3.28
164.88,-2.65,-5.93,-2.65,-5.91,5.91,6.00,5.13,3.26,3.26,3.28
166.53,-2.68,-5.91,-2.68,-5.90,5.91,5.99,5.09,3.24,3.24,3.23
168.19,-2.70,-5.89,-2.70,-5.91,5.91,5.98,5.05,3.21,3.21,3.18
169.87,-2.73,-5.91,-2.73,-5.91,5.91,5.97,5.02,3.18,3.18,3.18
171.57,-2.75,-5.94,-2.75,-5.91,5.91,5.96,4.99,3.16,3.16,3.18
173.29,-2.78,-5.91,-2.78,-5.91,5.90,5.94,4.96,3.12,3.12,3.14
175.02,-2.80,-5.88,-2.79,-5.90,5.89,5.93,4.93,3.09,3.09,3.08
176.77,-2.81,-5.89,-2.81,-5.88,5.87,5.91,4.91,3.06,3.06,3.08
178.54,-2.83,-5.86,-2.83,-5.85,5.85,5.89,4.90,3.02,3.02,3.03
180.32,-2.84,-5.81,-2.84,-5.81,5.82,5.87,4.88,2.98,2.98,2.97
182.13,-2.85,-5.76,-2.85,-5.77,5.78,5.85,4.87,2.93,2.93,2.91
183.95,-2.86,-5.74,-2.86,-5.75,5.75,5.83,4.87,2.89,2.89,2.88
185.79,-2.88,-5.73,-2.88,-5.72,5.72,5.80,4.87,2.84,2.84,2.86
187.65,-2.89,-5.69,-2.89,-5.68,5.68,5.78,4.87,2.79,2.79,2.79
189.52,-2.91,-5.64,-2.91,-5.65,5.65,5.75,4.87,2.75,2.75,2.73
191.42,-2.92,-5.61,-2.92,-5.62,5.62,5.72,4.88,2.70,2.70,2.68
193.33,-2.94,-5.62,-2.94,-5.59,5.60,5.70,4.89,2.66,2.66,2.68
195.27,-2.95,-5.57,-2.95,-5.58,5.57,5.67,4.91,2.62,2.62,2.62
197.22,-2.96,-5.54,-2.96,-5.55,5.55,5.64,4.93,2.59,2.59,2.58
199.19,-2.97,-5.54,-2.97,-5.52,5.53,5.60,4.95,2.56,2.56,2.58
201.18,-2.97,-5.48,-2.97,-5.49,5.51,5.57,4.97,2.53,2.53,2.51
203.19,-2.98,-5.46,-2.98,-5.48,5.49,5.54,4.99,2.51,2.51,2.48
205.23,-2.99,-5.47,-2.99,-5.47,5.47,5.50,5.02,2.49,2.49,2.48
207.28,-2.99,-5.48,-2.99,-5.46,5.45,5.47,5.05,2.46,2.46,2.48
209.35,-3.00,-5.44,-3.00,-5.44,5.42,5.43,5.08,2.42,2.42,2.44
211.44,-3.01,-5.39,-3.01,-5.41,5.39,5.40,5.11,2.39,2.39,2.38
213.56,-3.01,-5.39,-3.01,-5.37,5.36,5.36,5.14,2.35,2.35,2.38
215.69,-3.01,-5.34,-3.01,-5.33,5.32,5.32,5.17,2.30,2.30,2.33
217.85,-3.02,-5.27,-3.02,-5.28,5.27,5.28,5.21,2.25,2.25,2.25
220.03,-3.03,-5.21,-3.03,-5.21,5.23,5.24,5.24,2.20,2.20,2.18
222.23,-3.03,-5.16,-3.03,-5.17,5.18,5.20,5.26,2.15,2.15,2.13
224.45,-3.04,-5.12,-3.04,-5.13,5.14,5.16,5.29,2.10,2.10,2.08
226.70,-3.04,-5.12,-3.04,-5.10,5.11,5.12,5.32,2.06,2.06,2.08
228.96,-3.04,-5.06,-3.04,-5.07,5.07,5.08,5.34,2.03,2.03,2.02
231.25,-3.04,-5.02,-3.04,-5.04,5.04,5.04,5.36,2.00,2.00,1.98
233.57,-3.04,-5.02,-3.04,-5.02,5.02,5.00,5.38,1.98,1.98,1.98
235.90,-3.04,-5.02,-3.04,-5.00,4.99,4.96,5.39,1.95,1.95,1.98
238.26,-3.03,-4.97,-3.03,-4.97,4.96,4.92,5.40,1.93,1.93,1.94
240.64,-3.03,-4.91,-3.03,-4.94,4.93,4.87,5.40,1.90,1.90,1.88
243.05,-3.03,-4.91,-3.03,-4.89,4.90,4.83,5.40,1.87,1.87,1.88
245.48,-3.02,-4.85,-3.02,-4.85,4.85,4.79,5.40,1.83,1.83,1.83
247.93,-3.01,-4.79,-3.01,-4.82,4.80,4.75,5.39,1.79,1.79,1.78
250.41,-3.00,-4.78,-3.00,-4.77,4.75,4.70,5.37,1.75,1.75,1.78
252.92,-2.98,-4.72,-2.98,-4.70,4.69,4.66,5.35,1.71,1.71,1.73
255.45,-2.97,-4.64,-2.97,-4.63,4.63,4.62,5.32,1.67,1.67,1.67
258.00,-2.95,-4.54,-2.96,-4.57,4.58,4.58,5.29,1.63,1.63,1.58
260.58,-2.95,-4.53,-2.95,-4.51,4.54,4.53,5.25,1.59,1.59,1.58
263.19,-2.94,-4.49,-2.94,-4.47,4.50,4.49,5.21,1.56,1.56,1.55
265.82,-2.93,-4.42,-2.93,-4.44,4.46,4.45,5.16,1.53,1.53,1.49
268.48,-2.93,-4.41,-2.93,-4.42,4.42,4.41,5.11,1.49,1.49,1.48
271.16,-2.93,-4.41,-2.93,-4.41,4.38,4.36,5.05,1.46,1.46,1.48
273.87,-2.93,-4.41,-2.93,-4.39,4.35,4.32,4.99,1.42,1.42,1.48
276.61,-2.93,-4.34,-2.93,-4.34,4.31,4.28,4.93,1.38,1.38,1.42
279.38,-2.92,-4.27,-2.92,-4.27,4.27,4.24,4.86,1.34,1.34,1.35
282.17,-2.92,-4.20,-2.92,-4.20,4.22,4.20,4.79,1.30,1.30,1.28
284.99,-2.92,-4.13,-2.92,-4.14,4.18,4.16,4.72,1.26,1.26,1.21
287.84,-2.92,-4.10,-2.92,-4.11,4.14,4.12,4.65,1.22,1.22,1.18
290.72,-2.92,-4.10,-2.92,-4.10,4.10,4.08,4.58,1.18,1.18,1.18
293.63,-2.92,-4.10,-2.92,-4.07,4.06,4.04,4.51,1.14,1.14,1.18
296.57,-2.92,-4.03,-2.92,-4.05,4.03,4.00,4.44,1.11,1.11,1.12
299.53,-2.91,-4.00,-2.91,-4.01,4.00,3.96,4.36,1.08,1.08,1.08
302.53,-2.91,-3.99,-2.91,-3.97,3.97,3.92,4.29,1.05,1.05,1.08
305.55,-2.91,-3.93,-2.91,-3.94,3.93,3.88,4.22,1.02,1.02,1.02
308.61,-2.90,-3.89,-2.90,-3.90,3.89,3.84,4.15,0.99,0.99,0.98
311.69,-2.90,-3.88,-2.90,-3.85,3.86,3.80,4.08,0.96,0.96,0.98
314.81,-2.89,-3.80,-2.89,-3.81,3.84,3.77,4.01,0.94,0.94,0.91
317.96,-2.89,-3.77,-2.89,-3.78,3.81,3.73,3.94,0.92,0.92,0.88
321.14,-2.88,-3.77,-2.88,-3.76,3.79,3.70,3.87,0.90,0.90,0.88
324.35,-2.88,-3.76,-2.88,-3.77,3.76,3.66,3.81,0.88,0.88,0.88
327.59,-2.88,-3.76,-2.88,-3.76,3.72,3.63,3.75,0.84,0.84,0.88
330.87,-2.88,-3.74,-2.88,-3.73,3.69,3.59,3.69,0.81,0.81,0.86
334.18,-2.88,-3.68,-2.88,-3.68,3.65,3.56,3.63,0.77,0.77,0.80
337.52,-2.88,-3.61,-2.88,-3.61,3.61,3.53,3.58,0.73,0.73,0.73
340.90,-2.87,-3.54,-2.87,-3.53,3.56,3.49,3.53,0.69,0.69,0.66
344.30,-2.87,-3.47,-2.87,-3.48,3.52,3.46,3.48,0.65,0.65,0.60
347.75,-2.87,-3.45,-2.87,-3.46,3.47,3.43,3.43,0.60,0.60,0.58
351.23,-2.87,-3.45,-2.87,-3.45,3.44,3.40,3.39,0.57,0.57,0.58
354.74,-2.87,-3.45,-2.87,-3.42,3.41,3.37,3.35,0.54,0.54,0.58
358.28,-2.87,-3.38,-2.87,-3.39,3.40,3.34,3.31,0.53,0.53,0.52
361.87,-2.86,-3.34,-2.86,-3.36,3.39,3.31,3.27,0.53,0.53,0.48
365.49,-2.86,-3.35,-2.86,-3.37,3.38,3.29,3.24,0.53,0.53,0.49
369.14,-2.85,-3.40,-2.85,-3.37,3.37,3.26,3.21,0.52,0.52,0.55
372.83,-2.85,-3.39,-2.85,-3.38,3.35,3.23,3.18,0.50,0.50,0.55
376.56,-2.84,-3.32,-2.84,-3.36,3.31,3.21,3.15,0.47,0.47,0.48
380.33,-2.84,-3.32,-2.84,-3.31,3.28,3.18,3.13,0.44,0.44,0.48
384.13,-2.83,-3.27,-2.83,-3.26,3.24,3.16,3.11,0.40,0.40,0.44
387.97,-2.83,-3.20,-2.83,-3.20,3.20,3.13,3.09,0.37,0.37,0.37
391.85,-2.83,-3.13,-2.83,-3.12,3.16,3.11,3.07,0.33,0.33,0.30
395.77,-2.82,-3.05,-2.82,-3.07,3.12,3.09,3.05,0.30,0.30,0.23
399.73,-2.82,-3.03,-2.82,-3.06,3.10,3.07,3.04,0.27,0.28,0.21
403.72,-2.82,-3.09,-2.82,-3.07,3.08,3.05,3.03,0.27,0.27,0.28
407.76,-2.81,-3.09,-2.81,-3.09,3.08,3.03,3.02,0.27,0.27,0.28
411.84,-2.81,-3.09,-2.81,-3.10,3.08,3.01,3.01,0.27,0.27,0.28
415.96,-2.80,-3.09,-2.80,-3.09,3.08,2.99,3.00,0.28,0.28,0.28
420.12,-2.80,-3.08,-2.80,-3.09,3.07,2.97,2.99,0.27,0.27,0.28
424.32,-2.80,-3.08,-2.80,-3.08,3.05,2.95,2.98,0.26,0.26,0.28
428.56,-2.79,-3.06,-2.79,-3.05,3.02,2.93,2.98,0.23,0.23,0.27
432.85,-2.79,-2.99,-2.79,-2.99,2.97,2.91,2.97,0.19,0.19,0.20
437.18,-2.78,-2.92,-2.78,-2.92,2.92,2.90,2.97,0.14,0.14,0.14
441.55,-2.78,-2.85,-2.78,-2.84,2.87,2.88,2.96,0.09,0.09,0.07
445.96,-2.77,-2.77,-2.77,-2.79,2.81,2.86,2.96,0.04,0.04,-0.00
450.42,-2.77,-2.75,-2.77,-2.74,2.76,2.84,2.95,-0.00,-0.00,-0.02
454.93,-2.76,-2.73,-2.76,-2.70,2.72,2.83,2.94,-0.04,-0.04,-0.03
459.48,-2.76,-2.65,-2.76,-2.67,2.68,2.81,2.94,-0.08,-0.08,-0.11
464.07,-2.75,-2.63,-2.75,-2.64,2.64,2.79,2.93,-0.11,-0.11,-0.12
468.71,-2.75,-2.63,-2.75,-2.62,2.61,2.78,2.92,-0.14,-0.14,-0.12
473.40,-2.74,-2.62,-2.74,-2.60,2.58,2.76,2.91,-0.16,-0.16,-0.12
478.13,-2.73,-2.56,-2.73,-2.57,2.55,2.74,2.89,-0.19,-0.19,-0.18
482.91,-2.73,-2.51,-2.73,-2.52,2.52,2.72,2.88,-0.21,-0.21,-0.22
487.74,-2.72,-2.51,-2.72,-2.47,2.50,2.70,2.86,-0.22,-0.22,-0.22
492.62,-2.72,-2.43,-2.72,-2.46,2.49,2.68,2.84,-0.23,-0.23,-0.28
497.55,-2.71,-2.43,-2.71,-2.45,2.48,2.66,2.82,-0.23,-0.23,-0.28
502.52,-2.70,-2.49,-2.70,-2.46,2.47,2.64,2.79,-0.24,-0.24,-0.22
507.55,-2.70,-2.48,-2.70,-2.48,2.46,2.62,2.77,-0.24,-0.24,-0.22
512.62,-2.69,-2.47,-2.69,-2.48,2.45,2.60,2.74,-0.24,-0.24,-0.22
517.75,-2.68,-2.46,-2.68,-2.47,2.44,2.57,2.71,-0.25,-0.25,-0.22
522.93,-2.67,-2.45,-2.67,-2.43,2.42,2.55,2.68,-0.25,-0.25,-0.22
528.16,-2.66,-2.39,-2.66,-2.39,2.40,2.52,2.64,-0.26,-0.26,-0.27
533.44,-2.65,-2.34,-2.65,-2.35,2.38,2.50,2.60,-0.27,-0.28,-0.32
