frequency,raw,error,smoothed,error_smoothed,equalization,parametric_eq,fixed_band_eq,equalized_raw,equalized_smoothed,target
20.00,19.43,4.31,19.42,4.31,-4.32,-4.17,-1.75,15.10,15.10,15.11
20.20,19.44,4.31,19.44,4.30,-4.30,-4.27,-1.80,15.14,15.14,15.13
20.40,19.45,4.29,19.46,4.29,-4.29,-4.36,-1.85,15.17,15.17,15.16
20.61,19.47,4.28,19.47,4.28,-4.27,-4.42,-1.90,15.20,15.20,15.19
20.81,19.49,4.26,19.49,4.26,-4.26,-4.48,-1.96,15.23,15.23,15.23
21.02,19.50,4.24,19.50,4.24,-4.24,-4.49,-2.02,15.26,15.26,15.26
21.23,19.51,4.23,19.51,4.23,-4.23,-4.50,-2.07,15.28,15.28,15.29
21.44,19.52,4.21,19.52,4.21,-4.22,-4.46,-2.14,15.30,15.30,15.31
21.66,19.52,4.20,19.52,4.20,-4.21,-4.42,-2.20,15.31,15.31,15.32
21.87,19.52,4.20,19.52,4.20,-4.20,-4.37,-2.26,15.32,15.32,15.33
22.09,19.52,4.19,19.52,4.19,-4.20,-4.31,-2.33,15.33,15.33,15.33
22.31,19.52,4.19,19.52,4.19,-4.19,-4.25,-2.40,15.33,15.33,15.33
22.54,19.52,4.19,19.52,4.19,-4.18,-4.19,-2.47,15.34,15.34,15.33
22.76,19.52,4.18,19.52,4.18,-4.18,-4.13,-2.54,15.34,15.34,15.34
22.99,19.52,4.17,19.52,4.17,-4.17,-4.08,-2.61,15.35,15.35,15.34
23.22,19.51,4.16,19.51,4.16,-4.16,-4.05,-2.69,15.35,15.35,15.35
23.45,19.51,4.15,19.51,4.15,-4.15,-4.01,-2.76,15.36,15.36,15.36
23.69,19.50,4.13,19.50,4.13,-4.13,-3.98,-2.84,15.37,15.37,15.37
23.92,19.49,4.11,19.49,4.11,-4.12,-3.95,-2.92,15.37,15.37,15.37
24.16,19.48,4.10,19.48,4.10,-4.10,-3.93,-3.00,15.38,15.38,15.38
24.40,19.46,4.08,19.46,4.08,-4.08,-3.91,-3.08,15.38,15.38,15.38
24.65,19.44,4.06,19.44,4.06,-4.06,-3.90,-3.17,15.38,15.38,15.38
24.89,19.42,4.04,19.42,4.04,-4.04,-3.89,-3.25,15.38,15.38,15.38
25.14,19.40,4.02,19.40,4.02,-4.03,-3.88,-3.33,15.37,15.37,15.37
25.39,19.37,4.01,19.37,4.01,-4.01,-3.87,-3.42,15.36,15.36,15.37
25.65,19.35,3.99,19.35,3.99,-4.00,-3.87,-3.51,15.35,15.35,15.36
25.91,19.32,3.98,19.32,3.98,-3.98,-3.86,-3.59,15.34,15.34,15.34
26.16,19.29,3.96,19.29,3.96,-3.96,-3.86,-3.68,15.32,15.32,15.32
26.43,19.26,3.95,19.26,3.95,-3.95,-3.85,-3.76,15.31,15.31,15.31
26.69,19.23,3.94,19.23,3.94,-3.93,-3.85,-3.85,15.30,15.30,15.29
26.96,19.20,3.92,19.20,3.92,-3.91,-3.85,-3.93,15.29,15.29,15.29
27.23,19.18,3.89,19.18,3.89,-3.89,-3.85,-4.01,15.29,15.29,15.28
27.50,19.15,3.87,19.15,3.87,-3.87,-3.85,-4.09,15.28,15.28,15.29
27.77,19.13,3.84,19.13,3.84,-3.85,-3.85,-4.16,15.28,15.28,15.29
28.05,19.11,3.82,19.11,3.83,-3.84,-3.85,-4.24,15.27,15.27,15.28
28.33,19.08,3.81,19.08,3.81,-3.82,-3.85,-4.31,15.27,15.27,15.27
28.62,19.06,3.80,19.06,3.80,-3.80,-3.85,-4.37,15.26,15.26,15.26
28.90,19.04,3.80,19.04,3.79,-3.79,-3.85,-4.43,15.25,15.25,15.24
29.19,19.02,3.79,19.02,3.79,-3.78,-3.85,-4.49,15.24,15.24,15.23
29.48,19.00,3.77,19.00,3.77,-3.76,-3.85,-4.54,15.23,15.23,15.22
29.78,18.97,3.75,18.97,3.75,-3.75,-3.85,-4.59,15.23,15.23,15.22
30.08,18.95,3.73,18.95,3.73,-3.73,-3.85,-4.63,15.22,15.22,15.22
30.38,18.93,3.71,18.93,3.71,-3.72,-3.84,-4.66,15.21,15.21,15.22
30.68,18.91,3.70,18.91,3.70,-3.71,-3.84,-4.69,15.21,15.21,15.22
30.99,18.90,3.69,18.90,3.69,-3.69,-3.84,-4.71,15.20,15.20,15.21
31.30,18.88,3.68,18.88,3.68,-3.68,-3.84,-4.72,15.20,15.20,15.20
31.61,18.86,3.68,18.86,3.68,-3.67,-3.84,-4.73,15.19,15.19,15.19
31.93,18.85,3.67,18.85,3.67,-3.67,-3.83,-4.73,15.18,15.18,15.18
32.24,18.84,3.67,18.84,3.67,-3.67,-3.83,-4.72,15.17,15.17,15.17
32.57,18.82,3.66,18.82,3.66,-3.67,-3.83,-4.71,15.16,15.16,15.16
32.89,18.81,3.66,18.81,3.66,-3.66,-3.82,-4.69,15.15,15.15,15.15
33.22,18.80,3.66,18.80,3.66,-3.66,-3.82,-4.67,15.14,15.14,15.14
33.55,18.79,3.66,18.79,3.66,-3.65,-3.82,-4.64,15.13,15.13,15.12
33.89,18.78,3.66,18.78,3.66,-3.65,-3.81,-4.60,15.13,15.13,15.12
34.23,18.77,3.65,18.77,3.65,-3.64,-3.81,-4.57,15.13,15.13,15.12
34.57,18.75,3.63,18.75,3.63,-3.63,-3.80,-4.52,15.12,15.12,15.12
34.92,18.74,3.62,18.74,3.62,-3.63,-3.79,-4.48,15.12,15.12,15.13
35.27,18.73,3.61,18.73,3.61,-3.62,-3.79,-4.43,15.11,15.11,15.13
35.62,18.72,3.61,18.72,3.61,-3.62,-3.78,-4.37,15.10,15.10,15.12
35.97,18.71,3.62,18.71,3.62,-3.62,-3.77,-4.32,15.09,15.09,15.09
36.33,18.70,3.63,18.70,3.63,-3.62,-3.77,-4.26,15.07,15.07,15.07
36.70,18.69,3.64,18.69,3.64,-3.63,-3.76,-4.21,15.06,15.06,15.05
37.06,18.67,3.65,18.67,3.65,-3.64,-3.75,-4.15,15.04,15.04,15.03
37.43,18.66,3.65,18.66,3.65,-3.64,-3.74,-4.09,15.02,15.02,15.02
37.81,18.65,3.65,18.65,3.65,-3.65,-3.73,-4.03,15.00,15.00,15.00
38.19,18.64,3.64,18.64,3.65,-3.65,-3.72,-3.97,14.98,14.98,14.99
38.57,18.62,3.65,18.62,3.65,-3.66,-3.71,-3.92,14.97,14.97,14.97
38.95,18.61,3.66,18.61,3.66,-3.66,-3.70,-3.86,14.95,14.95,14.95
39.34,18.60,3.67,18.60,3.67,-3.66,-3.69,-3.80,14.94,14.94,14.93
39.74,18.58,3.67,18.58,3.67,-3.66,-3.68,-3.75,14.92,14.92,14.91
40.14,18.57,3.67,18.57,3.67,-3.66,-3.67,-3.70,14.91,14.91,14.90
40.54,18.56,3.66,18.56,3.66,-3.66,-3.66,-3.65,14.89,14.89,14.89
40.94,18.54,3.66,18.54,3.66,-3.66,-3.65,-3.60,14.88,14.88,14.88
41.35,18.52,3.65,18.52,3.65,-3.66,-3.64,-3.55,14.86,14.86,14.87
41.76,18.51,3.65,18.51,3.65,-3.66,-3.62,-3.51,14.85,14.85,14.86
42.18,18.49,3.66,18.49,3.66,-3.66,-3.61,-3.46,14.83,14.83,14.83
42.60,18.47,3.66,18.47,3.66,-3.66,-3.60,-3.42,14.81,14.81,14.81
43.03,18.45,3.67,18.45,3.67,-3.65,-3.58,-3.39,14.79,14.79,14.78
43.46,18.42,3.66,18.42,3.66,-3.65,-3.57,-3.35,14.77,14.77,14.76
43.90,18.40,3.65,18.40,3.65,-3.65,-3.56,-3.32,14.75,14.75,14.75
44.33,18.37,3.63,18.37,3.64,-3.65,-3.54,-3.29,14.73,14.73,14.74
44.78,18.35,3.63,18.35,3.63,-3.64,-3.53,-3.26,14.70,14.70,14.72
45.23,18.32,3.63,18.32,3.63,-3.64,-3.51,-3.24,14.68,14.68,14.69
45.68,18.29,3.63,18.29,3.63,-3.63,-3.50,-3.21,14.66,14.66,14.66
46.13,18.26,3.63,18.26,3.63,-3.62,-3.48,-3.19,14.64,14.64,14.63
46.60,18.23,3.62,18.23,3.62,-3.61,-3.47,-3.18,14.62,14.62,14.61
47.06,18.19,3.60,18.19,3.60,-3.60,-3.45,-3.16,14.59,14.59,14.59
47.53,18.16,3.58,18.16,3.58,-3.59,-3.44,-3.15,14.57,14.57,14.58
48.01,18.12,3.57,18.12,3.57,-3.58,-3.42,-3.14,14.55,14.55,14.56
48.49,18.09,3.56,18.09,3.56,-3.56,-3.41,-3.13,14.53,14.53,14.53
48.97,18.05,3.55,18.05,3.55,-3.55,-3.39,-3.12,14.50,14.51,14.50
49.46,18.01,3.54,18.01,3.53,-3.53,-3.37,-3.12,14.48,14.48,14.48
49.96,17.98,3.52,17.98,3.52,-3.52,-3.36,-3.12,14.46,14.46,14.46
50.46,17.94,3.50,17.94,3.50,-3.50,-3.34,-3.12,14.43,14.43,14.43
50.96,17.89,3.49,17.89,3.49,-3.49,-3.33,-3.12,14.41,14.41,14.41
51.47,17.85,3.47,17.85,3.47,-3.47,-3.31,-3.12,14.38,14.38,14.38
51.99,17.81,3.45,17.81,3.45,-3.45,-3.29,-3.12,14.36,14.36,14.36
52.51,17.76,3.43,17.76,3.43,-3.43,-3.28,-3.13,14.33,14.33,14.33
53.03,17.72,3.41,17.72,3.41,-3.41,-3.26,-3.13,14.30,14.30,14.31
53.56,17.67,3.39,17.67,3.39,-3.39,-3.24,-3.14,14.28,14.28,14.28
54.10,17.62,3.37,17.62,3.37,-3.37,-3.23,-3.15,14.25,14.25,14.25
54.64,17.57,3.35,17.57,3.35,-3.34,-3.21,-3.15,14.22,14.22,14.22
55.18,17.52,3.32,17.52,3.32,-3.32,-3.20,-3.16,14.20,14.20,14.20
55.74,17.47,3.29,17.47,3.29,-3.30,-3.18,-3.17,14.17,14.17,14.17
56.29,17.41,3.27,17.41,3.27,-3.27,-3.16,-3.17,14.14,14.14,14.15
56.86,17.36,3.25,17.36,3.25,-3.25,-3.15,-3.18,14.11,14.11,14.11
57.42,17.31,3.23,17.31,3.23,-3.23,-3.13,-3.19,14.08,14.08,14.08
58.00,17.26,3.21,17.26,3.21,-3.21,-3.12,-3.19,14.05,14.05,14.05
58.58,17.21,3.19,17.21,3.19,-3.18,-3.10,-3.19,14.02,14.02,14.02
59.16,17.15,3.16,17.15,3.16,-3.16,-3.08,-3.19,13.99,13.99,13.99
59.76,17.10,3.14,17.10,3.14,-3.15,-3.07,-3.19,13.96,13.96,13.96
60.35,17.05,3.12,17.05,3.12,-3.12,-3.05,-3.19,13.92,13.92,13.93
60.96,17.00,3.10,17.00,3.11,-3.10,-3.04,-3.19,13.89,13.89,13.89
61.57,16.94,3.09,16.94,3.09,-3.08,-3.03,-3.19,13.86,13.86,13.85
62.18,16.89,3.07,16.89,3.07,-3.06,-3.01,-3.18,13.82,13.82,13.81
62.80,16.83,3.04,16.83,3.05,-3.05,-3.00,-3.17,13.79,13.79,13.79
63.43,16.78,3.02,16.78,3.02,-3.03,-2.98,-3.16,13.75,13.75,13.76
64.07,16.73,3.01,16.73,3.00,-3.01,-2.97,-3.14,13.72,13.72,13.72
64.71,16.68,2.98,16.68,2.99,-2.99,-2.96,-3.13,13.69,13.69,13.70
65.35,16.63,2.97,16.63,2.97,-2.97,-2.94,-3.11,13.65,13.65,13.66
66.01,16.57,2.97,16.57,2.96,-2.95,-2.93,-3.09,13.62,13.62,13.61
66.67,16.52,2.94,16.52,2.94,-2.94,-2.92,-3.07,13.58,13.58,13.58
67.33,16.47,2.92,16.47,2.92,-2.92,-2.91,-3.05,13.54,13.54,13.55
68.01,16.42,2.90,16.42,2.91,-2.91,-2.90,-3.03,13.50,13.50,13.51
68.69,16.36,2.91,16.36,2.89,-2.90,-2.88,-3.00,13.46,13.46,13.45
69.37,16.31,2.89,16.31,2.88,-2.89,-2.87,-2.98,13.43,13.43,13.42
70.07,16.26,2.85,16.26,2.88,-2.87,-2.86,-2.95,13.39,13.39,13.41
70.77,16.20,2.89,16.20,2.86,-2.86,-2.85,-2.92,13.35,13.35,13.32
71.48,16.15,2.86,16.15,2.85,-2.85,-2.84,-2.90,13.30,13.30,13.29
72.19,16.10,2.81,16.10,2.84,-2.83,-2.84,-2.87,13.26,13.26,13.28
72.91,16.04,2.83,16.04,2.82,-2.82,-2.83,-2.84,13.22,13.22,13.21
73.64,15.99,2.81,15.99,2.79,-2.81,-2.82,-2.81,13.18,13.18,13.18
74.38,15.94,2.77,15.94,2.79,-2.79,-2.81,-2.79,13.15,13.15,13.17
75.12,15.89,2.75,15.89,2.79,-2.77,-2.80,-2.76,13.12,13.12,13.14
75.87,15.84,2.82,15.84,2.77,-2.75,-2.80,-2.74,13.09,13.09,13.03
76.63,15.80,2.78,15.80,2.75,-2.74,-2.79,-2.71,13.06,13.06,13.01
77.40,15.75,2.67,15.75,2.73,-2.73,-2.79,-2.69,13.02,13.02,13.08
78.17,15.70,2.70,15.70,2.69,-2.72,-2.78,-2.66,12.98,12.98,13.00
78.95,15.65,2.72,15.65,2.67,-2.71,-2.78,-2.64,12.93,12.93,12.93
79.74,15.60,2.65,15.60,2.71,-2.71,-2.77,-2.62,12.89,12.89,12.95
80.54,15.55,2.70,15.55,2.72,-2.70,-2.77,-2.60,12.85,12.85,12.85
81.35,15.50,2.78,15.50,2.72,-2.70,-2.76,-2.59,12.80,12.80,12.72
82.16,15.45,2.70,15.45,2.73,-2.71,-2.76,-2.57,12.75,12.75,12.75
82.98,15.41,2.69,15.41,2.72,-2.71,-2.75,-2.56,12.70,12.70,12.72
83.81,15.36,2.72,15.36,2.70,-2.71,-2.75,-2.54,12.65,12.65,12.64
84.65,15.31,2.70,15.31,2.70,-2.71,-2.75,-2.53,12.60,12.60,12.61
85.50,15.26,2.69,15.26,2.70,-2.70,-2.74,-2.53,12.56,12.56,12.58
86.35,15.22,2.69,15.21,2.70,-2.69,-2.74,-2.52,12.52,12.52,12.53
87.22,15.16,2.72,15.16,2.70,-2.69,-2.74,-2.51,12.48,12.48,12.44
88.09,15.11,2.69,15.11,2.68,-2.68,-2.73,-2.51,12.43,12.43,12.42
88.97,15.06,2.66,15.06,2.67,-2.67,-2.73,-2.51,12.39,12.39,12.40
89.86,15.01,2.65,15.01,2.66,-2.67,-2.72,-2.51,12.34,12.34,12.36
90.76,14.96,2.68,14.96,2.66,-2.66,-2.72,-2.51,12.30,12.30,12.28
91.66,14.91,2.67,14.91,2.65,-2.65,-2.72,-2.52,12.26,12.26,12.24
92.58,14.86,2.62,14.86,2.64,-2.65,-2.71,-2.53,12.22,12.22,12.24
93.51,14.81,2.63,14.81,2.64,-2.64,-2.71,-2.53,12.17,12.17,12.18
94.44,14.76,2.65,14.76,2.64,-2.64,-2.70,-2.54,12.12,12.12,12.11
95.39,14.72,2.65,14.72,2.64,-2.64,-2.69,-2.55,12.07,12.07,12.06
96.34,14.67,2.62,14.67,2.64,-2.64,-2.69,-2.57,12.03,12.03,12.05
97.30,14.62,2.63,14.62,2.64,-2.64,-2.68,-2.58,11.98,11.98,11.99
98.28,14.57,2.67,14.57,2.65,-2.64,-2.67,-2.60,11.93,11.93,11.90
99.26,14.52,2.67,14.52,2.65,-2.64,-2.66,-2.62,11.88,11.88,11.85
100.25,14.47,2.63,14.47,2.63,-2.65,-2.66,-2.64,11.82,11.82,11.84
101.25,14.42,2.59,14.42,2.63,-2.66,-2.65,-2.66,11.76,11.76,11.83
102.27,14.37,2.65,14.37,2.64,-2.66,-2.64,-2.68,11.70,11.70,11.71
103.29,14.32,2.71,14.32,2.67,-2.67,-2.63,-2.70,11.65,11.65,11.61
104.32,14.26,2.66,14.26,2.70,-2.67,-2.62,-2.72,11.59,11.59,11.60
105.37,14.21,2.70,14.21,2.69,-2.67,-2.61,-2.74,11.54,11.54,11.52
106.42,14.16,2.70,14.16,2.68,-2.66,-2.60,-2.77,11.49,11.49,11.46
107.48,14.11,2.66,14.11,2.67,-2.66,-2.59,-2.79,11.45,11.45,11.44
108.56,14.05,2.65,14.05,2.65,-2.65,-2.58,-2.81,11.40,11.40,11.41
109.64,14.00,2.63,14.00,2.63,-2.64,-2.57,-2.84,11.36,11.36,11.37
110.74,13.95,2.61,13.95,2.62,-2.64,-2.56,-2.86,11.30,11.30,11.34
111.85,13.89,2.62,13.89,2.61,-2.65,-2.56,-2.88,11.24,11.24,11.27
112.97,13.83,2.63,13.83,2.63,-2.66,-2.55,-2.90,11.17,11.17,11.21
114.10,13.78,2.65,13.78,2.66,-2.67,-2.54,-2.92,11.11,11.11,11.13
115.24,13.72,2.71,13.72,2.70,-2.67,-2.53,-2.94,11.05,11.05,11.01
116.39,13.66,2.72,13.66,2.72,-2.67,-2.53,-2.96,10.99,10.99,10.94
117.55,13.61,2.71,13.61,2.71,-2.67,-2.52,-2.97,10.94,10.94,10.89
118.73,13.54,2.66,13.54,2.66,-2.65,-2.51,-2.98,10.89,10.89,10.88
119.92,13.48,2.61,13.48,2.62,-2.62,-2.51,-2.99,10.86,10.86,10.87
121.12,13.41,2.56,13.41,2.56,-2.59,-2.51,-3.00,10.83,10.83,10.85
122.33,13.35,2.53,13.35,2.53,-2.54,-2.51,-3.01,10.80,10.80,10.82
123.55,13.28,2.47,13.28,2.51,-2.50,-2.51,-3.01,10.78,10.78,10.80
124.79,13.20,2.53,13.20,2.47,-2.46,-2.51,-3.01,10.74,10.74,10.68
126.03,13.13,2.43,13.13,2.43,-2.43,-2.51,-3.01,10.70,10.70,10.70
127.29,13.06,2.37,13.06,2.40,-2.41,-2.51,-3.01,10.65,10.65,10.69
128.57,12.99,2.37,12.99,2.37,-2.40,-2.52,-3.00,10.59,10.59,10.62
129.85,12.92,2.38,12.92,2.38,-2.38,-2.52,-2.99,10.53,10.54,10.53
131.15,12.84,2.40,12.84,2.38,-2.36,-2.53,-2.98,10.48,10.48,10.44
132.46,12.77,2.37,12.77,2.38,-2.35,-2.54,-2.97,10.42,10.42,10.40
133.79,12.69,2.36,12.69,2.36,-2.33,-2.55,-2.95,10.36,10.36,10.33
135.12,12.62,2.34,12.62,2.34,-2.32,-2.56,-2.94,10.30,10.30,10.28
136.48,12.56,2.32,12.56,2.32,-2.32,-2.57,-2.92,10.24,10.24,10.24
137.84,12.51,2.31,12.52,2.31,-2.34,-2.59,-2.90,10.18,10.18,10.20
139.22,12.49,2.32,12.49,2.32,-2.36,-2.60,-2.88,10.13,10.13,10.17
140.61,12.49,2.36,12.49,2.37,-2.41,-2.62,-2.85,10.08,10.08,10.13
142.02,12.51,2.44,12.51,2.44,-2.48,-2.64,-2.83,10.04,10.04,10.07
143.44,12.54,2.53,12.54,2.54,-2.56,-2.66,-2.81,9.98,9.99,10.01
144.87,12.58,2.65,12.58,2.65,-2.64,-2.68,-2.78,9.94,9.94,9.93
146.32,12.61,2.76,12.61,2.76,-2.73,-2.71,-2.76,9.88,9.88,9.85
147.78,12.63,2.86,12.62,2.86,-2.82,-2.73,-2.73,9.81,9.81,9.77
149.26,12.62,2.93,12.62,2.92,-2.89,-2.76,-2.71,9.73,9.73,9.69
150.75,12.60,2.97,12.60,2.97,-2.95,-2.78,-2.69,9.65,9.65,9.63
152.26,12.57,2.99,12.57,2.99,-2.99,-2.81,-2.66,9.58,9.58,9.58
153.78,12.53,3.00,12.53,3.01,-3.02,-2.83,-2.64,9.52,9.52,9.53
155.32,12.49,3.02,12.49,3.02,-3.03,-2.86,-2.62,9.46,9.46,9.47
156.88,12.44,3.03,12.44,3.03,-3.03,-2.89,-2.60,9.41,9.41,9.41
158.44,12.39,3.03,12.39,3.03,-3.04,-2.91,-2.58,9.36,9.36,9.36
160.03,12.34,3.02,12.34,3.04,-3.04,-2.94,-2.56,9.30,9.30,9.32
161.63,12.28,3.04,12.28,3.03,-3.04,-2.96,-2.55,9.24,9.24,9.24
163.24,12.22,3.03,12.22,3.03,-3.03,-2.98,-2.53,9.18,9.18,9.18
164.88,12.15,3.01,12.15,3.03,-3.03,-3.00,-2.52,9.13,9.13,9.14
166.53,12.09,3.03,12.09,3.03,-3.02,-3.02,-2.51,9.07,9.07,9.06
168.19,12.03,3.03,12.03,3.02,-3.01,-3.03,-2.50,9.02,9.02,9.00
169.87,11.97,3.01,11.97,3.01,-3.00,-3.05,-2.49,8.97,8.97,8.96
171.57,11.91,2.98,11.91,2.99,-2.99,-3.05,-2.49,8.92,8.92,8.93
173.29,11.84,2.96,11.84,2.97,-2.98,-3.06,-2.48,8.86,8.86,8.88
175.02,11.78,2.97,11.78,2.95,-2.97,-3.05,-2.48,8.81,8.81,8.81
176.77,11.72,2.94,11.72,2.96,-2.96,-3.05,-2.48,8.76,8.76,8.77
178.54,11.65,2.95,11.65,2.95,-2.95,-3.04,-2.48,8.70,8.70,8.70
180.32,11.59,2.96,11.59,2.94,-2.95,-3.03,-2.49,8.64,8.64,8.62
182.13,11.53,2.93,11.53,2.94,-2.95,-3.01,-2.49,8.58,8.58,8.60
183.95,11.46,2.94,11.46,2.94,-2.94,-2.99,-2.50,8.52,8.52,8.53
185.79,11.40,2.95,11.40,2.94,-2.94,-2.97,-2.51,8.46,8.46,8.45
187.65,11.34,2.96,11.34,2.95,-2.94,-2.94,-2.52,8.40,8.40,8.38
189.52,11.27,2.94,11.27,2.95,-2.94,-2.92,-2.54,8.34,8.34,8.33
191.42,11.21,2.93,11.21,2.93,-2.93,-2.90,-2.55,8.28,8.28,8.27
193.33,11.14,2.92,11.14,2.91,-2.93,-2.88,-2.57,8.22,8.22,8.23
195.27,11.08,2.90,11.08,2.91,-2.92,-2.86,-2.58,8.16,8.16,8.18
197.22,11.01,2.90,11.01,2.90,-2.91,-2.84,-2.60,8.10,8.10,8.11
199.19,10.94,2.91,10.94,2.90,-2.89,-2.82,-2.62,8.05,8.05,8.03
201.18,10.88,2.90,10.88,2.89,-2.88,-2.81,-2.64,7.99,7.99,7.98
203.19,10.81,2.87,10.81,2.87,-2.87,-2.80,-2.67,7.94,7.94,7.95
205.23,10.75,2.85,10.75,2.85,-2.86,-2.79,-2.69,7.89,7.89,7.90
207.28,10.69,2.84,10.69,2.84,-2.85,-2.79,-2.71,7.84,7.84,7.85
209.35,10.62,2.84,10.62,2.83,-2.83,-2.78,-2.74,7.79,7.79,7.78
211.44,10.56,2.82,10.56,2.82,-2.82,-2.77,-2.76,7.74,7.74,7.74
213.56,10.49,2.81,10.49,2.81,-2.80,-2.77,-2.79,7.69,7.69,7.69
215.69,10.43,2.79,10.43,2.78,-2.78,-2.76,-2.81,7.65,7.65,7.64
217.85,10.36,2.76,10.36,2.76,-2.77,-2.75,-2.83,7.60,7.60,7.60
220.03,10.30,2.74,10.30,2.75,-2.75,-2.75,-2.86,7.55,7.55,7.56
222.23,10.24,2.74,10.24,2.74,-2.74,-2.74,-2.88,7.50,7.50,7.50
224.45,10.17,2.74,10.17,2.73,-2.72,-2.73,-2.90,7.45,7.45,7.43
226.70,10.10,2.71,10.10,2.71,-2.71,-2.71,-2.91,7.39,7.39,7.39
228.96,10.04,2.68,10.04,2.69,-2.70,-2.70,-2.93,7.34,7.34,7.36
231.25,9.97,2.67,9.97,2.68,-2.69,-2.69,-2.95,7.28,7.28,7.30
233.57,9.91,2.69,9.91,2.68,-2.68,-2.67,-2.96,7.23,7.23,7.22
235.90,9.84,2.69,9.84,2.68,-2.66,-2.66,-2.97,7.18,7.18,7.15
238.26,9.78,2.66,9.78,2.66,-2.65,-2.64,-2.97,7.13,7.13,7.11
240.64,9.71,2.63,9.71,2.63,-2.63,-2.63,-2.98,7.08,7.08,7.08
243.05,9.65,2.59,9.65,2.61,-2.62,-2.61,-2.98,7.03,7.03,7.06
245.48,9.58,2.60,9.58,2.59,-2.60,-2.59,-2.97,6.98,6.98,6.98
247.93,9.51,2.59,9.51,2.58,-2.58,-2.57,-2.97,6.93,6.93,6.92
250.41,9.44,2.57,9.44,2.57,-2.56,-2.55,-2.96,6.88,6.88,6.87
252.92,9.38,2.54,9.38,2.55,-2.55,-2.54,-2.95,6.83,6.83,6.84
255.45,9.31,2.53,9.31,2.54,-2.54,-2.52,-2.93,6.77,6.77,6.78
258.00,9.24,2.54,9.24,2.52,-2.53,-2.50,-2.91,6.71,6.71,6.70
260.58,9.17,2.50,9.17,2.50,-2.52,-2.48,-2.88,6.65,6.65,6.67
263.19,9.10,2.48,9.10,2.50,-2.51,-2.46,-2.86,6.60,6.60,6.62
265.82,9.04,2.50,9.03,2.50,-2.49,-2.45,-2.83,6.55,6.54,6.54
268.48,8.96,2.52,8.97,2.50,-2.47,-2.43,-2.80,6.49,6.49,6.44
271.16,8.89,2.48,8.89,2.47,-2.45,-2.41,-2.76,6.45,6.45,6.42
273.87,8.82,2.42,8.82,2.43,-2.43,-2.39,-2.72,6.40,6.40,6.41
276.61,8.75,2.38,8.75,2.39,-2.40,-2.38,-2.68,6.35,6.35,6.38
279.38,8.68,2.39,8.68,2.37,-2.38,-2.36,-2.64,6.30,6.30,6.29
282.17,8.61,2.35,8.61,2.34,-2.36,-2.34,-2.59,6.25,6.25,6.26
284.99,8.54,2.31,8.54,2.32,-2.34,-2.32,-2.55,6.20,6.20,6.23
287.84,8.47,2.30,8.47,2.31,-2.31,-2.31,-2.50,6.15,6.15,6.17
290.72,8.40,2.31,8.40,2.32,-2.30,-2.29,-2.46,6.10,6.10,6.09
293.63,8.33,2.33,8.33,2.31,-2.28,-2.27,-2.41,6.05,6.04,6.00
296.57,8.26,2.30,8.26,2.27,-2.27,-2.25,-2.36,5.99,5.99,5.96
299.53,8.19,2.20,8.19,2.24,-2.25,-2.24,-2.31,5.93,5.93,5.98
302.53,8.12,2.20,8.12,2.22,-2.24,-2.22,-2.26,5.88,5.88,5.92
305.55,8.05,2.23,8.05,2.21,-2.22,-2.20,-2.21,5.83,5.83,5.81
308.61,7.97,2.22,7.97,2.21,-2.19,-2.18,-2.16,5.78,5.78,5.75
311.69,7.90,2.17,7.90,2.18,-2.17,-2.16,-2.11,5.73,5.73,5.73
314.81,7.83,2.14,7.83,2.15,-2.15,-2.14,-2.06,5.68,5.68,5.69
317.96,7.76,2.12,7.76,2.12,-2.13,-2.12,-2.02,5.63,5.63,5.64
321.14,7.69,2.10,7.69,2.10,-2.10,-2.10,-1.97,5.59,5.59,5.59
324.35,7.62,2.08,7.62,2.08,-2.08,-2.08,-1.92,5.54,5.54,5.54
327.59,7.55,2.05,7.55,2.05,-2.05,-2.06,-1.88,5.50,5.50,5.50
330.87,7.47,2.02,7.47,2.02,-2.02,-2.04,-1.83,5.45,5.45,5.46
334.18,7.40,1.99,7.40,1.99,-1.99,-2.02,-1.79,5.41,5.41,5.41
337.52,7.33,1.96,7.33,1.96,-1.97,-2.00,-1.75,5.36,5.36,5.36
340.90,7.25,1.94,7.25,1.94,-1.94,-1.97,-1.71,5.31,5.31,5.31
344.30,7.18,1.91,7.18,1.91,-1.91,-1.95,-1.67,5.27,5.27,5.27
347.75,7.10,1.88,7.10,1.88,-1.88,-1.93,-1.63,5.22,5.22,5.22
351.23,7.03,1.85,7.03,1.85,-1.85,-1.90,-1.59,5.18,5.18,5.18
354.74,6.96,1.83,6.96,1.83,-1.82,-1.88,-1.56,5.13,5.13,5.13
358.28,6.88,1.81,6.88,1.80,-1.80,-1.85,-1.52,5.09,5.09,5.08
361.87,6.81,1.77,6.81,1.77,-1.77,-1.82,-1.49,5.05,5.05,5.04
365.49,6.74,1.72,6.74,1.74,-1.74,-1.80,-1.46,5.00,5.00,5.02
369.14,6.67,1.71,6.67,1.71,-1.71,-1.77,-1.43,4.96,4.96,4.96
372.83,6.60,1.69,6.60,1.68,-1.69,-1.74,-1.40,4.91,4.91,4.92
376.56,6.53,1.66,6.53,1.66,-1.66,-1.71,-1.37,4.87,4.87,4.87
380.33,6.46,1.64,6.46,1.64,-1.64,-1.68,-1.34,4.82,4.82,4.82
384.13,6.39,1.61,6.39,1.61,-1.61,-1.65,-1.32,4.78,4.78,4.78
387.97,6.32,1.59,6.32,1.59,-1.59,-1.62,-1.29,4.73,4.73,4.73
391.85,6.24,1.56,6.24,1.56,-1.56,-1.59,-1.27,4.68,4.69,4.68
395.77,6.17,1.53,6.17,1.53,-1.53,-1.56,-1.24,4.64,4.64,4.63
399.73,6.10,1.50,6.09,1.50,-1.50,-1.53,-1.22,4.60,4.60,4.59
403.72,6.02,1.47,6.02,1.47,-1.46,-1.50,-1.20,4.56,4.56,4.55
407.76,5.95,1.43,5.95,1.43,-1.43,-1.46,-1.18,4.51,4.51,4.52
411.84,5.87,1.39,5.87,1.39,-1.40,-1.43,-1.15,4.47,4.47,4.48
415.96,5.80,1.36,5.80,1.36,-1.36,-1.39,-1.13,4.43,4.43,4.43
420.12,5.72,1.33,5.72,1.33,-1.33,-1.36,-1.11,4.39,4.39,4.39
424.32,5.64,1.29,5.64,1.29,-1.29,-1.32,-1.09,4.35,4.35,4.35
428.56,5.57,1.26,5.57,1.26,-1.26,-1.29,-1.07,4.31,4.31,4.31
432.85,5.49,1.23,5.49,1.22,-1.22,-1.25,-1.05,4.27,4.27,4.27
437.18,5.42,1.18,5.42,1.19,-1.19,-1.22,-1.03,4.23,4.23,4.24
441.55,5.35,1.15,5.35,1.15,-1.15,-1.18,-1.01,4.19,4.19,4.20
445.96,5.27,1.12,5.27,1.12,-1.12,-1.14,-0.99,4.15,4.15,4.16
450.42,5.20,1.09,5.20,1.09,-1.08,-1.10,-0.97,4.11,4.11,4.11
454.93,5.12,1.05,5.12,1.05,-1.05,-1.07,-0.95,4.08,4.08,4.07
