frequency,raw,error,smoothed,error_smoothed,equalization,parametric_eq,fixed_band_eq,equalized_raw,equalized_smoothed,target
20.00,11.65,1.50,11.68,1.52,-1.50,-0.82,-0.97,10.16,10.19,10.16
20.20,11.51,1.35,11.49,1.33,-1.28,-0.84,-1.00,10.23,10.21,10.16
20.40,11.34,1.18,11.30,1.15,-1.10,-0.86,-1.03,10.24,10.21,10.16
20.61,11.13,0.98,11.13,0.97,-0.95,-0.88,-1.06,10.18,10.18,10.16
20.81,10.93,0.78,10.93,0.78,-0.83,-0.90,-1.08,10.10,10.10,10.15
21.02,10.78,0.63,10.78,0.63,-0.76,-0.93,-1.11,10.03,10.02,10.15
21.23,10.69,0.54,10.71,0.56,-0.71,-0.95,-1.14,9.98,10.00,10.15
21.44,10.72,0.58,10.73,0.59,-0.70,-0.97,-1.17,10.02,10.03,10.15
21.66,10.85,0.71,10.84,0.70,-0.77,-1.00,-1.20,10.08,10.07,10.14
21.87,11.00,0.86,11.00,0.86,-0.88,-1.02,-1.24,10.12,10.13,10.14
22.09,11.18,1.04,11.18,1.04,-1.00,-1.05,-1.27,10.18,10.18,10.14
22.31,11.34,1.21,11.34,1.20,-1.11,-1.07,-1.31,10.23,10.22,10.13
22.54,11.46,1.33,11.45,1.32,-1.21,-1.10,-1.34,10.25,10.24,10.13
22.76,11.51,1.39,11.50,1.38,-1.27,-1.13,-1.38,10.24,10.23,10.12
22.99,11.49,1.38,11.48,1.37,-1.29,-1.16,-1.41,10.20,10.19,10.12
23.22,11.42,1.31,11.42,1.31,-1.28,-1.19,-1.45,10.13,10.14,10.11
23.45,11.33,1.23,11.34,1.23,-1.26,-1.22,-1.49,10.07,10.07,10.10
23.69,11.26,1.16,11.26,1.16,-1.24,-1.25,-1.53,10.02,10.02,10.10
23.92,11.22,1.13,11.22,1.14,-1.24,-1.28,-1.57,9.98,9.99,10.09
24.16,11.23,1.16,11.24,1.17,-1.25,-1.31,-1.61,9.98,9.98,10.07
24.40,11.29,1.24,11.30,1.24,-1.29,-1.35,-1.65,10.00,10.00,10.05
24.65,11.38,1.35,11.38,1.35,-1.35,-1.38,-1.70,10.03,10.03,10.03
24.89,11.47,1.47,11.46,1.46,-1.41,-1.42,-1.74,10.06,10.05,10.00
25.14,11.52,1.55,11.52,1.55,-1.47,-1.46,-1.78,10.05,10.05,9.97
25.39,11.56,1.61,11.54,1.60,-1.51,-1.50,-1.83,10.04,10.03,9.94
25.65,11.53,1.60,11.53,1.60,-1.55,-1.54,-1.87,9.98,9.98,9.92
25.91,11.49,1.58,11.49,1.58,-1.57,-1.58,-1.92,9.92,9.92,9.91
26.16,11.44,1.54,11.45,1.55,-1.59,-1.62,-1.96,9.86,9.86,9.90
26.43,11.43,1.53,11.44,1.54,-1.61,-1.67,-2.01,9.83,9.84,9.90
26.69,11.47,1.56,11.47,1.56,-1.64,-1.71,-2.06,9.83,9.84,9.91
26.96,11.53,1.62,11.54,1.63,-1.68,-1.76,-2.10,9.86,9.86,9.91
27.23,11.63,1.72,11.63,1.72,-1.73,-1.81,-2.15,9.90,9.90,9.91
27.50,11.71,1.83,11.71,1.82,-1.79,-1.86,-2.20,9.93,9.92,9.89
27.77,11.77,1.91,11.77,1.91,-1.84,-1.91,-2.24,9.93,9.93,9.86
28.05,11.80,1.97,11.79,1.96,-1.89,-1.96,-2.29,9.90,9.90,9.83
28.33,11.77,1.99,11.77,1.99,-1.94,-2.01,-2.33,9.84,9.84,9.79
28.62,11.75,2.00,11.75,2.00,-1.98,-2.07,-2.38,9.76,9.76,9.75
28.90,11.71,2.00,11.72,2.00,-2.03,-2.12,-2.42,9.68,9.68,9.71
29.19,11.72,2.04,11.72,2.04,-2.10,-2.18,-2.47,9.62,9.62,9.68
29.48,11.75,2.10,11.76,2.11,-2.19,-2.24,-2.51,9.56,9.57,9.65
29.78,11.85,2.24,11.85,2.23,-2.30,-2.30,-2.55,9.55,9.54,9.62
30.08,11.97,2.39,11.98,2.40,-2.44,-2.36,-2.59,9.53,9.54,9.58
30.38,12.13,2.58,12.13,2.58,-2.59,-2.43,-2.63,9.54,9.54,9.55
30.68,12.28,2.77,12.28,2.77,-2.73,-2.49,-2.67,9.55,9.54,9.51
30.99,12.41,2.93,12.41,2.93,-2.86,-2.55,-2.71,9.54,9.54,9.48
31.30,12.50,3.04,12.50,3.04,-2.97,-2.62,-2.74,9.53,9.53,9.45
31.61,12.54,3.11,12.54,3.10,-3.04,-2.69,-2.78,9.50,9.50,9.44
31.93,12.55,3.12,12.54,3.12,-3.08,-2.75,-2.81,9.47,9.47,9.42
32.24,12.51,3.10,12.51,3.10,-3.09,-2.82,-2.85,9.42,9.42,9.41
32.57,12.45,3.06,12.45,3.06,-3.08,-2.88,-2.88,9.37,9.37,9.39
32.89,12.38,3.02,12.38,3.02,-3.06,-2.95,-2.91,9.32,9.32,9.36
33.22,12.32,2.99,12.32,2.99,-3.04,-3.02,-2.94,9.28,9.28,9.33
33.55,12.27,2.99,12.28,2.99,-3.04,-3.08,-2.97,9.24,9.24,9.29
33.89,12.26,3.02,12.26,3.02,-3.04,-3.15,-3.00,9.21,9.22,9.24
34.23,12.26,3.06,12.26,3.06,-3.06,-3.21,-3.03,9.20,9.19,9.20
34.57,12.27,3.11,12.27,3.11,-3.09,-3.27,-3.06,9.18,9.18,9.15
34.92,12.28,3.16,12.28,3.16,-3.13,-3.33,-3.09,9.15,9.15,9.12
35.27,12.29,3.21,12.29,3.20,-3.18,-3.39,-3.12,9.11,9.11,9.09
35.62,12.30,3.24,12.30,3.24,-3.24,-3.45,-3.15,9.06,9.06,9.06
35.97,12.30,3.28,12.31,3.28,-3.30,-3.50,-3.18,9.00,9.01,9.02
36.33,12.32,3.33,12.32,3.33,-3.37,-3.56,-3.22,8.95,8.96,8.99
36.70,12.36,3.40,12.36,3.41,-3.44,-3.61,-3.25,8.92,8.92,8.95
37.06,12.41,3.49,12.41,3.50,-3.52,-3.66,-3.28,8.89,8.90,8.92
37.43,12.48,3.60,12.48,3.60,-3.59,-3.71,-3.32,8.89,8.89,8.88
37.81,12.53,3.69,12.54,3.69,-3.66,-3.75,-3.36,8.87,8.88,8.84
38.19,12.58,3.78,12.57,3.77,-3.72,-3.80,-3.40,8.86,8.85,8.81
38.57,12.58,3.82,12.58,3.82,-3.78,-3.84,-3.44,8.80,8.80,8.76
38.95,12.56,3.84,12.56,3.84,-3.83,-3.88,-3.48,8.73,8.73,8.72
39.34,12.53,3.86,12.53,3.86,-3.87,-3.93,-3.53,8.66,8.66,8.67
39.74,12.50,3.88,12.51,3.88,-3.90,-3.97,-3.58,8.60,8.61,8.62
40.14,12.50,3.92,12.50,3.92,-3.94,-4.01,-3.63,8.56,8.56,8.58
40.54,12.51,3.96,12.51,3.96,-3.98,-4.05,-3.68,8.53,8.53,8.55
40.94,12.53,4.02,12.53,4.02,-4.03,-4.09,-3.74,8.50,8.50,8.51
41.35,12.56,4.08,12.56,4.08,-4.10,-4.13,-3.80,8.46,8.46,8.48
41.76,12.59,4.15,12.59,4.15,-4.17,-4.17,-3.86,8.42,8.42,8.44
42.18,12.63,4.24,12.63,4.24,-4.25,-4.22,-3.93,8.38,8.38,8.39
42.60,12.67,4.33,12.67,4.33,-4.32,-4.26,-3.99,8.35,8.35,8.34
43.03,12.70,4.43,12.70,4.42,-4.39,-4.31,-4.06,8.31,8.31,8.27
43.46,12.71,4.50,12.71,4.50,-4.45,-4.35,-4.14,8.26,8.26,8.21
43.90,12.71,4.55,12.70,4.54,-4.51,-4.40,-4.21,8.19,8.19,8.16
44.33,12.69,4.57,12.69,4.57,-4.58,-4.45,-4.30,8.11,8.11,8.11
44.78,12.68,4.60,12.69,4.61,-4.64,-4.51,-4.38,8.04,8.05,8.08
45.23,12.70,4.65,12.70,4.66,-4.71,-4.56,-4.47,7.99,7.99,8.05
45.68,12.74,4.74,12.74,4.74,-4.78,-4.62,-4.56,7.96,7.96,8.00
46.13,12.79,4.84,12.79,4.84,-4.86,-4.68,-4.65,7.94,7.94,7.95
46.60,12.85,4.95,12.85,4.95,-4.94,-4.74,-4.75,7.91,7.91,7.90
47.06,12.89,5.04,12.89,5.04,-5.01,-4.80,-4.84,7.87,7.87,7.84
47.53,12.91,5.12,12.91,5.12,-5.08,-4.87,-4.95,7.83,7.83,7.79
48.01,12.91,5.17,12.91,5.17,-5.14,-4.93,-5.05,7.77,7.77,7.74
48.49,12.89,5.21,12.89,5.21,-5.19,-5.00,-5.16,7.70,7.70,7.68
48.97,12.85,5.23,12.85,5.23,-5.22,-5.07,-5.27,7.63,7.63,7.62
49.46,12.81,5.24,12.81,5.24,-5.24,-5.15,-5.38,7.57,7.57,7.57
49.96,12.77,5.26,12.77,5.26,-5.26,-5.22,-5.50,7.51,7.51,7.51
50.46,12.74,5.28,12.74,5.28,-5.29,-5.30,-5.61,7.45,7.45,7.46
50.96,12.73,5.31,12.73,5.31,-5.33,-5.38,-5.73,7.39,7.39,7.41
51.47,12.73,5.36,12.73,5.36,-5.39,-5.46,-5.85,7.34,7.34,7.37
51.99,12.75,5.43,12.75,5.43,-5.46,-5.54,-5.97,7.29,7.29,7.33
52.51,12.80,5.53,12.80,5.53,-5.56,-5.62,-6.09,7.24,7.24,7.27
53.03,12.85,5.65,12.86,5.65,-5.66,-5.71,-6.20,7.19,7.19,7.21
53.56,12.92,5.78,12.92,5.78,-5.77,-5.79,-6.32,7.15,7.15,7.14
54.10,12.98,5.91,12.98,5.90,-5.89,-5.88,-6.44,7.10,7.10,7.08
54.64,13.04,6.02,13.04,6.02,-5.99,-5.96,-6.55,7.05,7.05,7.02
55.18,13.09,6.12,13.08,6.12,-6.09,-6.05,-6.66,7.00,6.99,6.97
55.74,13.11,6.20,13.11,6.20,-6.18,-6.13,-6.77,6.93,6.93,6.91
56.29,13.12,6.27,13.12,6.27,-6.26,-6.21,-6.87,6.86,6.86,6.85
56.86,13.12,6.32,13.11,6.32,-6.32,-6.30,-6.97,6.80,6.80,6.80
57.42,13.10,6.36,13.10,6.36,-6.37,-6.38,-7.06,6.73,6.73,6.74
58.00,13.09,6.41,13.09,6.41,-6.42,-6.46,-7.14,6.67,6.67,6.68
58.58,13.08,6.46,13.08,6.46,-6.47,-6.54,-7.21,6.62,6.62,6.62
59.16,13.08,6.52,13.08,6.51,-6.51,-6.61,-7.28,6.56,6.57,6.56
59.76,13.08,6.55,13.08,6.56,-6.56,-6.68,-7.33,6.52,6.52,6.53
60.35,13.08,6.60,13.08,6.61,-6.61,-6.75,-7.38,6.47,6.47,6.48
60.96,13.08,6.66,13.08,6.66,-6.66,-6.81,-7.41,6.41,6.41,6.42
61.57,13.06,6.73,13.06,6.72,-6.72,-6.87,-7.43,6.35,6.35,6.33
62.18,13.05,6.78,13.05,6.78,-6.77,-6.93,-7.44,6.28,6.28,6.27
62.80,13.03,6.82,13.03,6.82,-6.82,-6.98,-7.44,6.21,6.21,6.21
63.43,13.01,6.86,13.01,6.87,-6.87,-7.02,-7.43,6.14,6.14,6.15
64.07,13.00,6.92,13.00,6.91,-6.92,-7.06,-7.41,6.07,6.07,6.08
64.71,12.99,6.97,12.99,6.97,-6.97,-7.10,-7.37,6.01,6.01,6.02
65.35,12.97,7.02,12.97,7.02,-7.02,-7.12,-7.32,5.95,5.95,5.96
66.01,12.96,7.06,12.96,7.06,-7.06,-7.14,-7.27,5.90,5.90,5.89
66.67,12.93,7.10,12.93,7.10,-7.10,-7.15,-7.20,5.84,5.84,5.83
67.33,12.90,7.13,12.91,7.13,-7.13,-7.15,-7.12,5.78,5.78,5.78
68.01,12.87,7.15,12.87,7.15,-7.15,-7.15,-7.04,5.72,5.72,5.72
68.69,12.82,7.16,12.82,7.16,-7.15,-7.14,-6.95,5.66,5.66,5.66
69.37,12.75,7.16,12.75,7.16,-7.15,-7.12,-6.85,5.60,5.60,5.59
70.07,12.68,7.15,12.68,7.15,-7.14,-7.09,-6.75,5.54,5.53,5.53
70.77,12.59,7.12,12.59,7.12,-7.12,-7.06,-6.64,5.47,5.47,5.47
71.48,12.49,7.09,12.49,7.09,-7.09,-7.01,-6.52,5.40,5.40,5.41
72.19,12.39,7.05,12.39,7.05,-7.06,-6.96,-6.41,5.33,5.33,5.34
72.91,12.29,7.00,12.29,7.01,-7.02,-6.91,-6.29,5.27,5.27,5.29
73.64,12.19,6.96,12.19,6.97,-6.97,-6.84,-6.17,5.21,5.21,5.22
74.38,12.07,6.92,12.07,6.92,-6.92,-6.77,-6.05,5.15,5.15,5.15
75.12,11.95,6.87,11.95,6.87,-6.86,-6.69,-5.92,5.09,5.09,5.08
75.87,11.82,6.79,11.82,6.80,-6.79,-6.61,-5.80,5.03,5.03,5.02
76.63,11.67,6.71,11.67,6.71,-6.71,-6.52,-5.68,4.96,4.96,4.96
77.40,11.52,6.62,11.52,6.62,-6.61,-6.42,-5.56,4.90,4.90,4.90
78.17,11.34,6.51,11.35,6.51,-6.51,-6.32,-5.44,4.84,4.84,4.83
78.95,11.16,6.40,11.16,6.40,-6.39,-6.21,-5.32,4.77,4.77,4.76
79.74,10.97,6.27,10.97,6.27,-6.26,-6.10,-5.20,4.71,4.71,4.70
80.54,10.76,6.12,10.76,6.12,-6.12,-5.99,-5.09,4.64,4.64,4.64
81.35,10.54,5.97,10.54,5.97,-5.97,-5.87,-4.98,4.57,4.57,4.57
82.16,10.33,5.82,10.33,5.82,-5.82,-5.74,-4.87,4.50,4.50,4.51
82.98,10.11,5.66,10.11,5.66,-5.67,-5.62,-4.76,4.44,4.44,4.44
83.81,9.88,5.51,9.88,5.51,-5.51,-5.49,-4.66,4.37,4.37,4.37
84.65,9.66,5.35,9.66,5.35,-5.36,-5.36,-4.55,4.30,4.30,4.31
85.50,9.45,5.20,9.45,5.20,-5.21,-5.23,-4.45,4.24,4.24,4.25
86.35,9.24,5.05,9.24,5.05,-5.06,-5.09,-4.36,4.18,4.18,4.18
87.22,9.03,4.92,9.03,4.91,-4.91,-4.96,-4.27,4.12,4.12,4.11
88.09,8.82,4.77,8.82,4.77,-4.76,-4.82,-4.18,4.06,4.06,4.05
88.97,8.61,4.62,8.61,4.62,-4.62,-4.69,-4.09,3.99,3.99,3.99
89.86,8.40,4.47,8.40,4.47,-4.48,-4.55,-4.01,3.93,3.93,3.93
90.76,8.20,4.33,8.20,4.33,-4.34,-4.42,-3.93,3.86,3.86,3.87
91.66,8.00,4.20,8.00,4.20,-4.20,-4.29,-3.85,3.80,3.80,3.80
92.58,7.80,4.07,7.80,4.07,-4.06,-4.16,-3.77,3.74,3.74,3.73
93.51,7.61,3.94,7.61,3.94,-3.93,-4.03,-3.70,3.67,3.67,3.67
94.44,7.42,3.81,7.42,3.82,-3.81,-3.90,-3.63,3.61,3.61,3.61
95.39,7.24,3.70,7.24,3.69,-3.70,-3.78,-3.57,3.54,3.54,3.54
96.34,7.06,3.58,7.06,3.58,-3.59,-3.67,-3.51,3.47,3.48,3.48
97.30,6.90,3.48,6.90,3.48,-3.49,-3.56,-3.44,3.41,3.41,3.43
98.28,6.75,3.39,6.75,3.39,-3.40,-3.46,-3.39,3.35,3.35,3.36
99.26,6.61,3.32,6.61,3.32,-3.32,-3.36,-3.33,3.30,3.29,3.29
100.25,6.48,3.25,6.47,3.25,-3.24,-3.27,-3.28,3.23,3.23,3.23
101.25,6.34,3.18,6.34,3.18,-3.18,-3.19,-3.23,3.17,3.17,3.17
102.27,6.22,3.12,6.22,3.12,-3.12,-3.11,-3.18,3.10,3.10,3.10
103.29,6.10,3.07,6.10,3.07,-3.07,-3.05,-3.14,3.03,3.03,3.03
104.32,5.99,3.02,5.99,3.02,-3.02,-2.99,-3.10,2.97,2.97,2.97
105.37,5.90,2.98,5.89,2.98,-2.99,-2.94,-3.06,2.91,2.91,2.92
106.42,5.81,2.95,5.81,2.95,-2.96,-2.89,-3.02,2.85,2.85,2.86
107.48,5.72,2.93,5.72,2.93,-2.93,-2.85,-2.98,2.79,2.79,2.79
108.56,5.64,2.91,5.64,2.91,-2.91,-2.83,-2.95,2.73,2.73,2.74
109.64,5.57,2.89,5.57,2.90,-2.90,-2.80,-2.92,2.67,2.67,2.67
110.74,5.49,2.89,5.49,2.89,-2.88,-2.78,-2.89,2.60,2.60,2.60
111.85,5.41,2.88,5.41,2.88,-2.87,-2.76,-2.86,2.54,2.54,2.53
112.97,5.33,2.87,5.33,2.87,-2.85,-2.75,-2.84,2.48,2.48,2.47
114.10,5.25,2.85,5.25,2.85,-2.84,-2.74,-2.81,2.42,2.42,2.41
115.24,5.17,2.83,5.17,2.82,-2.82,-2.74,-2.79,2.35,2.35,2.34
116.39,5.09,2.80,5.09,2.80,-2.80,-2.73,-2.77,2.29,2.29,2.29
117.55,5.01,2.78,5.02,2.78,-2.79,-2.73,-2.75,2.23,2.23,2.24
118.73,4.95,2.76,4.95,2.76,-2.78,-2.73,-2.73,2.17,2.17,2.18
119.92,4.88,2.75,4.88,2.75,-2.77,-2.73,-2.72,2.11,2.11,2.13
121.12,4.82,2.75,4.82,2.76,-2.77,-2.73,-2.71,2.05,2.05,2.07
122.33,4.76,2.77,4.76,2.77,-2.77,-2.74,-2.69,1.99,1.99,1.99
123.55,4.70,2.80,4.70,2.79,-2.77,-2.74,-2.68,1.92,1.92,1.90
124.79,4.63,2.79,4.63,2.79,-2.78,-2.75,-2.68,1.85,1.85,1.84
126.03,4.56,2.79,4.56,2.79,-2.78,-2.75,-2.67,1.78,1.78,1.77
127.29,4.50,2.78,4.50,2.78,-2.78,-2.76,-2.66,1.71,1.71,1.71
128.57,4.43,2.78,4.43,2.78,-2.78,-2.77,-2.66,1.65,1.65,1.66
129.85,4.37,2.77,4.37,2.77,-2.78,-2.77,-2.66,1.59,1.59,1.60
131.15,4.31,2.77,4.31,2.77,-2.78,-2.78,-2.65,1.53,1.53,1.54
132.46,4.25,2.78,4.25,2.78,-2.77,-2.79,-2.65,1.48,1.48,1.47
133.79,4.19,2.78,4.19,2.78,-2.77,-2.80,-2.66,1.42,1.42,1.41
135.12,4.13,2.78,4.13,2.78,-2.77,-2.81,-2.66,1.36,1.36,1.36
136.48,4.07,2.77,4.07,2.77,-2.77,-2.82,-2.67,1.30,1.30,1.30
137.84,4.01,2.77,4.01,2.77,-2.78,-2.83,-2.67,1.24,1.24,1.25
139.22,3.96,2.78,3.96,2.78,-2.78,-2.84,-2.68,1.18,1.18,1.18
140.61,3.91,2.79,3.91,2.79,-2.79,-2.85,-2.69,1.11,1.11,1.12
142.02,3.86,2.80,3.86,2.80,-2.81,-2.86,-2.70,1.05,1.05,1.06
143.44,3.82,2.82,3.82,2.83,-2.83,-2.87,-2.72,0.99,0.99,1.00
144.87,3.78,2.86,3.79,2.84,-2.85,-2.89,-2.73,0.93,0.93,0.93
146.32,3.76,2.87,3.75,2.87,-2.88,-2.90,-2.75,0.88,0.88,0.89
147.78,3.73,2.89,3.73,2.91,-2.91,-2.92,-2.77,0.82,0.82,0.84
149.26,3.70,2.96,3.70,2.94,-2.93,-2.93,-2.79,0.77,0.77,0.75
150.75,3.68,2.97,3.68,2.96,-2.95,-2.95,-2.82,0.73,0.73,0.71
152.26,3.66,2.94,3.66,2.96,-2.96,-2.97,-2.84,0.70,0.70,0.72
153.78,3.64,2.95,3.64,2.96,-2.96,-2.99,-2.87,0.68,0.68,0.69
155.32,3.63,2.97,3.63,2.97,-2.95,-3.01,-2.90,0.67,0.67,0.66
156.88,3.61,2.98,3.61,2.96,-2.93,-3.03,-2.93,0.68,0.68,0.63
158.44,3.60,2.94,3.60,2.93,-2.91,-3.05,-2.97,0.69,0.69,0.66
160.03,3.59,2.86,3.59,2.88,-2.87,-3.08,-3.01,0.71,0.71,0.73
161.63,3.58,2.84,3.58,2.84,-2.84,-3.10,-3.05,0.74,0.74,0.74
163.24,3.58,2.82,3.58,2.81,-2.82,-3.13,-3.09,0.76,0.76,0.76
164.88,3.58,2.78,3.58,2.78,-2.80,-3.16,-3.13,0.78,0.78,0.79
166.53,3.58,2.76,3.58,2.77,-2.79,-3.19,-3.18,0.78,0.78,0.81
168.19,3.58,2.77,3.58,2.78,-2.81,-3.22,-3.23,0.77,0.77,0.81
169.87,3.58,2.83,3.58,2.83,-2.84,-3.25,-3.28,0.74,0.74,0.75
171.57,3.59,2.89,3.59,2.89,-2.89,-3.28,-3.34,0.70,0.70,0.70
173.29,3.60,2.96,3.60,2.95,-2.96,-3.32,-3.39,0.65,0.65,0.65
175.02,3.62,3.02,3.62,3.02,-3.03,-3.35,-3.46,0.59,0.59,0.60
176.77,3.64,3.10,3.64,3.12,-3.11,-3.39,-3.52,0.53,0.53,0.55
178.54,3.67,3.21,3.67,3.21,-3.19,-3.43,-3.58,0.47,0.47,0.46
180.32,3.70,3.34,3.70,3.30,-3.28,-3.47,-3.65,0.42,0.42,0.36
182.13,3.73,3.36,3.73,3.38,-3.36,-3.51,-3.72,0.37,0.37,0.37
183.95,3.76,3.43,3.76,3.44,-3.43,-3.55,-3.79,0.33,0.33,0.34
185.79,3.80,3.50,3.80,3.49,-3.51,-3.60,-3.87,0.29,0.29,0.30
187.65,3.84,3.57,3.84,3.57,-3.59,-3.64,-3.94,0.25,0.25,0.27
189.52,3.88,3.66,3.88,3.66,-3.66,-3.69,-4.03,0.22,0.22,0.23
191.42,3.93,3.74,3.93,3.74,-3.74,-3.74,-4.11,0.19,0.19,0.19
193.33,3.97,3.82,3.97,3.82,-3.82,-3.79,-4.19,0.15,0.15,0.15
195.27,4.02,3.90,4.01,3.90,-3.90,-3.84,-4.28,0.12,0.12,0.11
197.22,4.05,3.98,4.05,3.98,-3.98,-3.89,-4.37,0.08,0.08,0.08
199.19,4.09,4.06,4.09,4.06,-4.06,-3.94,-4.45,0.04,0.04,0.03
201.18,4.13,4.14,4.13,4.14,-4.13,-4.00,-4.55,-0.00,-0.00,-0.01
203.19,4.17,4.21,4.17,4.21,-4.21,-4.05,-4.64,-0.03,-0.03,-0.04
205.23,4.21,4.27,4.21,4.27,-4.28,-4.11,-4.73,-0.06,-0.06,-0.06
207.28,4.26,4.34,4.26,4.34,-4.35,-4.16,-4.82,-0.09,-0.09,-0.08
209.35,4.30,4.41,4.30,4.41,-4.42,-4.22,-4.91,-0.12,-0.12,-0.11
211.44,4.34,4.49,4.34,4.48,-4.48,-4.28,-5.01,-0.14,-0.14,-0.15
213.56,4.38,4.55,4.38,4.55,-4.55,-4.34,-5.10,-0.17,-0.17,-0.17
215.69,4.42,4.61,4.42,4.62,-4.61,-4.40,-5.19,-0.19,-0.19,-0.19
217.85,4.46,4.69,4.46,4.68,-4.68,-4.47,-5.28,-0.22,-0.22,-0.22
220.03,4.50,4.74,4.50,4.74,-4.74,-4.53,-5.36,-0.24,-0.24,-0.24
222.23,4.54,4.80,4.54,4.80,-4.80,-4.59,-5.45,-0.26,-0.26,-0.26
224.45,4.58,4.86,4.58,4.86,-4.86,-4.65,-5.53,-0.28,-0.28,-0.28
226.70,4.62,4.92,4.62,4.92,-4.92,-4.72,-5.60,-0.30,-0.30,-0.30
228.96,4.66,4.98,4.66,4.98,-4.98,-4.78,-5.67,-0.32,-0.32,-0.33
231.25,4.69,5.04,4.69,5.03,-5.04,-4.84,-5.74,-0.34,-0.34,-0.34
233.57,4.73,5.09,4.73,5.09,-5.09,-4.90,-5.80,-0.36,-0.36,-0.36
235.90,4.76,5.13,4.76,5.14,-5.14,-4.97,-5.85,-0.38,-0.38,-0.37
238.26,4.79,5.20,4.79,5.20,-5.19,-5.03,-5.90,-0.40,-0.40,-0.41
240.64,4.82,5.26,4.82,5.24,-5.23,-5.09,-5.93,-0.41,-0.41,-0.43
243.05,4.85,5.27,4.85,5.28,-5.28,-5.15,-5.97,-0.43,-0.43,-0.42
245.48,4.88,5.31,4.88,5.31,-5.32,-5.20,-5.99,-0.44,-0.44,-0.43
247.93,4.90,5.35,4.90,5.34,-5.35,-5.26,-6.00,-0.45,-0.45,-0.45
250.41,4.92,5.38,4.92,5.38,-5.39,-5.31,-6.01,-0.46,-0.46,-0.46
252.92,4.95,5.42,4.95,5.42,-5.42,-5.37,-6.01,-0.47,-0.47,-0.47
255.45,4.97,5.45,4.97,5.45,-5.44,-5.42,-5.99,-0.47,-0.47,-0.47
258.00,5.00,5.47,5.00,5.47,-5.47,-5.46,-5.98,-0.47,-0.48,-0.48
260.58,5.02,5.50,5.02,5.50,-5.50,-5.51,-5.95,-0.48,-0.48,-0.48
263.19,5.03,5.52,5.03,5.52,-5.52,-5.55,-5.92,-0.48,-0.48,-0.48
265.82,5.05,5.54,5.05,5.54,-5.54,-5.59,-5.87,-0.49,-0.49,-0.49
268.48,5.06,5.55,5.06,5.55,-5.55,-5.62,-5.82,-0.49,-0.49,-0.49
271.16,5.08,5.57,5.08,5.57,-5.57,-5.65,-5.77,-0.49,-0.49,-0.49
273.87,5.09,5.58,5.09,5.58,-5.58,-5.68,-5.71,-0.49,-0.49,-0.50
276.61,5.10,5.59,5.10,5.59,-5.58,-5.71,-5.64,-0.49,-0.49,-0.50
279.38,5.11,5.59,5.11,5.59,-5.59,-5.73,-5.57,-0.48,-0.48,-0.48
282.17,5.12,5.59,5.12,5.59,-5.60,-5.74,-5.50,-0.48,-0.48,-0.48
284.99,5.12,5.60,5.12,5.60,-5.60,-5.75,-5.42,-0.48,-0.48,-0.48
287.84,5.13,5.60,5.13,5.59,-5.60,-5.76,-5.34,-0.47,-0.47,-0.47
290.72,5.14,5.59,5.14,5.59,-5.60,-5.76,-5.26,-0.47,-0.47,-0.45
293.63,5.14,5.58,5.14,5.60,-5.60,-5.76,-5.18,-0.46,-0.46,-0.44
296.57,5.14,5.59,5.14,5.61,-5.59,-5.76,-5.10,-0.45,-0.45,-0.45
299.53,5.14,5.64,5.14,5.60,-5.58,-5.74,-5.01,-0.44,-0.44,-0.50
302.53,5.14,5.57,5.14,5.58,-5.56,-5.73,-4.93,-0.42,-0.42,-0.43
305.55,5.14,5.52,5.14,5.54,-5.54,-5.71,-4.84,-0.41,-0.41,-0.38
308.61,5.14,5.51,5.14,5.51,-5.52,-5.69,-4.76,-0.39,-0.39,-0.37
311.69,5.13,5.50,5.13,5.49,-5.50,-5.66,-4.68,-0.37,-0.37,-0.36
314.81,5.13,5.46,5.13,5.47,-5.47,-5.63,-4.60,-0.34,-0.34,-0.34
317.96,5.12,5.44,5.12,5.44,-5.44,-5.59,-4.52,-0.32,-0.32,-0.32
321.14,5.12,5.41,5.12,5.41,-5.41,-5.55,-4.45,-0.29,-0.29,-0.30
324.35,5.11,5.39,5.11,5.39,-5.39,-5.51,-4.37,-0.27,-0.27,-0.28
327.59,5.10,5.36,5.10,5.36,-5.36,-5.47,-4.30,-0.25,-0.25,-0.25
330.87,5.10,5.33,5.10,5.33,-5.33,-5.42,-4.23,-0.23,-0.23,-0.23
334.18,5.09,5.29,5.08,5.29,-5.30,-5.37,-4.17,-0.21,-0.21,-0.21
337.52,5.07,5.26,5.07,5.26,-5.26,-5.31,-4.10,-0.19,-0.19,-0.18
340.90,5.06,5.22,5.06,5.22,-5.22,-5.26,-4.04,-0.16,-0.16,-0.16
344.30,5.04,5.18,5.04,5.18,-5.18,-5.20,-3.99,-0.14,-0.14,-0.14
347.75,5.02,5.14,5.02,5.14,-5.13,-5.14,-3.93,-0.11,-0.11,-0.12
351.23,5.00,5.09,5.00,5.09,-5.08,-5.08,-3.88,-0.08,-0.08,-0.09
354.74,4.98,5.03,4.98,5.03,-5.03,-5.02,-3.83,-0.05,-0.05,-0.05
358.28,4.96,4.96,4.96,4.97,-4.98,-4.96,-3.78,-0.02,-0.02,-0.00
361.87,4.94,4.92,4.94,4.92,-4.93,-4.90,-3.74,0.00,0.00,0.02
365.49,4.91,4.89,4.91,4.88,-4.88,-4.83,-3.70,0.03,0.03,0.02
369.14,4.89,4.83,4.89,4.83,-4.83,-4.77,-3.66,0.06,0.06,0.06
372.83,4.86,4.78,4.86,4.78,-4.77,-4.71,-3.63,0.09,0.09,0.09
376.56,4.84,4.72,4.84,4.72,-4.72,-4.65,-3.60,0.11,0.11,0.11
380.33,4.81,4.67,4.81,4.67,-4.67,-4.58,-3.57,0.14,0.14,0.14
384.13,4.79,4.61,4.79,4.61,-4.62,-4.52,-3.54,0.17,0.17,0.17
387.97,4.76,4.56,4.76,4.56,-4.56,-4.46,-3.52,0.20,0.20,0.20
391.85,4.73,4.50,4.73,4.50,-4.50,-4.40,-3.50,0.23,0.23,0.23
395.77,4.70,4.44,4.70,4.44,-4.44,-4.34,-3.48,0.26,0.26,0.26
399.73,4.67,4.38,4.67,4.38,-4.38,-4.28,-3.46,0.29,0.29,0.29
403.72,4.64,4.32,4.64,4.32,-4.32,-4.22,-3.45,0.31,0.31,0.32
407.76,4.60,4.26,4.60,4.26,-4.26,-4.16,-3.43,0.34,0.34,0.35
411.84,4.57,4.20,4.57,4.19,-4.20,-4.10,-3.42,0.37,0.37,0.37
415.96,4.53,4.13,4.53,4.13,-4.13,-4.04,-3.41,0.41,0.41,0.41
420.12,4.50,4.06,4.50,4.06,-4.05,-3.98,-3.40,0.44,0.44,0.44
424.32,4.46,3.99,4.46,3.99,-3.98,-3.92,-3.39,0.48,0.48,0.47
428.56,4.42,3.91,4.42,3.91,-3.90,-3.86,-3.38,0.52,0.52,0.51
432.85,4.38,3.82,4.38,3.82,-3.82,-3.80,-3.37,0.56,0.56,0.56
437.18,4.34,3.73,4.34,3.73,-3.74,-3.73,-3.36,0.61,0.61,0.61
441.55,4.30,3.65,4.30,3.65,-3.65,-3.67,-3.35,0.65,0.65,0.65
445.96,4.26,3.57,4.26,3.57,-3.57,-3.60,-3.33,0.69,0.69,0.69
450.42,4.22,3.49,4.22,3.49,-3.49,-3.53,-3.32,0.73,0.73,0.73
454.93,4.18,3.41,4.18,3.41,-3.41,-3.46,-3.31,0.77,0.77,0.77
459.48,4.14,3.33,4.14,3.33,-3.34,-3.39,-3.29,0.80,0.80,0.81
464.07,4.10,3.26,4.10,3.26,-3.26,-3.31,-3.27,0.84,0.84,0.84
468.71,4.06,3.19,4.06,3.19,-3.19,-3.23,-3.25,0.88,0.88,0.87
473.40,4.02,3.12,4.02,3.12,-3.11,-3.15,-3.23,0.91,0.91,0.91
478.13,3.98,3.04,3.98,3.04,-3.03,-3.06,-3.20,0.95,0.95,0.95
482.91,3.94,2.95,3.94,2.96,-2.95,-2.98,-3.17,0.99,0.99,0.99
487.74,3.89,2.87,3.89,2.87,-2.87,-2.89,-3.14,1.02,1.02,1.02
492.62,3.84,2.79,3.84,2.79,-2.79,-2.80,-3.10,1.06,1.06,1.05
497.55,3.79,2.70,3.79,2.70,-2.70,-2.71,-3.06,1.09,1.09,1.09
502.52,3.74,2.62,3.74,2.62,-2.62,-2.61,-3.02,1.12,1.12,1.13
