frequency,raw,error,smoothed,error_smoothed,equalization,parametric_eq,fixed_band_eq,equalized_raw,equalized_smoothed,target
20.00,9.03,2.49,9.03,2.49,-2.47,-2.36,-0.79,6.56,6.56,6.54
20.20,9.01,2.46,9.02,2.46,-2.47,-2.37,-0.81,6.55,6.55,6.55
20.40,9.01,2.45,9.01,2.45,-2.46,-2.38,-0.84,6.55,6.55,6.56
20.61,9.01,2.44,9.02,2.44,-2.46,-2.39,-0.87,6.55,6.56,6.57
20.81,9.03,2.45,9.03,2.45,-2.46,-2.40,-0.89,6.57,6.57,6.58
21.02,9.05,2.46,9.05,2.46,-2.46,-2.41,-0.92,6.58,6.58,6.58
21.23,9.06,2.48,9.06,2.47,-2.46,-2.43,-0.95,6.60,6.60,6.59
21.44,9.08,2.48,9.08,2.48,-2.47,-2.45,-0.98,6.61,6.61,6.59
21.66,9.09,2.49,9.09,2.49,-2.48,-2.46,-1.01,6.61,6.61,6.60
21.87,9.10,2.49,9.10,2.49,-2.48,-2.49,-1.05,6.62,6.62,6.61
22.09,9.11,2.49,9.11,2.49,-2.49,-2.51,-1.08,6.62,6.62,6.62
22.31,9.13,2.49,9.13,2.50,-2.50,-2.53,-1.11,6.63,6.63,6.64
22.54,9.15,2.51,9.15,2.51,-2.52,-2.56,-1.15,6.63,6.64,6.65
22.76,9.18,2.52,9.19,2.53,-2.54,-2.59,-1.18,6.65,6.65,6.66
22.99,9.22,2.55,9.22,2.55,-2.56,-2.62,-1.22,6.66,6.66,6.67
23.22,9.27,2.59,9.27,2.59,-2.59,-2.64,-1.26,6.67,6.67,6.68
23.45,9.31,2.62,9.31,2.62,-2.62,-2.67,-1.30,6.69,6.69,6.69
23.69,9.35,2.66,9.35,2.66,-2.65,-2.69,-1.34,6.70,6.70,6.70
23.92,9.39,2.68,9.39,2.68,-2.68,-2.71,-1.38,6.71,6.71,6.70
24.16,9.41,2.70,9.41,2.70,-2.69,-2.71,-1.42,6.72,6.72,6.71
24.40,9.42,2.71,9.42,2.71,-2.70,-2.71,-1.46,6.72,6.73,6.72
24.65,9.42,2.70,9.42,2.70,-2.69,-2.68,-1.50,6.73,6.73,6.72
24.89,9.41,2.68,9.41,2.68,-2.68,-2.66,-1.54,6.74,6.74,6.73
25.14,9.39,2.65,9.39,2.65,-2.65,-2.61,-1.58,6.74,6.74,6.74
25.39,9.36,2.61,9.36,2.61,-2.61,-2.57,-1.62,6.75,6.75,6.75
25.65,9.31,2.56,9.31,2.56,-2.56,-2.51,-1.66,6.76,6.76,6.76
25.91,9.26,2.50,9.26,2.50,-2.50,-2.46,-1.71,6.76,6.76,6.76
26.16,9.21,2.44,9.21,2.44,-2.44,-2.40,-1.75,6.77,6.77,6.77
26.43,9.14,2.37,9.14,2.37,-2.37,-2.34,-1.79,6.77,6.77,6.77
26.69,9.07,2.29,9.07,2.30,-2.29,-2.28,-1.82,6.77,6.78,6.77
26.96,9.00,2.22,8.99,2.22,-2.22,-2.22,-1.86,6.78,6.78,6.78
27.23,8.92,2.14,8.92,2.14,-2.14,-2.17,-1.90,6.78,6.78,6.78
27.50,8.84,2.06,8.84,2.06,-2.06,-2.11,-1.93,6.78,6.78,6.78
27.77,8.76,1.98,8.76,1.98,-1.98,-2.06,-1.96,6.79,6.79,6.79
28.05,8.69,1.90,8.69,1.90,-1.90,-2.01,-1.99,6.79,6.80,6.79
28.33,8.63,1.82,8.63,1.82,-1.82,-1.97,-2.02,6.81,6.81,6.81
28.62,8.57,1.75,8.57,1.75,-1.75,-1.92,-2.05,6.82,6.82,6.82
28.90,8.53,1.69,8.53,1.69,-1.69,-1.88,-2.07,6.83,6.83,6.84
29.19,8.49,1.63,8.49,1.63,-1.64,-1.83,-2.08,6.85,6.85,6.86
29.48,8.46,1.59,8.46,1.59,-1.60,-1.79,-2.10,6.86,6.86,6.87
29.78,8.44,1.56,8.44,1.56,-1.57,-1.75,-2.11,6.87,6.87,6.88
30.08,8.43,1.54,8.43,1.54,-1.55,-1.71,-2.11,6.87,6.87,6.88
30.38,8.42,1.53,8.42,1.54,-1.54,-1.67,-2.12,6.87,6.88,6.88
30.68,8.42,1.54,8.42,1.54,-1.54,-1.63,-2.11,6.88,6.88,6.88
30.99,8.42,1.55,8.42,1.54,-1.54,-1.59,-2.11,6.88,6.88,6.87
31.30,8.42,1.55,8.42,1.55,-1.54,-1.55,-2.09,6.88,6.88,6.87
31.61,8.42,1.56,8.42,1.56,-1.54,-1.51,-2.08,6.88,6.88,6.87
31.93,8.42,1.55,8.42,1.55,-1.54,-1.47,-2.06,6.88,6.88,6.87
32.24,8.41,1.54,8.41,1.54,-1.53,-1.43,-2.03,6.88,6.88,6.88
32.57,8.40,1.52,8.40,1.52,-1.52,-1.40,-2.00,6.88,6.88,6.88
32.89,8.38,1.49,8.38,1.49,-1.50,-1.36,-1.97,6.88,6.88,6.89
33.22,8.36,1.47,8.36,1.47,-1.48,-1.32,-1.93,6.88,6.88,6.89
33.55,8.33,1.44,8.33,1.44,-1.44,-1.28,-1.89,6.88,6.88,6.89
33.89,8.29,1.41,8.29,1.41,-1.41,-1.24,-1.84,6.88,6.88,6.88
34.23,8.24,1.37,8.24,1.37,-1.37,-1.20,-1.79,6.88,6.88,6.87
34.57,8.19,1.33,8.19,1.32,-1.32,-1.15,-1.74,6.87,6.87,6.86
34.92,8.13,1.27,8.13,1.27,-1.26,-1.11,-1.68,6.87,6.87,6.86
35.27,8.07,1.20,8.07,1.20,-1.20,-1.07,-1.63,6.87,6.87,6.86
35.62,8.00,1.13,8.00,1.13,-1.13,-1.03,-1.56,6.87,6.87,6.87
35.97,7.93,1.06,7.93,1.06,-1.06,-0.99,-1.50,6.87,6.87,6.87
36.33,7.85,0.98,7.85,0.99,-0.99,-0.95,-1.44,6.87,6.87,6.87
36.70,7.78,0.91,7.78,0.91,-0.91,-0.90,-1.37,6.87,6.87,6.87
37.06,7.72,0.84,7.72,0.84,-0.84,-0.86,-1.30,6.87,6.87,6.88
37.43,7.65,0.77,7.65,0.77,-0.78,-0.82,-1.23,6.87,6.87,6.88
37.81,7.59,0.71,7.59,0.71,-0.72,-0.77,-1.16,6.87,6.87,6.88
38.19,7.54,0.66,7.54,0.66,-0.67,-0.73,-1.08,6.87,6.87,6.88
38.57,7.49,0.62,7.49,0.62,-0.62,-0.68,-1.01,6.86,6.86,6.87
38.95,7.45,0.58,7.44,0.58,-0.59,-0.64,-0.94,6.86,6.86,6.86
39.34,7.41,0.56,7.41,0.56,-0.56,-0.59,-0.86,6.85,6.85,6.85
39.74,7.37,0.53,7.38,0.53,-0.53,-0.55,-0.79,6.85,6.85,6.85
40.14,7.35,0.50,7.35,0.50,-0.50,-0.50,-0.71,6.84,6.84,6.84
40.54,7.32,0.48,7.32,0.48,-0.47,-0.45,-0.64,6.84,6.84,6.84
40.94,7.29,0.45,7.29,0.45,-0.44,-0.41,-0.56,6.84,6.84,6.84
41.35,7.25,0.42,7.25,0.42,-0.41,-0.36,-0.49,6.84,6.84,6.83
41.76,7.21,0.39,7.21,0.38,-0.38,-0.31,-0.41,6.84,6.83,6.83
42.18,7.17,0.34,7.17,0.34,-0.34,-0.26,-0.33,6.83,6.83,6.83
42.60,7.12,0.29,7.12,0.29,-0.30,-0.21,-0.26,6.82,6.82,6.83
43.03,7.07,0.24,7.07,0.24,-0.25,-0.16,-0.18,6.81,6.81,6.82
43.46,7.01,0.20,7.01,0.20,-0.20,-0.11,-0.11,6.81,6.81,6.81
43.90,6.95,0.15,6.96,0.15,-0.15,-0.06,-0.03,6.81,6.81,6.80
44.33,6.90,0.10,6.89,0.10,-0.09,-0.01,0.04,6.80,6.80,6.79
44.78,6.83,0.04,6.83,0.04,-0.03,0.04,0.12,6.80,6.80,6.79
45.23,6.76,-0.02,6.76,-0.02,0.03,0.09,0.20,6.79,6.79,6.78
45.68,6.68,-0.09,6.68,-0.09,0.09,0.14,0.27,6.78,6.78,6.78
46.13,6.61,-0.16,6.61,-0.16,0.15,0.19,0.35,6.76,6.76,6.77
46.60,6.53,-0.23,6.53,-0.23,0.22,0.24,0.42,6.75,6.75,6.76
47.06,6.46,-0.29,6.46,-0.29,0.28,0.30,0.50,6.73,6.73,6.75
47.53,6.39,-0.35,6.39,-0.34,0.33,0.35,0.57,6.72,6.73,6.74
48.01,6.33,-0.40,6.33,-0.40,0.39,0.40,0.65,6.72,6.72,6.72
48.49,6.27,-0.44,6.27,-0.44,0.45,0.46,0.72,6.72,6.72,6.71
48.97,6.21,-0.49,6.21,-0.49,0.50,0.51,0.80,6.71,6.71,6.70
49.46,6.15,-0.55,6.15,-0.55,0.56,0.56,0.87,6.71,6.71,6.69
49.96,6.08,-0.61,6.08,-0.61,0.62,0.62,0.94,6.70,6.70,6.69
50.46,6.01,-0.68,6.01,-0.68,0.68,0.67,1.02,6.70,6.70,6.70
50.96,5.94,-0.75,5.94,-0.75,0.75,0.73,1.09,6.69,6.69,6.70
51.47,5.88,-0.82,5.88,-0.82,0.81,0.79,1.16,6.69,6.69,6.69
51.99,5.81,-0.88,5.81,-0.88,0.88,0.84,1.24,6.68,6.68,6.68
52.51,5.74,-0.94,5.74,-0.94,0.94,0.90,1.31,6.68,6.68,6.68
53.03,5.67,-1.00,5.67,-1.00,1.00,0.96,1.38,6.67,6.67,6.67
53.56,5.61,-1.06,5.61,-1.06,1.05,1.01,1.45,6.66,6.66,6.67
54.10,5.54,-1.12,5.55,-1.12,1.11,1.07,1.52,6.66,6.66,6.66
54.64,5.48,-1.17,5.48,-1.17,1.17,1.13,1.59,6.65,6.65,6.65
55.18,5.42,-1.22,5.41,-1.22,1.23,1.19,1.66,6.64,6.64,6.63
55.74,5.34,-1.28,5.34,-1.28,1.28,1.25,1.72,6.63,6.63,6.62
56.29,5.27,-1.34,5.27,-1.34,1.35,1.31,1.79,6.61,6.61,6.60
56.86,5.18,-1.40,5.18,-1.40,1.41,1.36,1.85,6.59,6.59,6.59
57.42,5.10,-1.47,5.10,-1.47,1.47,1.42,1.91,6.57,6.57,6.57
58.00,5.01,-1.54,5.02,-1.54,1.53,1.48,1.97,6.55,6.55,6.55
58.58,4.93,-1.60,4.93,-1.60,1.60,1.54,2.03,6.53,6.53,6.54
59.16,4.85,-1.67,4.85,-1.66,1.66,1.61,2.09,6.51,6.51,6.52
59.76,4.78,-1.72,4.78,-1.72,1.71,1.67,2.14,6.49,6.50,6.50
60.35,4.71,-1.77,4.71,-1.77,1.77,1.73,2.19,6.48,6.48,6.48
60.96,4.64,-1.82,4.64,-1.82,1.82,1.79,2.24,6.47,6.47,6.47
61.57,4.58,-1.87,4.58,-1.87,1.88,1.85,2.29,6.45,6.45,6.45
62.18,4.51,-1.93,4.51,-1.93,1.93,1.91,2.33,6.44,6.44,6.43
62.80,4.43,-1.98,4.43,-1.98,1.99,1.98,2.38,6.42,6.42,6.41
63.43,4.36,-2.04,4.36,-2.04,2.05,2.04,2.42,6.40,6.40,6.40
64.07,4.28,-2.10,4.28,-2.10,2.11,2.10,2.46,6.39,6.39,6.38
64.71,4.19,-2.17,4.19,-2.17,2.18,2.16,2.49,6.37,6.37,6.37
65.35,4.11,-2.25,4.11,-2.25,2.25,2.23,2.53,6.35,6.35,6.35
66.01,4.02,-2.32,4.02,-2.32,2.32,2.29,2.56,6.34,6.34,6.34
66.67,3.93,-2.40,3.93,-2.40,2.40,2.36,2.59,6.33,6.33,6.33
67.33,3.83,-2.48,3.83,-2.48,2.48,2.42,2.62,6.31,6.31,6.31
68.01,3.74,-2.56,3.74,-2.56,2.56,2.48,2.65,6.30,6.30,6.30
68.69,3.65,-2.63,3.65,-2.63,2.63,2.55,2.68,6.28,6.28,6.28
69.37,3.56,-2.71,3.56,-2.71,2.70,2.61,2.70,6.26,6.26,6.27
70.07,3.47,-2.78,3.47,-2.78,2.78,2.68,2.73,6.24,6.24,6.25
70.77,3.38,-2.85,3.38,-2.85,2.84,2.74,2.76,6.22,6.22,6.23
71.48,3.29,-2.91,3.29,-2.91,2.91,2.81,2.78,6.20,6.20,6.20
72.19,3.21,-2.97,3.21,-2.97,2.97,2.87,2.81,6.18,6.18,6.18
72.91,3.13,-3.03,3.13,-3.03,3.03,2.94,2.83,6.16,6.16,6.16
73.64,3.05,-3.09,3.05,-3.09,3.09,3.00,2.86,6.14,6.14,6.14
74.38,2.97,-3.15,2.97,-3.15,3.15,3.07,2.89,6.11,6.11,6.11
75.12,2.88,-3.20,2.88,-3.20,3.20,3.13,2.91,6.09,6.09,6.08
75.87,2.80,-3.26,2.80,-3.26,3.26,3.20,2.94,6.06,6.06,6.06
76.63,2.71,-3.32,2.71,-3.32,3.32,3.26,2.97,6.03,6.03,6.03
77.40,2.62,-3.38,2.62,-3.38,3.38,3.33,3.01,6.00,6.00,6.00
78.17,2.54,-3.44,2.54,-3.44,3.44,3.39,3.04,5.97,5.97,5.98
78.95,2.45,-3.50,2.45,-3.50,3.50,3.46,3.08,5.95,5.95,5.95
79.74,2.36,-3.56,2.36,-3.56,3.56,3.52,3.11,5.92,5.92,5.92
80.54,2.27,-3.62,2.27,-3.62,3.62,3.59,3.15,5.89,5.89,5.89
81.35,2.18,-3.68,2.18,-3.68,3.68,3.65,3.19,5.86,5.86,5.86
82.16,2.09,-3.74,2.09,-3.74,3.74,3.72,3.24,5.83,5.83,5.83
82.98,2.00,-3.80,2.00,-3.80,3.80,3.78,3.28,5.80,5.80,5.80
83.81,1.91,-3.86,1.91,-3.86,3.86,3.84,3.33,5.77,5.77,5.77
84.65,1.82,-3.92,1.82,-3.92,3.92,3.91,3.38,5.74,5.74,5.74
85.50,1.73,-3.98,1.73,-3.98,3.98,3.97,3.44,5.71,5.71,5.71
86.35,1.64,-4.04,1.64,-4.04,4.04,4.03,3.50,5.67,5.67,5.67
87.22,1.55,-4.09,1.55,-4.09,4.09,4.10,3.56,5.64,5.64,5.64
88.09,1.46,-4.15,1.46,-4.15,4.15,4.16,3.62,5.61,5.61,5.61
88.97,1.37,-4.20,1.37,-4.20,4.21,4.22,3.68,5.58,5.58,5.58
89.86,1.28,-4.26,1.28,-4.26,4.26,4.28,3.75,5.55,5.54,5.54
90.76,1.19,-4.32,1.19,-4.32,4.32,4.34,3.82,5.51,5.51,5.51
91.66,1.10,-4.37,1.10,-4.37,4.37,4.40,3.89,5.48,5.48,5.48
92.58,1.01,-4.43,1.01,-4.43,4.43,4.46,3.97,5.44,5.44,5.44
93.51,0.92,-4.48,0.92,-4.48,4.48,4.51,4.05,5.41,5.41,5.41
94.44,0.83,-4.54,0.83,-4.54,4.54,4.57,4.13,5.37,5.37,5.37
95.39,0.74,-4.59,0.74,-4.59,4.59,4.63,4.22,5.33,5.33,5.33
96.34,0.65,-4.64,0.65,-4.64,4.64,4.68,4.30,5.30,5.30,5.30
97.30,0.57,-4.70,0.57,-4.70,4.69,4.74,4.39,5.26,5.26,5.26
98.28,0.48,-4.75,0.48,-4.75,4.74,4.79,4.48,5.22,5.22,5.22
99.26,0.39,-4.79,0.39,-4.79,4.79,4.84,4.57,5.19,5.19,5.19
100.25,0.31,-4.84,0.31,-4.84,4.84,4.90,4.67,5.15,5.15,5.15
101.25,0.22,-4.89,0.22,-4.89,4.89,4.95,4.76,5.11,5.11,5.11
102.27,0.13,-4.94,0.13,-4.94,4.94,4.99,4.86,5.07,5.07,5.07
103.29,0.04,-4.99,0.04,-4.99,4.99,5.04,4.96,5.03,5.03,5.03
104.32,-0.04,-5.03,-0.04,-5.03,5.03,5.09,5.06,4.99,4.99,4.99
105.37,-0.13,-5.08,-0.13,-5.08,5.07,5.13,5.15,4.94,4.94,4.95
106.42,-0.21,-5.12,-0.21,-5.12,5.11,5.18,5.25,4.90,4.90,4.91
107.48,-0.28,-5.15,-0.28,-5.15,5.15,5.22,5.35,4.87,4.87,4.87
108.56,-0.36,-5.18,-0.36,-5.18,5.18,5.26,5.44,4.83,4.83,4.83
109.64,-0.43,-5.22,-0.43,-5.22,5.22,5.30,5.53,4.79,4.79,4.78
110.74,-0.51,-5.25,-0.51,-5.25,5.25,5.34,5.62,4.75,4.75,4.74
111.85,-0.58,-5.28,-0.58,-5.28,5.29,5.37,5.71,4.70,4.70,4.70
112.97,-0.66,-5.31,-0.66,-5.31,5.32,5.41,5.79,4.66,4.66,4.65
114.10,-0.74,-5.35,-0.74,-5.35,5.35,5.44,5.87,4.61,4.61,4.61
115.24,-0.82,-5.38,-0.82,-5.38,5.38,5.47,5.94,4.57,4.57,4.57
116.39,-0.90,-5.42,-0.90,-5.42,5.41,5.50,6.01,4.52,4.52,4.52
117.55,-0.97,-5.45,-0.97,-5.45,5.44,5.53,6.07,4.47,4.47,4.48
118.73,-1.04,-5.47,-1.04,-5.47,5.47,5.55,6.13,4.43,4.43,4.43
119.92,-1.11,-5.50,-1.11,-5.50,5.50,5.58,6.17,4.38,4.38,4.39
121.12,-1.18,-5.52,-1.18,-5.52,5.52,5.60,6.21,4.34,4.34,4.34
122.33,-1.24,-5.54,-1.24,-5.54,5.54,5.62,6.24,4.29,4.29,4.29
123.55,-1.31,-5.55,-1.31,-5.55,5.55,5.64,6.26,4.25,4.25,4.25
124.79,-1.37,-5.57,-1.37,-5.57,5.57,5.65,6.27,4.20,4.20,4.20
126.03,-1.43,-5.58,-1.43,-5.58,5.59,5.66,6.28,4.15,4.15,4.15
127.29,-1.50,-5.60,-1.50,-5.60,5.60,5.67,6.27,4.10,4.10,4.10
128.57,-1.56,-5.61,-1.56,-5.61,5.61,5.68,6.26,4.05,4.05,4.05
129.85,-1.62,-5.63,-1.62,-5.63,5.63,5.69,6.23,4.00,4.00,4.00
131.15,-1.69,-5.64,-1.69,-5.64,5.64,5.70,6.20,3.95,3.95,3.95
132.46,-1.74,-5.65,-1.74,-5.65,5.65,5.70,6.16,3.90,3.90,3.90
133.79,-1.80,-5.65,-1.80,-5.65,5.66,5.70,6.12,3.86,3.86,3.85
135.12,-1.86,-5.66,-1.86,-5.66,5.66,5.70,6.06,3.81,3.81,3.80
136.48,-1.91,-5.66,-1.91,-5.66,5.67,5.70,6.01,3.75,3.75,3.75
137.84,-1.97,-5.67,-1.97,-5.67,5.67,5.69,5.94,3.70,3.70,3.70
139.22,-2.02,-5.67,-2.02,-5.67,5.67,5.69,5.88,3.64,3.64,3.65
140.61,-2.07,-5.67,-2.07,-5.67,5.66,5.68,5.80,3.59,3.59,3.60
142.02,-2.12,-5.66,-2.12,-5.66,5.66,5.67,5.73,3.54,3.54,3.54
143.44,-2.16,-5.65,-2.16,-5.65,5.65,5.65,5.65,3.49,3.49,3.49
144.87,-2.20,-5.64,-2.20,-5.64,5.64,5.64,5.57,3.44,3.44,3.44
146.32,-2.24,-5.63,-2.24,-5.63,5.63,5.62,5.49,3.39,3.39,3.38
147.78,-2.28,-5.62,-2.28,-5.62,5.62,5.61,5.40,3.33,3.33,3.33
149.26,-2.33,-5.60,-2.33,-5.60,5.60,5.59,5.32,3.28,3.28,3.28
150.75,-2.37,-5.59,-2.37,-5.59,5.59,5.57,5.24,3.22,3.22,3.22
152.26,-2.40,-5.57,-2.40,-5.57,5.57,5.54,5.15,3.16,3.16,3.17
153.78,-2.44,-5.55,-2.44,-5.55,5.55,5.52,5.07,3.11,3.11,3.11
155.32,-2.47,-5.53,-2.47,-5.53,5.53,5.49,4.99,3.06,3.06,3.06
156.88,-2.50,-5.50,-2.50,-5.50,5.50,5.47,4.91,3.00,3.00,3.00
158.44,-2.53,-5.47,-2.53,-5.47,5.48,5.44,4.83,2.95,2.95,2.95
160.03,-2.56,-5.45,-2.56,-5.45,5.45,5.41,4.76,2.90,2.90,2.89
161.63,-2.59,-5.42,-2.59,-5.42,5.42,5.37,4.68,2.84,2.84,2.84
163.24,-2.62,-5.40,-2.62,-5.40,5.40,5.34,4.61,2.78,2.78,2.78
164.88,-2.65,-5.37,-2.65,-5.37,5.37,5.31,4.55,2.72,2.72,2.72
166.53,-2.68,-5.34,-2.68,-5.34,5.34,5.27,4.48,2.67,2.67,2.67
168.19,-2.70,-5.31,-2.70,-5.31,5.31,5.23,4.42,2.61,2.61,2.61
169.87,-2.73,-5.28,-2.73,-5.28,5.28,5.20,4.36,2.55,2.55,2.55
171.57,-2.75,-5.25,-2.75,-5.25,5.25,5.16,4.30,2.49,2.49,2.50
173.29,-2.78,-5.21,-2.78,-5.21,5.21,5.12,4.25,2.44,2.44,2.44
175.02,-2.80,-5.18,-2.79,-5.18,5.17,5.08,4.20,2.38,2.38,2.38
176.77,-2.81,-5.13,-2.81,-5.13,5.13,5.04,4.15,2.32,2.32,2.32
178.54,-2.83,-5.09,-2.83,-5.09,5.09,4.99,4.11,2.27,2.27,2.27
180.32,-2.84,-5.05,-2.84,-5.05,5.05,4.95,4.06,2.21,2.21,2.21
182.13,-2.85,-5.00,-2.85,-5.00,5.00,4.91,4.03,2.15,2.15,2.15
183.95,-2.86,-4.96,-2.86,-4.96,4.96,4.86,3.99,2.10,2.10,2.09
185.79,-2.88,-4.91,-2.88,-4.91,4.92,4.82,3.96,2.04,2.04,2.04
187.65,-2.89,-4.87,-2.89,-4.87,4.87,4.77,3.93,1.98,1.98,1.98
189.52,-2.91,-4.83,-2.91,-4.83,4.83,4.73,3.91,1.92,1.92,1.92
191.42,-2.92,-4.79,-2.92,-4.79,4.78,4.68,3.88,1.86,1.86,1.86
193.33,-2.94,-4.74,-2.94,-4.74,4.74,4.64,3.87,1.80,1.80,1.80
195.27,-2.95,-4.70,-2.95,-4.70,4.69,4.59,3.85,1.74,1.74,1.75
197.22,-2.96,-4.65,-2.96,-4.65,4.65,4.54,3.83,1.69,1.69,1.69
199.19,-2.97,-4.60,-2.97,-4.60,4.60,4.49,3.82,1.63,1.63,1.63
201.18,-2.97,-4.55,-2.97,-4.55,4.55,4.45,3.81,1.58,1.58,1.57
203.19,-2.98,-4.50,-2.98,-4.50,4.50,4.40,3.80,1.52,1.52,1.52
205.23,-2.99,-4.45,-2.99,-4.45,4.45,4.35,3.80,1.46,1.46,1.46
207.28,-2.99,-4.40,-2.99,-4.40,4.40,4.30,3.79,1.40,1.40,1.40
209.35,-3.00,-4.35,-3.00,-4.35,4.34,4.26,3.79,1.34,1.34,1.35
211.44,-3.01,-4.29,-3.01,-4.29,4.29,4.21,3.78,1.29,1.29,1.29
213.56,-3.01,-4.24,-3.01,-4.24,4.24,4.16,3.78,1.23,1.23,1.23
215.69,-3.01,-4.19,-3.01,-4.19,4.19,4.11,3.78,1.18,1.18,1.18
217.85,-3.02,-4.14,-3.02,-4.14,4.14,4.06,3.78,1.12,1.12,1.12
220.03,-3.03,-4.09,-3.03,-4.09,4.09,4.01,3.78,1.06,1.07,1.06
222.23,-3.03,-4.04,-3.03,-4.04,4.04,3.97,3.78,1.01,1.01,1.01
224.45,-3.04,-3.99,-3.04,-3.99,3.99,3.92,3.78,0.95,0.95,0.95
226.70,-3.04,-3.94,-3.04,-3.94,3.94,3.87,3.78,0.90,0.90,0.90
228.96,-3.04,-3.89,-3.04,-3.89,3.89,3.82,3.78,0.84,0.84,0.85
231.25,-3.04,-3.83,-3.04,-3.83,3.83,3.78,3.77,0.79,0.79,0.79
233.57,-3.04,-3.78,-3.04,-3.78,3.78,3.73,3.77,0.74,0.74,0.74
235.90,-3.04,-3.72,-3.04,-3.72,3.72,3.68,3.76,0.69,0.69,0.68
238.26,-3.03,-3.66,-3.03,-3.66,3.67,3.64,3.75,0.63,0.63,0.63
240.64,-3.03,-3.61,-3.03,-3.61,3.61,3.59,3.74,0.58,0.58,0.58
243.05,-3.03,-3.55,-3.03,-3.55,3.55,3.55,3.73,0.53,0.53,0.53
245.48,-3.02,-3.50,-3.02,-3.50,3.49,3.50,3.71,0.47,0.47,0.48
247.93,-3.01,-3.44,-3.01,-3.43,3.43,3.46,3.69,0.42,0.42,0.42
250.41,-3.00,-3.37,-3.00,-3.37,3.37,3.41,3.67,0.37,0.37,0.37
252.92,-2.98,-3.31,-2.98,-3.31,3.30,3.37,3.65,0.32,0.32,0.32
255.45,-2.97,-3.24,-2.97,-3.24,3.24,3.32,3.62,0.27,0.27,0.27
258.00,-2.95,-3.17,-2.96,-3.18,3.18,3.28,3.59,0.23,0.23,0.22
260.58,-2.95,-3.12,-2.95,-3.12,3.12,3.24,3.56,0.18,0.18,0.17
263.19,-2.94,-3.06,-2.94,-3.06,3.07,3.20,3.53,0.13,0.13,0.13
265.82,-2.93,-3.01,-2.93,-3.01,3.01,3.15,3.49,0.08,0.08,0.08
268.48,-2.93,-2.96,-2.93,-2.96,2.96,3.11,3.45,0.03,0.03,0.03
271.16,-2.93,-2.91,-2.93,-2.91,2.91,3.07,3.41,-0.02,-0.02,-0.02
273.87,-2.93,-2.86,-2.93,-2.86,2.86,3.03,3.37,-0.06,-0.06,-0.06
276.61,-2.93,-2.82,-2.93,-2.82,2.82,2.99,3.32,-0.11,-0.11,-0.11
279.38,-2.92,-2.77,-2.92,-2.77,2.77,2.95,3.28,-0.15,-0.15,-0.15
282.17,-2.92,-2.73,-2.92,-2.73,2.72,2.92,3.23,-0.20,-0.20,-0.20
284.99,-2.92,-2.68,-2.92,-2.68,2.68,2.88,3.18,-0.24,-0.24,-0.24
287.84,-2.92,-2.64,-2.92,-2.64,2.63,2.84,3.13,-0.29,-0.29,-0.29
290.72,-2.92,-2.59,-2.92,-2.59,2.59,2.80,3.09,-0.33,-0.33,-0.33
293.63,-2.92,-2.55,-2.92,-2.55,2.55,2.77,3.04,-0.37,-0.37,-0.37
296.57,-2.92,-2.50,-2.92,-2.50,2.50,2.73,2.99,-0.41,-0.41,-0.41
299.53,-2.91,-2.46,-2.91,-2.46,2.46,2.70,2.94,-0.46,-0.46,-0.45
302.53,-2.91,-2.42,-2.91,-2.42,2.42,2.66,2.89,-0.50,-0.50,-0.49
305.55,-2.91,-2.38,-2.91,-2.38,2.38,2.63,2.84,-0.53,-0.53,-0.52
308.61,-2.90,-2.35,-2.90,-2.35,2.35,2.59,2.80,-0.56,-0.56,-0.56
311.69,-2.90,-2.32,-2.90,-2.32,2.33,2.56,2.75,-0.57,-0.57,-0.58
314.81,-2.89,-2.29,-2.89,-2.29,2.31,2.53,2.71,-0.58,-0.58,-0.60
317.96,-2.89,-2.29,-2.89,-2.29,2.31,2.50,2.66,-0.58,-0.58,-0.60
321.14,-2.88,-2.29,-2.88,-2.30,2.31,2.47,2.62,-0.57,-0.57,-0.59
324.35,-2.88,-2.32,-2.88,-2.32,2.32,2.44,2.58,-0.56,-0.56,-0.56
327.59,-2.88,-2.34,-2.88,-2.34,2.33,2.41,2.54,-0.55,-0.55,-0.54
330.87,-2.88,-2.35,-2.88,-2.35,2.34,2.38,2.50,-0.54,-0.54,-0.53
334.18,-2.88,-2.36,-2.88,-2.36,2.34,2.35,2.46,-0.54,-0.53,-0.52
337.52,-2.88,-2.36,-2.88,-2.36,2.34,2.32,2.43,-0.53,-0.53,-0.52
340.90,-2.87,-2.34,-2.87,-2.34,2.33,2.30,2.40,-0.54,-0.54,-0.53
344.30,-2.87,-2.32,-2.87,-2.32,2.32,2.27,2.37,-0.55,-0.55,-0.55
347.75,-2.87,-2.29,-2.87,-2.30,2.30,2.24,2.34,-0.57,-0.57,-0.58
351.23,-2.87,-2.27,-2.87,-2.27,2.27,2.22,2.31,-0.59,-0.59,-0.60
354.74,-2.87,-2.24,-2.87,-2.24,2.25,2.20,2.28,-0.62,-0.62,-0.62
358.28,-2.87,-2.22,-2.87,-2.22,2.22,2.17,2.26,-0.65,-0.65,-0.65
361.87,-2.86,-2.19,-2.86,-2.19,2.19,2.15,2.23,-0.67,-0.67,-0.67
365.49,-2.86,-2.17,-2.86,-2.17,2.17,2.13,2.21,-0.69,-0.69,-0.69
369.14,-2.85,-2.14,-2.85,-2.14,2.14,2.11,2.19,-0.71,-0.71,-0.71
372.83,-2.85,-2.12,-2.85,-2.12,2.12,2.09,2.18,-0.73,-0.73,-0.73
376.56,-2.84,-2.10,-2.84,-2.10,2.10,2.07,2.16,-0.74,-0.74,-0.74
380.33,-2.84,-2.08,-2.84,-2.08,2.08,2.05,2.15,-0.76,-0.76,-0.76
384.13,-2.83,-2.07,-2.83,-2.07,2.07,2.03,2.13,-0.77,-0.77,-0.77
387.97,-2.83,-2.05,-2.83,-2.05,2.05,2.01,2.12,-0.78,-0.78,-0.78
391.85,-2.83,-2.04,-2.83,-2.04,2.04,2.00,2.11,-0.79,-0.79,-0.79
395.77,-2.82,-2.02,-2.82,-2.02,2.02,1.98,2.10,-0.80,-0.80,-0.80
399.73,-2.82,-2.01,-2.82,-2.01,2.01,1.97,2.09,-0.81,-0.81,-0.81
403.72,-2.82,-2.00,-2.82,-2.00,2.00,1.95,2.09,-0.82,-0.82,-0.82
407.76,-2.81,-1.99,-2.81,-1.99,1.99,1.94,2.08,-0.82,-0.82,-0.82
411.84,-2.81,-1.98,-2.81,-1.98,1.98,1.93,2.08,-0.83,-0.83,-0.83
415.96,-2.80,-1.97,-2.80,-1.97,1.97,1.92,2.07,-0.83,-0.83,-0.83
420.12,-2.80,-1.97,-2.80,-1.97,1.97,1.91,2.07,-0.83,-0.83,-0.83
424.32,-2.80,-1.96,-2.80,-1.96,1.96,1.90,2.07,-0.83,-0.83,-0.83
428.56,-2.79,-1.95,-2.79,-1.95,1.95,1.89,2.06,-0.84,-0.84,-0.84
432.85,-2.79,-1.95,-2.79,-1.95,1.95,1.88,2.06,-0.84,-0.84,-0.84
437.18,-2.78,-1.95,-2.78,-1.95,1.95,1.87,2.06,-0.84,-0.84,-0.84
441.55,-2.78,-1.94,-2.78,-1.94,1.94,1.87,2.06,-0.83,-0.83,-0.83
445.96,-2.77,-1.94,-2.77,-1.94,1.94,1.86,2.06,-0.83,-0.83,-0.83
450.42,-2.77,-1.94,-2.77,-1.94,1.94,1.86,2.05,-0.83,-0.83,-0.83
454.93,-2.76,-1.93,-2.76,-1.93,1.93,1.85,2.05,-0.83,-0.83,-0.83
459.48,-2.76,-1.93,-2.76,-1.93,1.93,1.85,2.05,-0.82,-0.82,-0.82
464.07,-2.75,-1.93,-2.75,-1.93,1.93,1.85,2.04,-0.82,-0.82,-0.82
468.71,-2.75,-1.93,-2.75,-1.93,1.93,1.85,2.04,-0.81,-0.81,-0.81
473.40,-2.74,-1.93,-2.74,-1.93,1.93,1.85,2.03,-0.81,-0.81,-0.81
478.13,-2.73,-1.93,-2.73,-1.93,1.93,1.85,2.02,-0.80,-0.80,-0.80
482.91,-2.73,-1.93,-2.73,-1.93,1.93,1.85,2.01,-0.80,-0.80,-0.80
487.74,-2.72,-1.93,-2.72,-1.93,1.93,1.85,2.00,-0.79,-0.79,-0.79
492.62,-2.72,-1.93,-2.72,-1.93,1.93,1.85,1.99,-0.79,-0.79,-0.79
497.55,-2.71,-1.93,-2.71,-1.93,1.93,1.86,1.98,-0.78,-0.78,-0.78
502.52,-2.70,-1.93,-2.70,-1.93,1.93,1.86,1.96,-0.77,-0.77,-0.77
507.55,-2.70,-1.93,-2.70,-1.93,1.93,1.87,1.95,-0.76,-0.76,-0.76
512.62,-2.69,-1.93,-2.69,-1.93,1.93,1.87,1.93,-0.76,-0.76,-0.76
517.75,-2.68,-1.93,-2.68,-1.93,1.93,1.88,1.91,-0.75,-0.75,-0.75
522.93,-2.67,-1.93,-2.67,-1.93,1.93,1.89,1.89,-0.74,-0.74,-0.74
