frequency,raw,error,smoothed,error_smoothed,equalization,parametric_eq,fixed_band_eq,equalized_raw,equalized_smoothed,target
20.00,10.60,0.84,10.60,0.84,-0.99,-0.80,-0.88,9.61,9.61,9.75
20.20,10.69,0.95,10.70,0.95,-0.98,-0.83,-0.91,9.71,9.72,9.75
20.40,10.77,1.03,10.77,1.03,-0.98,-0.85,-0.94,9.79,9.79,9.74
20.61,10.82,1.08,10.81,1.07,-0.97,-0.87,-0.96,9.84,9.84,9.74
20.81,10.81,1.08,10.81,1.08,-0.97,-0.89,-0.99,9.85,9.85,9.73
21.02,10.78,1.06,10.78,1.06,-0.96,-0.91,-1.02,9.82,9.82,9.72
21.23,10.72,1.00,10.72,1.00,-0.95,-0.93,-1.05,9.77,9.77,9.72
21.44,10.65,0.94,10.65,0.94,-0.94,-0.96,-1.08,9.70,9.70,9.71
21.66,10.57,0.87,10.57,0.87,-0.90,-0.98,-1.11,9.67,9.67,9.70
21.87,10.50,0.82,10.51,0.82,-0.86,-1.01,-1.15,9.64,9.65,9.68
22.09,10.47,0.80,10.47,0.80,-0.85,-1.03,-1.18,9.63,9.63,9.67
22.31,10.47,0.81,10.47,0.81,-0.85,-1.06,-1.22,9.62,9.62,9.66
22.54,10.49,0.85,10.49,0.85,-0.87,-1.08,-1.25,9.62,9.62,9.64
22.76,10.54,0.91,10.54,0.91,-0.92,-1.11,-1.29,9.62,9.62,9.63
22.99,10.60,0.99,10.60,0.98,-0.98,-1.14,-1.32,9.62,9.62,9.61
23.22,10.66,1.06,10.66,1.06,-1.04,-1.17,-1.36,9.62,9.62,9.60
23.45,10.71,1.13,10.71,1.13,-1.11,-1.20,-1.40,9.61,9.60,9.58
23.69,10.75,1.19,10.75,1.19,-1.17,-1.23,-1.44,9.58,9.58,9.56
23.92,10.78,1.24,10.78,1.24,-1.22,-1.26,-1.48,9.56,9.56,9.54
24.16,10.80,1.28,10.80,1.28,-1.27,-1.29,-1.52,9.53,9.53,9.52
24.40,10.81,1.31,10.81,1.31,-1.32,-1.32,-1.56,9.49,9.49,9.50
24.65,10.82,1.34,10.82,1.34,-1.36,-1.35,-1.61,9.46,9.46,9.47
24.89,10.83,1.38,10.83,1.38,-1.39,-1.39,-1.65,9.44,9.44,9.45
25.14,10.84,1.42,10.85,1.42,-1.43,-1.42,-1.69,9.41,9.42,9.43
25.39,10.86,1.46,10.86,1.46,-1.46,-1.45,-1.73,9.40,9.40,9.40
25.65,10.87,1.50,10.87,1.50,-1.49,-1.49,-1.78,9.38,9.38,9.37
25.91,10.88,1.53,10.88,1.53,-1.51,-1.53,-1.82,9.36,9.36,9.34
26.16,10.87,1.56,10.87,1.55,-1.53,-1.56,-1.86,9.34,9.34,9.32
26.43,10.85,1.57,10.85,1.56,-1.54,-1.60,-1.91,9.31,9.31,9.29
26.69,10.82,1.57,10.82,1.57,-1.56,-1.64,-1.95,9.26,9.26,9.26
26.96,10.80,1.57,10.80,1.57,-1.58,-1.68,-1.99,9.22,9.22,9.23
27.23,10.78,1.58,10.78,1.58,-1.61,-1.71,-2.03,9.17,9.17,9.20
27.50,10.78,1.62,10.78,1.62,-1.66,-1.75,-2.07,9.13,9.13,9.17
27.77,10.81,1.67,10.81,1.68,-1.71,-1.79,-2.11,9.10,9.10,9.14
28.05,10.86,1.76,10.86,1.76,-1.78,-1.83,-2.15,9.07,9.08,9.10
28.33,10.93,1.86,10.92,1.86,-1.86,-1.87,-2.19,9.06,9.06,9.06
28.62,10.99,1.96,10.99,1.96,-1.95,-1.91,-2.22,9.04,9.04,9.03
28.90,11.05,2.06,11.05,2.06,-2.03,-1.95,-2.26,9.02,9.02,8.99
29.19,11.09,2.13,11.09,2.13,-2.10,-1.99,-2.29,8.98,8.98,8.96
29.48,11.11,2.19,11.11,2.19,-2.17,-2.03,-2.31,8.95,8.94,8.92
29.78,11.11,2.23,11.11,2.23,-2.22,-2.07,-2.34,8.89,8.89,8.88
30.08,11.10,2.25,11.10,2.25,-2.25,-2.12,-2.36,8.85,8.85,8.85
30.38,11.08,2.27,11.08,2.27,-2.28,-2.16,-2.38,8.81,8.81,8.81
30.68,11.06,2.29,11.06,2.29,-2.29,-2.19,-2.40,8.77,8.77,8.78
30.99,11.04,2.30,11.04,2.30,-2.30,-2.23,-2.42,8.74,8.74,8.74
31.30,11.01,2.32,11.01,2.32,-2.31,-2.27,-2.43,8.70,8.70,8.70
31.61,10.99,2.33,10.99,2.33,-2.33,-2.31,-2.44,8.66,8.66,8.66
31.93,10.96,2.34,10.96,2.34,-2.35,-2.35,-2.44,8.61,8.61,8.62
32.24,10.94,2.36,10.94,2.36,-2.38,-2.38,-2.45,8.56,8.56,8.57
32.57,10.93,2.39,10.93,2.40,-2.42,-2.42,-2.45,8.51,8.51,8.53
32.89,10.93,2.44,10.93,2.44,-2.46,-2.45,-2.45,8.47,8.47,8.49
33.22,10.94,2.49,10.94,2.49,-2.50,-2.48,-2.44,8.44,8.44,8.45
33.55,10.96,2.55,10.95,2.55,-2.54,-2.51,-2.44,8.41,8.41,8.41
33.89,10.96,2.60,10.96,2.60,-2.58,-2.54,-2.43,8.38,8.38,8.36
34.23,10.96,2.64,10.96,2.64,-2.62,-2.57,-2.42,8.34,8.34,8.32
34.57,10.94,2.66,10.94,2.66,-2.64,-2.60,-2.41,8.29,8.29,8.27
34.92,10.90,2.68,10.91,2.67,-2.66,-2.62,-2.39,8.24,8.24,8.23
35.27,10.86,2.68,10.86,2.68,-2.67,-2.64,-2.38,8.20,8.20,8.19
35.62,10.82,2.67,10.82,2.67,-2.67,-2.66,-2.36,8.15,8.15,8.14
35.97,10.77,2.67,10.77,2.67,-2.67,-2.68,-2.35,8.10,8.10,8.10
36.33,10.72,2.66,10.72,2.66,-2.67,-2.70,-2.33,8.04,8.04,8.06
36.70,10.67,2.66,10.67,2.66,-2.69,-2.71,-2.31,7.99,7.99,8.01
37.06,10.63,2.67,10.64,2.67,-2.70,-2.72,-2.30,7.93,7.93,7.96
37.43,10.61,2.70,10.62,2.70,-2.72,-2.73,-2.28,7.89,7.89,7.91
37.81,10.61,2.74,10.61,2.74,-2.74,-2.74,-2.26,7.86,7.87,7.87
38.19,10.60,2.78,10.60,2.78,-2.76,-2.75,-2.25,7.84,7.84,7.82
38.57,10.58,2.81,10.58,2.81,-2.77,-2.75,-2.23,7.81,7.80,7.77
38.95,10.54,2.81,10.53,2.81,-2.78,-2.75,-2.21,7.75,7.75,7.72
39.34,10.47,2.80,10.47,2.80,-2.78,-2.75,-2.20,7.69,7.69,7.67
39.74,10.40,2.77,10.40,2.77,-2.78,-2.75,-2.19,7.62,7.62,7.63
40.14,10.32,2.74,10.32,2.75,-2.76,-2.75,-2.17,7.55,7.56,7.58
40.54,10.25,2.72,10.25,2.73,-2.74,-2.74,-2.16,7.50,7.50,7.52
40.94,10.18,2.72,10.18,2.71,-2.72,-2.74,-2.15,7.46,7.46,7.47
41.35,10.12,2.71,10.12,2.70,-2.70,-2.73,-2.15,7.42,7.42,7.41
41.76,10.05,2.69,10.05,2.69,-2.68,-2.72,-2.14,7.37,7.37,7.36
42.18,9.97,2.67,9.97,2.67,-2.66,-2.71,-2.13,7.30,7.30,7.30
42.60,9.88,2.64,9.88,2.64,-2.65,-2.70,-2.13,7.23,7.24,7.24
43.03,9.80,2.62,9.80,2.62,-2.63,-2.69,-2.13,7.17,7.17,7.18
43.46,9.73,2.61,9.73,2.61,-2.61,-2.68,-2.13,7.12,7.12,7.12
43.90,9.66,2.60,9.66,2.60,-2.59,-2.67,-2.13,7.07,7.07,7.06
44.33,9.59,2.59,9.59,2.58,-2.57,-2.66,-2.13,7.02,7.02,7.00
44.78,9.51,2.56,9.51,2.56,-2.56,-2.64,-2.14,6.95,6.95,6.94
45.23,9.42,2.54,9.42,2.54,-2.55,-2.63,-2.14,6.87,6.87,6.88
45.68,9.34,2.52,9.34,2.52,-2.55,-2.62,-2.15,6.79,6.79,6.82
46.13,9.28,2.52,9.28,2.52,-2.55,-2.60,-2.16,6.73,6.73,6.76
46.60,9.23,2.54,9.23,2.54,-2.54,-2.59,-2.17,6.69,6.69,6.69
47.06,9.19,2.56,9.19,2.56,-2.54,-2.58,-2.18,6.65,6.65,6.62
47.53,9.14,2.58,9.12,2.57,-2.53,-2.56,-2.20,6.60,6.59,6.56
48.01,9.04,2.56,9.04,2.55,-2.53,-2.55,-2.21,6.52,6.51,6.49
48.49,8.94,2.52,8.94,2.52,-2.53,-2.54,-2.23,6.41,6.42,6.42
48.97,8.84,2.49,8.84,2.49,-2.52,-2.53,-2.25,6.32,6.32,6.35
49.46,8.75,2.48,8.76,2.49,-2.52,-2.52,-2.26,6.23,6.24,6.28
49.96,8.70,2.50,8.70,2.50,-2.52,-2.51,-2.28,6.18,6.18,6.20
50.46,8.65,2.52,8.65,2.52,-2.51,-2.49,-2.31,6.14,6.14,6.13
50.96,8.60,2.54,8.60,2.54,-2.51,-2.48,-2.33,6.09,6.08,6.06
51.47,8.53,2.55,8.53,2.54,-2.52,-2.47,-2.35,6.01,6.01,5.98
51.99,8.44,2.53,8.44,2.54,-2.53,-2.47,-2.37,5.92,5.92,5.91
52.51,8.35,2.52,8.35,2.52,-2.54,-2.46,-2.40,5.81,5.82,5.83
53.03,8.26,2.51,8.26,2.51,-2.54,-2.45,-2.42,5.72,5.72,5.75
53.56,8.19,2.51,8.19,2.52,-2.54,-2.44,-2.44,5.65,5.65,5.67
54.10,8.12,2.53,8.13,2.53,-2.53,-2.43,-2.47,5.59,5.60,5.60
54.64,8.06,2.55,8.06,2.55,-2.52,-2.43,-2.49,5.55,5.54,5.51
55.18,7.98,2.55,7.97,2.54,-2.49,-2.42,-2.51,5.49,5.48,5.43
55.74,7.86,2.51,7.86,2.51,-2.47,-2.42,-2.53,5.39,5.39,5.35
56.29,7.73,2.46,7.73,2.46,-2.45,-2.41,-2.55,5.28,5.28,5.27
56.86,7.59,2.40,7.60,2.40,-2.43,-2.41,-2.57,5.17,5.17,5.20
57.42,7.48,2.37,7.48,2.37,-2.41,-2.40,-2.59,5.07,5.07,5.12
58.00,7.38,2.35,7.39,2.35,-2.40,-2.40,-2.60,4.98,4.99,5.04
58.58,7.32,2.37,7.32,2.37,-2.40,-2.39,-2.61,4.92,4.92,4.95
59.16,7.26,2.39,7.26,2.40,-2.40,-2.39,-2.62,4.87,4.87,4.87
59.76,7.22,2.43,7.22,2.43,-2.39,-2.38,-2.63,4.83,4.82,4.79
60.35,7.16,2.45,7.15,2.44,-2.39,-2.38,-2.64,4.77,4.77,4.71
60.96,7.07,2.44,7.06,2.43,-2.38,-2.37,-2.64,4.69,4.68,4.63
61.57,6.95,2.39,6.94,2.39,-2.37,-2.37,-2.64,4.58,4.57,4.55
62.18,6.80,2.33,6.81,2.34,-2.36,-2.36,-2.64,4.44,4.45,4.47
62.80,6.67,2.29,6.68,2.30,-2.35,-2.36,-2.63,4.32,4.33,4.38
63.43,6.59,2.29,6.59,2.29,-2.35,-2.35,-2.62,4.24,4.24,4.30
64.07,6.53,2.31,6.54,2.32,-2.35,-2.35,-2.61,4.18,4.18,4.22
64.71,6.50,2.36,6.50,2.36,-2.37,-2.34,-2.60,4.14,4.13,4.14
65.35,6.46,2.40,6.46,2.40,-2.38,-2.34,-2.58,4.08,4.08,4.06
66.01,6.42,2.43,6.41,2.43,-2.39,-2.33,-2.56,4.03,4.02,3.99
66.67,6.35,2.44,6.35,2.44,-2.39,-2.32,-2.54,3.95,3.95,3.91
67.33,6.25,2.42,6.25,2.42,-2.38,-2.31,-2.51,3.87,3.87,3.83
68.01,6.14,2.39,6.13,2.38,-2.36,-2.30,-2.48,3.78,3.78,3.75
68.69,6.00,2.32,6.00,2.32,-2.32,-2.29,-2.45,3.67,3.68,3.67
69.37,5.86,2.26,5.86,2.26,-2.28,-2.28,-2.42,3.57,3.58,3.60
70.07,5.72,2.20,5.73,2.21,-2.24,-2.27,-2.39,3.48,3.49,3.52
70.77,5.61,2.17,5.61,2.17,-2.20,-2.26,-2.36,3.41,3.41,3.44
71.48,5.51,2.16,5.51,2.16,-2.17,-2.25,-2.32,3.34,3.34,3.36
72.19,5.43,2.15,5.43,2.15,-2.15,-2.24,-2.29,3.28,3.28,3.28
72.91,5.34,2.14,5.34,2.14,-2.14,-2.22,-2.25,3.21,3.20,3.20
73.64,5.26,2.14,5.26,2.14,-2.13,-2.21,-2.21,3.13,3.13,3.12
74.38,5.18,2.13,5.18,2.13,-2.13,-2.19,-2.18,3.05,3.05,3.05
75.12,5.10,2.13,5.10,2.13,-2.13,-2.18,-2.14,2.97,2.97,2.97
75.87,5.03,2.13,5.03,2.13,-2.13,-2.16,-2.10,2.90,2.90,2.90
76.63,4.95,2.13,4.95,2.13,-2.12,-2.14,-2.06,2.82,2.82,2.82
77.40,4.87,2.12,4.87,2.12,-2.12,-2.12,-2.03,2.75,2.75,2.75
78.17,4.78,2.11,4.78,2.11,-2.10,-2.11,-1.99,2.68,2.68,2.67
78.95,4.69,2.10,4.69,2.10,-2.09,-2.09,-1.95,2.60,2.60,2.60
79.74,4.60,2.08,4.60,2.08,-2.07,-2.07,-1.92,2.53,2.53,2.52
80.54,4.50,2.05,4.50,2.05,-2.05,-2.05,-1.88,2.45,2.45,2.45
81.35,4.40,2.03,4.40,2.03,-2.03,-2.03,-1.85,2.37,2.37,2.37
82.16,4.30,2.00,4.30,2.01,-2.01,-2.00,-1.82,2.30,2.30,2.30
82.98,4.21,1.98,4.21,1.98,-1.98,-1.98,-1.79,2.22,2.22,2.22
83.81,4.11,1.96,4.11,1.96,-1.96,-1.96,-1.75,2.15,2.15,2.15
84.65,4.01,1.93,4.01,1.93,-1.93,-1.94,-1.73,2.08,2.08,2.08
85.50,3.91,1.91,3.91,1.91,-1.90,-1.92,-1.70,2.01,2.01,2.01
86.35,3.81,1.88,3.81,1.88,-1.88,-1.89,-1.67,1.94,1.94,1.93
87.22,3.72,1.86,3.72,1.86,-1.86,-1.87,-1.64,1.86,1.86,1.86
88.09,3.62,1.83,3.62,1.83,-1.84,-1.85,-1.62,1.79,1.79,1.79
88.97,3.53,1.81,3.53,1.81,-1.82,-1.83,-1.60,1.71,1.71,1.72
89.86,3.44,1.80,3.45,1.80,-1.81,-1.80,-1.57,1.63,1.64,1.65
90.76,3.37,1.79,3.37,1.79,-1.80,-1.78,-1.55,1.56,1.56,1.57
91.66,3.30,1.79,3.30,1.79,-1.80,-1.76,-1.53,1.50,1.50,1.50
92.58,3.23,1.80,3.23,1.80,-1.80,-1.74,-1.52,1.43,1.43,1.43
93.51,3.16,1.80,3.16,1.80,-1.79,-1.72,-1.50,1.37,1.37,1.36
94.44,3.09,1.80,3.09,1.80,-1.79,-1.69,-1.48,1.30,1.30,1.29
95.39,3.01,1.79,3.01,1.79,-1.78,-1.67,-1.47,1.23,1.23,1.22
96.34,2.92,1.77,2.92,1.77,-1.76,-1.65,-1.45,1.16,1.16,1.15
97.30,2.83,1.74,2.83,1.74,-1.74,-1.63,-1.44,1.09,1.09,1.09
98.28,2.73,1.71,2.73,1.71,-1.71,-1.61,-1.43,1.02,1.02,1.02
99.26,2.63,1.67,2.63,1.67,-1.68,-1.59,-1.42,0.96,0.96,0.96
100.25,2.53,1.64,2.53,1.64,-1.64,-1.57,-1.41,0.89,0.89,0.90
101.25,2.44,1.60,2.44,1.60,-1.60,-1.55,-1.40,0.83,0.83,0.83
102.27,2.34,1.56,2.34,1.56,-1.56,-1.53,-1.39,0.77,0.77,0.77
103.29,2.24,1.53,2.24,1.53,-1.53,-1.51,-1.38,0.71,0.71,0.71
104.32,2.15,1.49,2.15,1.49,-1.49,-1.49,-1.38,0.65,0.65,0.65
105.37,2.06,1.46,2.06,1.46,-1.46,-1.48,-1.37,0.59,0.59,0.60
106.42,1.97,1.43,1.97,1.43,-1.44,-1.46,-1.36,0.53,0.53,0.54
107.48,1.89,1.41,1.89,1.41,-1.42,-1.44,-1.36,0.47,0.47,0.48
108.56,1.82,1.39,1.82,1.39,-1.40,-1.43,-1.36,0.42,0.42,0.42
109.64,1.75,1.39,1.75,1.39,-1.39,-1.41,-1.35,0.37,0.37,0.37
110.74,1.69,1.38,1.69,1.38,-1.38,-1.40,-1.35,0.31,0.31,0.31
111.85,1.63,1.37,1.63,1.37,-1.37,-1.38,-1.34,0.26,0.26,0.25
112.97,1.56,1.36,1.56,1.36,-1.36,-1.37,-1.34,0.21,0.21,0.20
114.10,1.50,1.35,1.50,1.35,-1.35,-1.36,-1.34,0.15,0.15,0.15
115.24,1.44,1.34,1.44,1.34,-1.34,-1.34,-1.33,0.10,0.10,0.10
116.39,1.38,1.32,1.38,1.32,-1.33,-1.33,-1.33,0.05,0.05,0.05
117.55,1.32,1.31,1.32,1.31,-1.31,-1.32,-1.33,0.01,0.01,0.01
118.73,1.26,1.30,1.26,1.30,-1.30,-1.31,-1.32,-0.04,-0.04,-0.04
119.92,1.21,1.29,1.21,1.29,-1.29,-1.30,-1.32,-0.08,-0.08,-0.08
121.12,1.15,1.28,1.15,1.28,-1.27,-1.29,-1.31,-0.12,-0.12,-0.13
122.33,1.09,1.27,1.09,1.26,-1.26,-1.28,-1.31,-0.17,-0.17,-0.17
123.55,1.04,1.25,1.04,1.25,-1.25,-1.27,-1.30,-0.22,-0.22,-0.22
124.79,0.98,1.24,0.99,1.24,-1.25,-1.27,-1.30,-0.27,-0.26,-0.25
126.03,0.94,1.23,0.94,1.24,-1.25,-1.26,-1.29,-0.30,-0.30,-0.29
127.29,0.90,1.24,0.90,1.24,-1.24,-1.25,-1.28,-0.34,-0.34,-0.33
128.57,0.87,1.24,0.87,1.24,-1.24,-1.25,-1.28,-0.37,-0.37,-0.37
129.85,0.84,1.24,0.84,1.24,-1.24,-1.24,-1.27,-0.40,-0.40,-0.41
131.15,0.80,1.24,0.80,1.24,-1.23,-1.24,-1.26,-0.43,-0.43,-0.44
132.46,0.76,1.24,0.76,1.24,-1.23,-1.23,-1.25,-0.46,-0.46,-0.48
133.79,0.72,1.22,0.72,1.22,-1.22,-1.23,-1.25,-0.50,-0.50,-0.51
135.12,0.67,1.21,0.67,1.21,-1.21,-1.23,-1.24,-0.54,-0.54,-0.54
136.48,0.62,1.19,0.62,1.19,-1.20,-1.23,-1.23,-0.57,-0.57,-0.57
137.84,0.58,1.18,0.58,1.18,-1.19,-1.23,-1.22,-0.61,-0.61,-0.60
139.22,0.55,1.17,0.55,1.17,-1.18,-1.22,-1.21,-0.63,-0.63,-0.63
140.61,0.52,1.17,0.52,1.17,-1.17,-1.22,-1.20,-0.65,-0.65,-0.66
142.02,0.49,1.17,0.49,1.17,-1.16,-1.22,-1.19,-0.67,-0.67,-0.68
143.44,0.46,1.16,0.46,1.16,-1.16,-1.23,-1.18,-0.70,-0.70,-0.71
144.87,0.43,1.16,0.43,1.16,-1.15,-1.23,-1.17,-0.73,-0.73,-0.73
146.32,0.39,1.15,0.39,1.15,-1.15,-1.23,-1.16,-0.76,-0.76,-0.75
147.78,0.36,1.14,0.36,1.15,-1.15,-1.23,-1.16,-0.79,-0.79,-0.78
149.26,0.34,1.15,0.34,1.15,-1.15,-1.23,-1.15,-0.81,-0.81,-0.81
150.75,0.32,1.16,0.32,1.15,-1.15,-1.24,-1.14,-0.83,-0.83,-0.84
152.26,0.31,1.16,0.31,1.16,-1.16,-1.24,-1.13,-0.86,-0.86,-0.86
153.78,0.29,1.17,0.29,1.17,-1.17,-1.25,-1.13,-0.88,-0.88,-0.88
155.32,0.28,1.18,0.28,1.18,-1.19,-1.25,-1.12,-0.91,-0.90,-0.90
156.88,0.28,1.19,0.28,1.20,-1.20,-1.26,-1.12,-0.92,-0.92,-0.92
158.44,0.28,1.21,0.28,1.22,-1.22,-1.26,-1.11,-0.94,-0.94,-0.93
160.03,0.28,1.24,0.28,1.24,-1.23,-1.27,-1.11,-0.95,-0.95,-0.95
161.63,0.29,1.26,0.28,1.25,-1.24,-1.28,-1.10,-0.96,-0.96,-0.97
163.24,0.28,1.27,0.28,1.26,-1.26,-1.28,-1.10,-0.97,-0.98,-0.98
164.88,0.27,1.27,0.27,1.27,-1.27,-1.29,-1.10,-1.00,-1.00,-1.00
166.53,0.26,1.27,0.26,1.27,-1.28,-1.30,-1.10,-1.02,-1.02,-1.01
168.19,0.25,1.28,0.25,1.28,-1.29,-1.30,-1.10,-1.04,-1.04,-1.03
169.87,0.24,1.29,0.24,1.29,-1.29,-1.31,-1.10,-1.05,-1.05,-1.04
171.57,0.24,1.30,0.24,1.30,-1.30,-1.32,-1.10,-1.06,-1.06,-1.06
173.29,0.24,1.31,0.24,1.31,-1.31,-1.33,-1.10,-1.07,-1.07,-1.07
175.02,0.25,1.33,0.25,1.33,-1.33,-1.34,-1.10,-1.08,-1.08,-1.08
176.77,0.25,1.34,0.25,1.34,-1.34,-1.35,-1.11,-1.09,-1.09,-1.09
178.54,0.25,1.35,0.25,1.35,-1.36,-1.36,-1.11,-1.10,-1.10,-1.10
180.32,0.26,1.37,0.26,1.37,-1.37,-1.37,-1.12,-1.11,-1.11,-1.11
182.13,0.26,1.39,0.26,1.39,-1.38,-1.37,-1.12,-1.12,-1.12,-1.12
183.95,0.27,1.41,0.27,1.40,-1.40,-1.38,-1.13,-1.12,-1.12,-1.13
185.79,0.28,1.41,0.28,1.41,-1.41,-1.39,-1.14,-1.13,-1.13,-1.13
187.65,0.29,1.42,0.29,1.42,-1.42,-1.40,-1.15,-1.13,-1.13,-1.13
189.52,0.29,1.43,0.29,1.43,-1.43,-1.41,-1.16,-1.14,-1.14,-1.13
191.42,0.29,1.44,0.29,1.44,-1.44,-1.42,-1.17,-1.15,-1.15,-1.15
193.33,0.29,1.45,0.29,1.45,-1.45,-1.42,-1.18,-1.16,-1.16,-1.16
195.27,0.29,1.47,0.29,1.46,-1.46,-1.43,-1.19,-1.17,-1.17,-1.18
197.22,0.29,1.48,0.29,1.47,-1.47,-1.44,-1.20,-1.18,-1.18,-1.18
199.19,0.29,1.48,0.29,1.48,-1.48,-1.45,-1.21,-1.19,-1.19,-1.19
201.18,0.30,1.49,0.30,1.49,-1.49,-1.45,-1.23,-1.19,-1.19,-1.19
203.19,0.31,1.50,0.31,1.50,-1.50,-1.46,-1.24,-1.19,-1.19,-1.19
205.23,0.31,1.51,0.31,1.51,-1.51,-1.46,-1.25,-1.19,-1.19,-1.19
207.28,0.32,1.51,0.32,1.51,-1.51,-1.47,-1.27,-1.19,-1.19,-1.19
209.35,0.32,1.51,0.32,1.51,-1.51,-1.47,-1.28,-1.19,-1.19,-1.19
211.44,0.31,1.51,0.31,1.51,-1.51,-1.47,-1.30,-1.19,-1.19,-1.20
213.56,0.31,1.50,0.31,1.50,-1.51,-1.47,-1.31,-1.20,-1.20,-1.20
215.69,0.30,1.50,0.30,1.50,-1.50,-1.48,-1.32,-1.21,-1.21,-1.20
217.85,0.28,1.49,0.28,1.50,-1.50,-1.48,-1.33,-1.22,-1.22,-1.21
220.03,0.27,1.50,0.28,1.50,-1.50,-1.48,-1.35,-1.23,-1.23,-1.22
222.23,0.27,1.50,0.27,1.50,-1.50,-1.47,-1.36,-1.23,-1.23,-1.23
224.45,0.26,1.50,0.26,1.50,-1.50,-1.47,-1.37,-1.24,-1.24,-1.24
226.70,0.26,1.50,0.26,1.50,-1.50,-1.47,-1.38,-1.24,-1.24,-1.25
228.96,0.25,1.50,0.25,1.50,-1.50,-1.46,-1.39,-1.25,-1.25,-1.25
231.25,0.25,1.50,0.25,1.50,-1.50,-1.46,-1.39,-1.25,-1.25,-1.25
233.57,0.24,1.49,0.24,1.49,-1.49,-1.45,-1.40,-1.25,-1.25,-1.25
235.90,0.23,1.48,0.23,1.48,-1.48,-1.44,-1.41,-1.26,-1.26,-1.25
238.26,0.22,1.47,0.22,1.47,-1.47,-1.44,-1.41,-1.26,-1.26,-1.25
240.64,0.21,1.46,0.21,1.46,-1.46,-1.43,-1.41,-1.25,-1.25,-1.25
243.05,0.19,1.45,0.19,1.45,-1.44,-1.42,-1.41,-1.25,-1.25,-1.25
245.48,0.18,1.43,0.18,1.43,-1.43,-1.41,-1.41,-1.25,-1.25,-1.25
247.93,0.16,1.41,0.16,1.41,-1.41,-1.39,-1.40,-1.25,-1.25,-1.25
250.41,0.13,1.39,0.13,1.39,-1.39,-1.38,-1.40,-1.25,-1.25,-1.25
252.92,0.11,1.36,0.11,1.36,-1.36,-1.37,-1.39,-1.26,-1.26,-1.25
255.45,0.08,1.34,0.08,1.34,-1.34,-1.35,-1.38,-1.26,-1.26,-1.25
258.00,0.06,1.31,0.06,1.31,-1.31,-1.34,-1.37,-1.26,-1.26,-1.25
260.58,0.03,1.29,0.03,1.29,-1.29,-1.32,-1.36,-1.26,-1.26,-1.25
263.19,0.01,1.27,0.01,1.26,-1.26,-1.30,-1.34,-1.25,-1.25,-1.25
265.82,-0.01,1.24,-0.01,1.24,-1.24,-1.28,-1.32,-1.25,-1.25,-1.25
268.48,-0.04,1.22,-0.04,1.22,-1.22,-1.26,-1.31,-1.25,-1.25,-1.25
271.16,-0.06,1.19,-0.06,1.19,-1.19,-1.25,-1.29,-1.25,-1.25,-1.25
273.87,-0.09,1.17,-0.09,1.17,-1.17,-1.23,-1.27,-1.25,-1.25,-1.25
276.61,-0.11,1.14,-0.11,1.14,-1.14,-1.20,-1.24,-1.25,-1.25,-1.25
279.38,-0.13,1.12,-0.13,1.12,-1.12,-1.18,-1.22,-1.25,-1.25,-1.25
282.17,-0.16,1.10,-0.16,1.10,-1.10,-1.16,-1.20,-1.25,-1.25,-1.25
284.99,-0.18,1.07,-0.18,1.07,-1.07,-1.14,-1.17,-1.25,-1.25,-1.25
287.84,-0.20,1.05,-0.20,1.05,-1.05,-1.12,-1.14,-1.25,-1.25,-1.25
290.72,-0.22,1.03,-0.22,1.03,-1.03,-1.10,-1.12,-1.25,-1.25,-1.25
293.63,-0.24,1.01,-0.24,1.01,-1.01,-1.07,-1.09,-1.25,-1.25,-1.24
296.57,-0.25,0.99,-0.25,0.99,-0.99,-1.05,-1.06,-1.24,-1.24,-1.24
299.53,-0.27,0.97,-0.27,0.97,-0.97,-1.03,-1.03,-1.24,-1.24,-1.24
302.53,-0.29,0.96,-0.29,0.96,-0.96,-1.00,-1.00,-1.24,-1.24,-1.24
305.55,-0.31,0.94,-0.31,0.94,-0.94,-0.98,-0.97,-1.24,-1.24,-1.24
308.61,-0.32,0.92,-0.32,0.92,-0.92,-0.96,-0.95,-1.24,-1.24,-1.24
311.69,-0.34,0.90,-0.34,0.90,-0.90,-0.93,-0.92,-1.24,-1.24,-1.24
314.81,-0.36,0.89,-0.35,0.89,-0.89,-0.91,-0.89,-1.24,-1.24,-1.24
317.96,-0.37,0.87,-0.37,0.87,-0.87,-0.89,-0.86,-1.24,-1.24,-1.24
321.14,-0.39,0.85,-0.39,0.85,-0.85,-0.86,-0.83,-1.23,-1.23,-1.24
324.35,-0.40,0.83,-0.40,0.83,-0.83,-0.84,-0.80,-1.23,-1.23,-1.23
327.59,-0.41,0.81,-0.41,0.81,-0.80,-0.82,-0.78,-1.22,-1.22,-1.22
330.87,-0.43,0.78,-0.43,0.78,-0.78,-0.79,-0.75,-1.21,-1.21,-1.21
334.18,-0.44,0.76,-0.44,0.76,-0.76,-0.77,-0.72,-1.20,-1.20,-1.20
337.52,-0.45,0.74,-0.45,0.74,-0.74,-0.75,-0.69,-1.20,-1.20,-1.20
340.90,-0.47,0.72,-0.47,0.72,-0.73,-0.73,-0.67,-1.19,-1.20,-1.19
344.30,-0.48,0.70,-0.48,0.70,-0.71,-0.70,-0.64,-1.19,-1.19,-1.18
347.75,-0.50,0.69,-0.50,0.69,-0.69,-0.68,-0.62,-1.19,-1.19,-1.19
351.23,-0.51,0.68,-0.51,0.68,-0.68,-0.66,-0.59,-1.19,-1.19,-1.19
354.74,-0.53,0.67,-0.53,0.67,-0.66,-0.64,-0.57,-1.19,-1.19,-1.20
358.28,-0.54,0.66,-0.54,0.66,-0.65,-0.61,-0.54,-1.19,-1.19,-1.20
361.87,-0.56,0.64,-0.56,0.64,-0.63,-0.59,-0.52,-1.19,-1.19,-1.19
365.49,-0.57,0.61,-0.57,0.62,-0.62,-0.57,-0.49,-1.19,-1.19,-1.19
369.14,-0.59,0.59,-0.59,0.60,-0.60,-0.55,-0.47,-1.19,-1.19,-1.18
372.83,-0.60,0.58,-0.60,0.58,-0.58,-0.53,-0.45,-1.19,-1.19,-1.18
376.56,-0.62,0.56,-0.62,0.56,-0.57,-0.51,-0.43,-1.18,-1.18,-1.18
380.33,-0.64,0.55,-0.63,0.55,-0.55,-0.49,-0.41,-1.18,-1.18,-1.18
384.13,-0.65,0.53,-0.65,0.53,-0.53,-0.47,-0.38,-1.18,-1.18,-1.18
387.97,-0.67,0.52,-0.67,0.52,-0.52,-0.45,-0.36,-1.18,-1.18,-1.18
391.85,-0.68,0.50,-0.68,0.50,-0.50,-0.43,-0.34,-1.18,-1.18,-1.18
395.77,-0.70,0.48,-0.70,0.48,-0.48,-0.41,-0.32,-1.18,-1.18,-1.18
399.73,-0.72,0.47,-0.72,0.47,-0.47,-0.39,-0.30,-1.18,-1.18,-1.18
403.72,-0.73,0.45,-0.73,0.45,-0.45,-0.37,-0.28,-1.18,-1.18,-1.18
407.76,-0.75,0.43,-0.75,0.43,-0.43,-0.35,-0.27,-1.18,-1.18,-1.18
411.84,-0.77,0.42,-0.77,0.42,-0.42,-0.33,-0.25,-1.18,-1.18,-1.18
415.96,-0.78,0.40,-0.78,0.40,-0.40,-0.32,-0.23,-1.18,-1.18,-1.18
420.12,-0.80,0.38,-0.80,0.38,-0.38,-0.30,-0.21,-1.18,-1.18,-1.18
424.32,-0.82,0.36,-0.82,0.36,-0.36,-0.28,-0.20,-1.18,-1.18,-1.18
428.56,-0.84,0.34,-0.84,0.34,-0.34,-0.26,-0.18,-1.18,-1.18,-1.18
432.85,-0.86,0.32,-0.86,0.32,-0.31,-0.25,-0.16,-1.17,-1.17,-1.17
437.18,-0.88,0.29,-0.88,0.29,-0.29,-0.23,-0.15,-1.17,-1.17,-1.17
441.55,-0.90,0.26,-0.90,0.26,-0.26,-0.21,-0.13,-1.16,-1.16,-1.16
445.96,-0.92,0.23,-0.92,0.23,-0.24,-0.20,-0.12,-1.15,-1.15,-1.15
450.42,-0.94,0.20,-0.94,0.21,-0.21,-0.18,-0.11,-1.15,-1.15,-1.14
454.93,-0.96,0.18,-0.96,0.18,-0.18,-0.17,-0.09,-1.14,-1.14,-1.14
459.48,-0.98,0.16,-0.98,0.16,-0.16,-0.15,-0.08,-1.14,-1.14,-1.14
464.07,-1.00,0.14,-1.00,0.14,-0.13,-0.14,-0.07,-1.13,-1.13,-1.13
468.71,-1.01,0.11,-1.02,0.11,-0.11,-0.12,-0.06,-1.13,-1.13,-1.13
473.40,-1.03,0.09,-1.03,0.09,-0.09,-0.11,-0.05,-1.12,-1.12,-1.12
478.13,-1.05,0.07,-1.05,0.07,-0.07,-0.09,-0.04,-1.12,-1.12,-1.12
482.91,-1.06,0.05,-1.06,0.05,-0.05,-0.08,-0.03,-1.12,-1.12,-1.11
487.74,-1.08,0.03,-1.08,0.03,-0.04,-0.06,-0.02,-1.12,-1.11,-1.11
