frequency,raw,error,smoothed,error_smoothed,equalization,parametric_eq,fixed_band_eq,equalized_raw,equalized_smoothed,target
20.00,5.79,-4.27,5.79,-4.26,4.24,4.39,1.58,10.03,10.03,10.06
20.20,5.83,-4.20,5.83,-4.21,4.21,4.38,1.63,10.03,10.03,10.03
20.40,5.86,-4.17,5.86,-4.17,4.17,4.38,1.68,10.03,10.03,10.03
20.61,5.89,-4.14,5.89,-4.13,4.14,4.33,1.73,10.03,10.03,10.03
20.81,5.92,-4.11,5.92,-4.11,4.12,4.29,1.78,10.04,10.04,10.03
21.02,5.95,-4.08,5.95,-4.07,4.09,4.23,1.83,10.04,10.04,10.03
21.23,5.98,-4.05,5.98,-4.04,4.07,4.17,1.89,10.05,10.05,10.03
21.44,6.01,-4.02,6.01,-4.03,4.05,4.12,1.94,10.05,10.05,10.03
21.66,6.03,-4.01,6.03,-4.03,4.04,4.07,2.00,10.07,10.07,10.05
21.87,6.06,-4.06,6.06,-4.04,4.03,4.03,2.06,10.09,10.09,10.12
22.09,6.08,-4.04,6.08,-4.04,4.02,3.99,2.12,10.10,10.10,10.13
22.31,6.11,-4.02,6.11,-4.03,4.01,3.96,2.18,10.11,10.11,10.13
22.54,6.13,-4.00,6.13,-4.00,3.99,3.93,2.25,10.12,10.12,10.13
22.76,6.15,-3.97,6.15,-3.97,3.97,3.90,2.31,10.13,10.13,10.13
22.99,6.18,-3.95,6.18,-3.95,3.95,3.88,2.38,10.13,10.13,10.13
23.22,6.20,-3.93,6.20,-3.93,3.93,3.86,2.45,10.13,10.13,10.13
23.45,6.22,-3.91,6.22,-3.91,3.91,3.84,2.52,10.13,10.13,10.13
23.69,6.24,-3.88,6.24,-3.88,3.90,3.83,2.59,10.14,10.14,10.13
23.92,6.26,-3.86,6.26,-3.86,3.89,3.81,2.66,10.15,10.15,10.13
24.16,6.28,-3.84,6.28,-3.87,3.88,3.80,2.74,10.16,10.16,10.13
24.40,6.30,-3.89,6.30,-3.88,3.87,3.78,2.81,10.18,10.18,10.19
24.65,6.32,-3.90,6.32,-3.89,3.87,3.77,2.89,10.19,10.19,10.23
24.89,6.34,-3.88,6.34,-3.89,3.86,3.76,2.97,10.21,10.21,10.23
25.14,6.36,-3.86,6.36,-3.86,3.85,3.75,3.04,10.22,10.22,10.23
25.39,6.38,-3.84,6.38,-3.84,3.84,3.73,3.12,10.23,10.23,10.23
25.65,6.40,-3.82,6.40,-3.82,3.83,3.72,3.20,10.23,10.23,10.23
25.91,6.42,-3.80,6.42,-3.80,3.81,3.71,3.28,10.23,10.23,10.23
26.16,6.44,-3.78,6.44,-3.78,3.79,3.69,3.36,10.23,10.23,10.23
26.43,6.46,-3.76,6.46,-3.76,3.77,3.68,3.43,10.23,10.23,10.23
26.69,6.48,-3.74,6.48,-3.74,3.75,3.67,3.51,10.23,10.23,10.23
26.96,6.50,-3.73,6.50,-3.73,3.73,3.65,3.59,10.23,10.23,10.23
27.23,6.52,-3.71,6.52,-3.71,3.71,3.64,3.66,10.23,10.23,10.23
27.50,6.54,-3.69,6.54,-3.69,3.68,3.62,3.73,10.22,10.22,10.23
27.77,6.56,-3.67,6.56,-3.66,3.65,3.61,3.80,10.20,10.20,10.23
28.05,6.57,-3.64,6.57,-3.62,3.61,3.59,3.86,10.18,10.18,10.21
28.33,6.59,-3.55,6.59,-3.58,3.56,3.57,3.93,10.15,10.15,10.14
28.62,6.61,-3.52,6.61,-3.52,3.52,3.55,3.98,10.12,10.12,10.13
28.90,6.62,-3.48,6.62,-3.46,3.48,3.54,4.04,10.10,10.10,10.10
29.19,6.64,-3.39,6.64,-3.41,3.44,3.52,4.09,10.07,10.07,10.03
29.48,6.65,-3.38,6.65,-3.38,3.40,3.50,4.13,10.05,10.05,10.03
29.78,6.66,-3.36,6.66,-3.35,3.37,3.48,4.17,10.04,10.04,10.03
30.08,6.68,-3.35,6.68,-3.35,3.35,3.46,4.20,10.02,10.02,10.03
30.38,6.69,-3.34,6.69,-3.34,3.32,3.44,4.23,10.01,10.01,10.03
30.68,6.70,-3.32,6.70,-3.32,3.29,3.42,4.25,9.99,9.99,10.03
30.99,6.71,-3.30,6.71,-3.28,3.26,3.40,4.27,9.97,9.97,10.01
31.30,6.72,-3.22,6.72,-3.24,3.22,3.38,4.27,9.95,9.95,9.95
31.61,6.74,-3.19,6.73,-3.19,3.19,3.36,4.28,9.92,9.92,9.93
31.93,6.74,-3.16,6.74,-3.14,3.15,3.33,4.27,9.89,9.89,9.90
32.24,6.75,-3.08,6.75,-3.10,3.11,3.31,4.26,9.86,9.86,9.84
32.57,6.76,-3.06,6.76,-3.07,3.08,3.29,4.24,9.84,9.84,9.83
32.89,6.77,-3.05,6.77,-3.04,3.06,3.27,4.22,9.83,9.83,9.83
33.22,6.78,-3.05,6.78,-3.04,3.06,3.24,4.19,9.84,9.84,9.83
33.55,6.79,-3.04,6.79,-3.05,3.06,3.22,4.16,9.85,9.85,9.83
33.89,6.80,-3.07,6.80,-3.07,3.08,3.20,4.12,9.88,9.88,9.86
34.23,6.80,-3.12,6.80,-3.10,3.10,3.17,4.07,9.91,9.91,9.93
34.57,6.81,-3.11,6.81,-3.13,3.13,3.15,4.02,9.94,9.94,9.93
34.92,6.82,-3.15,6.82,-3.16,3.16,3.13,3.97,9.97,9.97,9.97
35.27,6.83,-3.20,6.83,-3.18,3.18,3.10,3.92,10.00,10.00,10.03
35.62,6.83,-3.19,6.83,-3.20,3.18,3.08,3.86,10.02,10.02,10.03
35.97,6.84,-3.19,6.84,-3.20,3.18,3.05,3.80,10.02,10.02,10.03
36.33,6.84,-3.18,6.84,-3.19,3.16,3.03,3.74,10.01,10.01,10.03
36.70,6.85,-3.18,6.85,-3.16,3.14,3.00,3.68,9.99,9.99,10.03
37.06,6.85,-3.12,6.85,-3.11,3.11,2.98,3.62,9.96,9.96,9.97
37.43,6.86,-3.05,6.86,-3.05,3.07,2.96,3.55,9.93,9.93,9.90
37.81,6.86,-2.98,6.86,-2.99,3.04,2.93,3.49,9.90,9.90,9.84
38.19,6.86,-2.96,6.86,-2.97,3.00,2.91,3.42,9.87,9.87,9.83
38.57,6.87,-2.96,6.87,-2.95,2.97,2.88,3.36,9.83,9.83,9.83
38.95,6.87,-2.96,6.87,-2.93,2.92,2.86,3.29,9.79,9.79,9.83
39.34,6.87,-2.89,6.87,-2.91,2.88,2.84,3.23,9.75,9.75,9.76
39.74,6.87,-2.85,6.87,-2.87,2.82,2.81,3.17,9.69,9.69,9.73
40.14,6.87,-2.84,6.87,-2.80,2.77,2.79,3.11,9.64,9.64,9.71
40.54,6.87,-2.71,6.87,-2.72,2.70,2.76,3.05,9.57,9.57,9.58
40.94,6.87,-2.61,6.87,-2.63,2.64,2.74,2.99,9.51,9.51,9.49
41.35,6.87,-2.55,6.87,-2.54,2.58,2.72,2.93,9.45,9.45,9.42
41.76,6.87,-2.48,6.87,-2.49,2.54,2.69,2.88,9.40,9.40,9.35
42.18,6.86,-2.46,6.86,-2.47,2.50,2.67,2.83,9.36,9.36,9.33
42.60,6.86,-2.47,6.86,-2.46,2.48,2.65,2.77,9.34,9.34,9.33
43.03,6.86,-2.47,6.86,-2.47,2.46,2.62,2.73,9.32,9.32,9.33
43.46,6.85,-2.47,6.85,-2.48,2.45,2.60,2.68,9.31,9.31,9.33
43.90,6.85,-2.48,6.85,-2.48,2.45,2.58,2.63,9.30,9.30,9.33
44.33,6.84,-2.48,6.84,-2.46,2.44,2.55,2.59,9.28,9.28,9.33
44.78,6.84,-2.43,6.84,-2.44,2.42,2.53,2.55,9.26,9.26,9.26
45.23,6.83,-2.40,6.83,-2.41,2.41,2.51,2.51,9.23,9.23,9.23
45.68,6.82,-2.40,6.82,-2.37,2.38,2.49,2.47,9.21,9.21,9.23
46.13,6.81,-2.34,6.82,-2.35,2.37,2.46,2.44,9.18,9.18,9.15
46.60,6.81,-2.32,6.81,-2.33,2.35,2.44,2.40,9.16,9.16,9.13
47.06,6.80,-2.33,6.80,-2.32,2.34,2.42,2.37,9.14,9.14,9.13
47.53,6.79,-2.34,6.79,-2.33,2.33,2.40,2.34,9.12,9.12,9.13
48.01,6.78,-2.35,6.78,-2.35,2.34,2.38,2.31,9.12,9.12,9.13
48.49,6.77,-2.36,6.77,-2.36,2.35,2.36,2.29,9.12,9.12,9.13
48.97,6.76,-2.37,6.76,-2.37,2.37,2.34,2.26,9.13,9.13,9.13
49.46,6.75,-2.38,6.75,-2.37,2.39,2.32,2.24,9.14,9.14,9.13
49.96,6.74,-2.39,6.74,-2.39,2.42,2.29,2.22,9.16,9.16,9.13
50.46,6.73,-2.40,6.73,-2.43,2.44,2.27,2.20,9.16,9.16,9.13
50.96,6.72,-2.47,6.72,-2.45,2.45,2.25,2.18,9.16,9.16,9.18
51.47,6.70,-2.50,6.70,-2.47,2.45,2.23,2.17,9.15,9.15,9.20
51.99,6.69,-2.44,6.69,-2.47,2.43,2.21,2.15,9.12,9.12,9.13
52.51,6.68,-2.45,6.68,-2.43,2.39,2.19,2.14,9.07,9.07,9.13
53.03,6.67,-2.39,6.67,-2.37,2.34,2.18,2.12,9.01,9.01,9.06
53.56,6.65,-2.27,6.65,-2.30,2.27,2.16,2.11,8.93,8.93,8.92
54.10,6.64,-2.21,6.64,-2.20,2.20,2.14,2.10,8.84,8.84,8.85
54.64,6.62,-2.12,6.62,-2.10,2.14,2.12,2.08,8.76,8.76,8.74
55.18,6.61,-2.01,6.61,-2.02,2.08,2.10,2.07,8.69,8.69,8.62
55.74,6.59,-1.95,6.59,-1.96,2.02,2.08,2.06,8.62,8.62,8.55
56.29,6.58,-1.95,6.58,-1.95,1.98,2.06,2.05,8.56,8.56,8.53
56.86,6.56,-1.96,6.56,-1.96,1.94,2.04,2.04,8.51,8.51,8.53
57.42,6.55,-1.98,6.55,-1.96,1.92,2.03,2.03,8.46,8.46,8.53
58.00,6.53,-1.94,6.53,-1.94,1.90,2.01,2.02,8.43,8.43,8.47
58.58,6.51,-1.89,6.51,-1.89,1.88,1.99,2.01,8.39,8.39,8.40
59.16,6.50,-1.83,6.50,-1.83,1.85,1.97,2.00,8.35,8.35,8.33
59.76,6.48,-1.79,6.48,-1.80,1.82,1.96,1.99,8.30,8.30,8.26
60.35,6.46,-1.77,6.46,-1.78,1.78,1.94,1.97,8.24,8.24,8.23
60.96,6.44,-1.79,6.44,-1.76,1.74,1.92,1.96,8.18,8.18,8.23
61.57,6.42,-1.73,6.42,-1.73,1.71,1.91,1.95,8.13,8.13,8.16
62.18,6.40,-1.68,6.40,-1.69,1.69,1.89,1.93,8.09,8.09,8.08
62.80,6.38,-1.64,6.38,-1.66,1.68,1.87,1.92,8.06,8.06,8.03
63.43,6.36,-1.66,6.36,-1.66,1.68,1.86,1.90,8.05,8.05,8.03
64.07,6.34,-1.69,6.34,-1.68,1.70,1.84,1.88,8.04,8.04,8.03
64.71,6.32,-1.71,6.32,-1.70,1.72,1.82,1.86,8.04,8.04,8.03
65.35,6.30,-1.73,6.30,-1.75,1.76,1.81,1.85,8.06,8.06,8.03
66.01,6.27,-1.80,6.27,-1.80,1.80,1.79,1.83,8.08,8.08,8.08
66.67,6.25,-1.87,6.25,-1.86,1.84,1.78,1.81,8.10,8.10,8.13
67.33,6.23,-1.90,6.23,-1.90,1.88,1.76,1.79,8.11,8.11,8.13
68.01,6.20,-1.92,6.20,-1.93,1.91,1.75,1.76,8.12,8.12,8.13
68.69,6.18,-1.95,6.18,-1.95,1.93,1.73,1.74,8.11,8.11,8.13
69.37,6.15,-1.97,6.15,-1.95,1.94,1.72,1.72,8.09,8.09,8.13
70.07,6.13,-1.93,6.13,-1.93,1.93,1.70,1.70,8.06,8.06,8.06
70.77,6.10,-1.89,6.10,-1.91,1.91,1.69,1.68,8.01,8.01,7.99
71.48,6.07,-1.86,6.07,-1.88,1.88,1.67,1.65,7.95,7.95,7.93
72.19,6.04,-1.88,6.04,-1.85,1.83,1.66,1.63,7.87,7.87,7.93
72.91,6.01,-1.83,6.01,-1.81,1.79,1.65,1.61,7.80,7.80,7.84
73.64,5.98,-1.73,5.98,-1.76,1.75,1.63,1.59,7.73,7.73,7.71
74.38,5.95,-1.70,5.95,-1.69,1.72,1.62,1.56,7.67,7.67,7.65
75.12,5.92,-1.66,5.92,-1.66,1.71,1.60,1.54,7.62,7.62,7.58
75.87,5.88,-1.64,5.88,-1.66,1.70,1.59,1.52,7.59,7.59,7.53
76.63,5.85,-1.68,5.85,-1.67,1.71,1.58,1.50,7.56,7.56,7.53
77.40,5.81,-1.71,5.81,-1.71,1.72,1.56,1.48,7.53,7.53,7.53
78.17,5.78,-1.75,5.78,-1.75,1.73,1.55,1.46,7.51,7.51,7.53
78.95,5.74,-1.79,5.74,-1.77,1.73,1.54,1.44,7.47,7.47,7.53
79.74,5.70,-1.77,5.70,-1.77,1.72,1.52,1.42,7.42,7.42,7.47
80.54,5.66,-1.74,5.66,-1.75,1.69,1.51,1.40,7.35,7.35,7.40
81.35,5.62,-1.71,5.62,-1.69,1.64,1.50,1.39,7.27,7.27,7.33
82.16,5.58,-1.62,5.58,-1.61,1.59,1.49,1.37,7.17,7.17,7.20
82.98,5.54,-1.52,5.54,-1.52,1.55,1.47,1.36,7.08,7.08,7.06
83.81,5.50,-1.43,5.50,-1.44,1.51,1.46,1.34,7.01,7.01,6.93
84.65,5.45,-1.40,5.45,-1.40,1.49,1.45,1.33,6.95,6.95,6.86
85.50,5.41,-1.41,5.41,-1.42,1.49,1.44,1.32,6.90,6.90,6.83
86.35,5.37,-1.47,5.37,-1.48,1.50,1.42,1.31,6.87,6.87,6.84
87.22,5.33,-1.58,5.33,-1.56,1.52,1.41,1.29,6.85,6.85,6.90
88.09,5.29,-1.64,5.29,-1.62,1.56,1.40,1.29,6.85,6.85,6.93
88.97,5.25,-1.65,5.25,-1.64,1.59,1.39,1.28,6.84,6.84,6.91
89.86,5.21,-1.62,5.21,-1.62,1.62,1.38,1.27,6.83,6.83,6.84
90.76,5.18,-1.59,5.18,-1.61,1.63,1.37,1.26,6.80,6.80,6.77
91.66,5.14,-1.58,5.14,-1.60,1.61,1.35,1.26,6.76,6.76,6.73
92.58,5.11,-1.62,5.11,-1.60,1.58,1.34,1.25,6.69,6.69,6.73
93.51,5.08,-1.58,5.08,-1.57,1.54,1.33,1.25,6.62,6.62,6.66
94.44,5.05,-1.51,5.05,-1.51,1.49,1.32,1.25,6.54,6.54,6.56
95.39,5.02,-1.41,5.02,-1.43,1.43,1.31,1.24,6.45,6.45,6.43
96.34,4.99,-1.36,4.99,-1.36,1.38,1.30,1.24,6.37,6.37,6.36
97.30,4.97,-1.32,4.97,-1.32,1.33,1.29,1.24,6.29,6.29,6.29
98.28,4.94,-1.28,4.94,-1.28,1.28,1.28,1.24,6.23,6.23,6.22
99.26,4.92,-1.23,4.92,-1.22,1.25,1.27,1.24,6.17,6.17,6.15
100.25,4.89,-1.19,4.89,-1.20,1.24,1.26,1.24,6.13,6.13,6.08
101.25,4.86,-1.17,4.86,-1.21,1.23,1.25,1.24,6.10,6.10,6.04
102.27,4.84,-1.25,4.84,-1.23,1.24,1.24,1.25,6.08,6.08,6.09
103.29,4.81,-1.29,4.81,-1.26,1.25,1.23,1.25,6.06,6.06,6.10
104.32,4.78,-1.24,4.78,-1.28,1.25,1.22,1.25,6.03,6.03,6.03
105.37,4.75,-1.27,4.75,-1.26,1.23,1.21,1.26,5.99,5.99,6.03
106.42,4.72,-1.26,4.72,-1.25,1.21,1.20,1.26,5.93,5.93,5.98
107.48,4.69,-1.21,4.69,-1.22,1.18,1.19,1.26,5.87,5.87,5.90
108.56,4.66,-1.19,4.66,-1.16,1.15,1.18,1.27,5.81,5.81,5.85
109.64,4.63,-1.07,4.63,-1.08,1.11,1.17,1.27,5.74,5.74,5.70
110.74,4.59,-0.99,4.59,-1.01,1.07,1.16,1.28,5.67,5.67,5.59
111.85,4.56,-0.97,4.56,-0.98,1.03,1.15,1.28,5.59,5.59,5.53
112.97,4.52,-1.00,4.52,-1.01,1.01,1.14,1.28,5.53,5.53,5.53
114.10,4.49,-1.04,4.49,-1.03,0.99,1.13,1.29,5.48,5.48,5.53
115.24,4.45,-1.05,4.45,-1.02,0.99,1.12,1.29,5.44,5.44,5.50
116.39,4.41,-0.98,4.41,-0.99,1.00,1.11,1.29,5.41,5.41,5.39
117.55,4.37,-0.95,4.37,-0.98,1.02,1.10,1.29,5.39,5.39,5.33
118.73,4.33,-0.99,4.33,-0.99,1.03,1.10,1.29,5.36,5.36,5.33
119.92,4.29,-1.03,4.29,-1.03,1.03,1.09,1.29,5.33,5.33,5.33
121.12,4.25,-1.07,4.25,-1.08,1.03,1.08,1.29,5.28,5.28,5.33
122.33,4.21,-1.10,4.21,-1.09,1.03,1.07,1.29,5.24,5.24,5.31
123.55,4.17,-1.08,4.17,-1.07,1.03,1.06,1.28,5.20,5.20,5.25
124.79,4.13,-1.02,4.13,-1.03,1.04,1.06,1.28,5.17,5.17,5.15
126.03,4.09,-0.99,4.09,-1.00,1.05,1.05,1.27,5.13,5.13,5.07
127.29,4.04,-0.98,4.04,-0.99,1.05,1.04,1.27,5.09,5.09,5.03
128.57,4.00,-1.02,4.00,-1.03,1.05,1.03,1.26,5.05,5.05,5.03
129.85,3.96,-1.07,3.96,-1.06,1.05,1.03,1.25,5.01,5.01,5.03
131.15,3.92,-1.10,3.92,-1.09,1.05,1.02,1.24,4.96,4.96,5.02
132.46,3.87,-1.08,3.87,-1.08,1.04,1.01,1.23,4.92,4.92,4.95
133.79,3.83,-1.05,3.83,-1.06,1.03,1.00,1.22,4.87,4.87,4.89
135.12,3.79,-1.03,3.79,-1.03,1.02,1.00,1.21,4.81,4.81,4.82
136.48,3.75,-1.00,3.75,-0.98,0.99,0.99,1.20,4.74,4.74,4.75
137.84,3.71,-0.93,3.71,-0.93,0.96,0.98,1.18,4.67,4.67,4.64
139.22,3.67,-0.86,3.67,-0.90,0.93,0.98,1.17,4.59,4.59,4.53
140.61,3.62,-0.90,3.62,-0.88,0.89,0.97,1.15,4.52,4.52,4.53
142.02,3.58,-0.89,3.58,-0.88,0.86,0.96,1.14,4.45,4.45,4.48
143.44,3.54,-0.86,3.54,-0.87,0.84,0.96,1.13,4.38,4.38,4.40
144.87,3.50,-0.83,3.50,-0.83,0.82,0.95,1.11,4.32,4.32,4.33
146.32,3.46,-0.80,3.46,-0.79,0.80,0.95,1.10,4.26,4.26,4.26
147.78,3.42,-0.77,3.42,-0.77,0.78,0.94,1.08,4.21,4.21,4.19
149.26,3.38,-0.75,3.38,-0.76,0.78,0.94,1.06,4.16,4.16,4.13
150.75,3.34,-0.79,3.34,-0.77,0.78,0.93,1.05,4.12,4.12,4.13
152.26,3.30,-0.78,3.30,-0.77,0.79,0.93,1.04,4.09,4.09,4.08
153.78,3.26,-0.77,3.26,-0.79,0.80,0.92,1.02,4.06,4.06,4.03
155.32,3.22,-0.81,3.22,-0.81,0.83,0.92,1.01,4.05,4.05,4.03
156.88,3.18,-0.85,3.18,-0.85,0.85,0.91,0.99,4.03,4.03,4.03
158.44,3.14,-0.89,3.14,-0.89,0.87,0.91,0.98,4.01,4.01,4.03
160.03,3.10,-0.93,3.10,-0.91,0.88,0.90,0.96,3.98,3.98,4.03
161.63,3.06,-0.91,3.06,-0.91,0.88,0.90,0.95,3.94,3.94,3.97
163.24,3.02,-0.89,3.02,-0.89,0.87,0.90,0.94,3.89,3.89,3.91
164.88,2.98,-0.85,2.98,-0.86,0.85,0.89,0.93,3.83,3.83,3.83
166.53,2.94,-0.83,2.94,-0.84,0.83,0.89,0.92,3.77,3.77,3.77
168.19,2.90,-0.82,2.90,-0.80,0.81,0.88,0.91,3.71,3.71,3.72
169.87,2.86,-0.77,2.86,-0.77,0.79,0.88,0.90,3.65,3.65,3.63
171.57,2.82,-0.73,2.82,-0.75,0.78,0.88,0.89,3.60,3.60,3.55
173.29,2.78,-0.75,2.78,-0.75,0.79,0.87,0.88,3.57,3.57,3.53
175.02,2.74,-0.79,2.74,-0.78,0.81,0.87,0.87,3.55,3.55,3.53
176.77,2.70,-0.83,2.70,-0.83,0.83,0.87,0.86,3.53,3.53,3.53
178.54,2.66,-0.87,2.66,-0.87,0.85,0.87,0.85,3.51,3.51,3.53
180.32,2.62,-0.91,2.62,-0.91,0.88,0.86,0.85,3.49,3.49,3.53
182.13,2.58,-0.95,2.58,-0.94,0.90,0.86,0.84,3.47,3.47,3.53
183.95,2.53,-0.94,2.53,-0.94,0.91,0.86,0.84,3.44,3.44,3.48
185.79,2.49,-0.91,2.49,-0.92,0.91,0.86,0.83,3.41,3.41,3.40
187.65,2.45,-0.89,2.45,-0.88,0.91,0.86,0.83,3.36,3.36,3.34
189.52,2.41,-0.87,2.41,-0.87,0.90,0.86,0.83,3.31,3.31,3.28
191.42,2.37,-0.86,2.37,-0.88,0.89,0.86,0.82,3.25,3.25,3.23
193.33,2.32,-0.90,2.32,-0.88,0.88,0.85,0.82,3.20,3.20,3.23
195.27,2.28,-0.88,2.28,-0.87,0.87,0.85,0.82,3.15,3.15,3.16
197.22,2.24,-0.85,2.24,-0.86,0.86,0.85,0.82,3.10,3.10,3.09
199.19,2.19,-0.83,2.19,-0.85,0.85,0.85,0.82,3.05,3.05,3.03
201.18,2.15,-0.87,2.15,-0.86,0.85,0.85,0.82,3.01,3.01,3.03
203.19,2.11,-0.88,2.11,-0.86,0.85,0.85,0.82,2.96,2.96,2.99
205.23,2.07,-0.85,2.07,-0.85,0.86,0.85,0.82,2.92,2.92,2.92
207.28,2.02,-0.83,2.02,-0.84,0.86,0.85,0.82,2.88,2.88,2.85
209.35,1.98,-0.85,1.98,-0.86,0.87,0.85,0.82,2.85,2.85,2.83
211.44,1.94,-0.89,1.94,-0.89,0.89,0.86,0.82,2.82,2.82,2.83
213.56,1.89,-0.93,1.89,-0.91,0.91,0.86,0.82,2.80,2.80,2.83
215.69,1.85,-0.92,1.85,-0.93,0.93,0.86,0.83,2.78,2.78,2.77
217.85,1.80,-0.92,1.80,-0.94,0.95,0.86,0.83,2.75,2.75,2.73
220.03,1.76,-0.96,1.76,-0.97,0.96,0.86,0.83,2.73,2.73,2.73
222.23,1.72,-1.01,1.72,-1.00,0.98,0.86,0.83,2.70,2.70,2.73
224.45,1.68,-1.04,1.68,-1.02,1.00,0.86,0.84,2.67,2.67,2.71
226.70,1.63,-1.00,1.63,-1.00,1.01,0.87,0.84,2.64,2.64,2.64
228.96,1.59,-0.97,1.59,-0.99,1.01,0.87,0.84,2.60,2.60,2.56
231.25,1.55,-0.98,1.55,-0.99,1.01,0.87,0.84,2.56,2.56,2.53
233.57,1.51,-1.02,1.51,-1.02,1.01,0.87,0.85,2.51,2.51,2.53
235.90,1.46,-1.06,1.46,-1.02,1.00,0.88,0.85,2.47,2.47,2.53
238.26,1.42,-1.02,1.42,-1.01,1.00,0.88,0.85,2.42,2.42,2.44
240.64,1.38,-0.94,1.38,-0.99,0.99,0.88,0.85,2.38,2.38,2.33
243.05,1.34,-0.98,1.34,-0.96,0.99,0.89,0.86,2.33,2.33,2.33
245.48,1.30,-0.97,1.30,-0.97,0.99,0.89,0.86,2.29,2.29,2.28
247.93,1.27,-0.96,1.26,-0.98,0.98,0.90,0.86,2.24,2.24,2.23
250.41,1.23,-1.00,1.23,-0.99,0.97,0.90,0.86,2.20,2.20,2.23
252.92,1.19,-0.99,1.19,-0.97,0.96,0.90,0.86,2.15,2.15,2.18
255.45,1.15,-0.96,1.15,-0.96,0.95,0.91,0.86,2.11,2.11,2.11
258.00,1.11,-0.91,1.11,-0.94,0.95,0.91,0.86,2.06,2.06,2.03
260.58,1.08,-0.95,1.08,-0.94,0.94,0.92,0.86,2.02,2.02,2.03
263.19,1.04,-0.96,1.04,-0.94,0.93,0.92,0.86,1.97,1.97,2.00
265.82,1.00,-0.93,1.00,-0.93,0.93,0.93,0.86,1.93,1.93,1.93
268.48,0.97,-0.90,0.97,-0.91,0.93,0.94,0.86,1.90,1.90,1.86
271.16,0.93,-0.89,0.93,-0.91,0.93,0.94,0.86,1.86,1.86,1.83
273.87,0.90,-0.93,0.90,-0.93,0.93,0.95,0.86,1.82,1.82,1.83
276.61,0.86,-0.97,0.86,-0.95,0.93,0.95,0.86,1.79,1.79,1.83
279.38,0.82,-0.97,0.82,-0.95,0.93,0.96,0.86,1.75,1.75,1.79
282.17,0.79,-0.93,0.79,-0.93,0.93,0.97,0.86,1.72,1.72,1.72
284.99,0.75,-0.90,0.75,-0.91,0.94,0.97,0.86,1.69,1.69,1.65
287.84,0.72,-0.91,0.72,-0.92,0.94,0.98,0.86,1.66,1.66,1.63
290.72,0.68,-0.95,0.68,-0.94,0.95,0.99,0.86,1.63,1.63,1.63
293.63,0.65,-0.98,0.65,-0.96,0.94,0.99,0.86,1.59,1.59,1.63
296.57,0.61,-0.95,0.61,-0.97,0.94,1.00,0.86,1.55,1.55,1.56
299.53,0.58,-0.95,0.58,-0.97,0.95,1.01,0.86,1.52,1.52,1.53
302.53,0.54,-0.98,0.54,-0.96,0.96,1.02,0.87,1.50,1.50,1.53
305.55,0.51,-0.95,0.51,-0.96,0.97,1.02,0.87,1.48,1.48,1.46
308.61,0.48,-0.95,0.48,-0.97,0.99,1.03,0.87,1.46,1.46,1.43
311.69,0.44,-0.98,0.44,-0.98,1.01,1.04,0.87,1.45,1.45,1.43
314.81,0.41,-1.02,0.41,-1.01,1.04,1.05,0.88,1.45,1.45,1.43
317.96,0.38,-1.05,0.38,-1.05,1.06,1.05,0.88,1.44,1.44,1.43
321.14,0.35,-1.08,0.35,-1.08,1.07,1.06,0.89,1.42,1.42,1.43
324.35,0.31,-1.11,0.31,-1.12,1.07,1.07,0.89,1.39,1.39,1.43
327.59,0.28,-1.14,0.28,-1.14,1.06,1.08,0.90,1.34,1.34,1.43
330.87,0.25,-1.14,0.25,-1.11,1.04,1.09,0.90,1.29,1.29,1.39
334.18,0.22,-1.04,0.22,-1.03,1.02,1.10,0.91,1.24,1.24,1.26
337.52,0.19,-0.93,0.19,-0.94,1.00,1.11,0.92,1.19,1.19,1.12
340.90,0.16,-0.87,0.16,-0.89,0.99,1.11,0.93,1.15,1.15,1.03
344.30,0.13,-0.90,0.13,-0.91,0.98,1.12,0.94,1.11,1.11,1.03
347.75,0.10,-0.98,0.10,-0.97,0.99,1.13,0.95,1.09,1.09,1.08
351.23,0.07,-1.06,0.07,-1.04,1.01,1.14,0.96,1.08,1.08,1.13
354.74,0.04,-1.09,0.04,-1.09,1.05,1.15,0.97,1.09,1.09,1.13
358.28,0.01,-1.12,0.01,-1.12,1.10,1.16,0.98,1.11,1.11,1.13
361.87,-0.02,-1.15,-0.02,-1.15,1.15,1.17,0.99,1.13,1.13,1.13
365.49,-0.05,-1.17,-0.05,-1.18,1.18,1.17,1.01,1.14,1.14,1.13
369.14,-0.08,-1.20,-0.08,-1.21,1.20,1.18,1.02,1.13,1.13,1.13
372.83,-0.11,-1.23,-0.11,-1.23,1.21,1.19,1.04,1.10,1.10,1.13
376.56,-0.13,-1.25,-0.13,-1.24,1.21,1.20,1.05,1.07,1.07,1.12
380.33,-0.16,-1.22,-0.16,-1.21,1.20,1.21,1.07,1.04,1.04,1.05
384.13,-0.19,-1.17,-0.19,-1.18,1.19,1.22,1.08,1.00,1.00,0.98
387.97,-0.22,-1.14,-0.22,-1.16,1.17,1.23,1.10,0.96,0.96,0.93
391.85,-0.24,-1.17,-0.24,-1.14,1.16,1.23,1.12,0.92,0.92,0.93
395.77,-0.27,-1.14,-0.27,-1.14,1.15,1.24,1.14,0.88,0.88,0.87
399.73,-0.30,-1.12,-0.30,-1.14,1.15,1.25,1.16,0.86,0.86,0.83
403.72,-0.32,-1.15,-0.32,-1.14,1.16,1.26,1.18,0.84,0.84,0.83
407.76,-0.35,-1.17,-0.35,-1.17,1.18,1.27,1.20,0.84,0.84,0.83
411.84,-0.37,-1.20,-0.37,-1.20,1.20,1.27,1.22,0.83,0.83,0.83
415.96,-0.40,-1.22,-0.40,-1.22,1.22,1.28,1.24,0.82,0.82,0.83
420.12,-0.42,-1.25,-0.42,-1.25,1.23,1.29,1.26,0.81,0.81,0.83
424.32,-0.45,-1.27,-0.45,-1.27,1.23,1.30,1.28,0.79,0.79,0.83
428.56,-0.47,-1.29,-0.47,-1.27,1.23,1.30,1.30,0.76,0.76,0.82
432.85,-0.49,-1.24,-0.49,-1.24,1.23,1.31,1.31,0.74,0.74,0.75
437.18,-0.52,-1.20,-0.52,-1.20,1.23,1.32,1.33,0.71,0.71,0.68
441.55,-0.54,-1.16,-0.54,-1.18,1.22,1.32,1.35,0.69,0.69,0.63
445.96,-0.56,-1.19,-0.56,-1.18,1.22,1.33,1.37,0.66,0.66,0.63
450.42,-0.58,-1.21,-0.58,-1.20,1.22,1.33,1.39,0.64,0.64,0.63
454.93,-0.60,-1.23,-0.60,-1.23,1.22,1.34,1.40,0.62,0.62,0.63
459.48,-0.63,-1.25,-0.63,-1.26,1.22,1.34,1.42,0.60,0.60,0.63
464.07,-0.65,-1.27,-0.65,-1.27,1.23,1.35,1.43,0.58,0.58,0.63
468.71,-0.67,-1.27,-0.67,-1.25,1.23,1.35,1.45,0.56,0.56,0.60
473.40,-0.69,-1.22,-0.69,-1.22,1.23,1.36,1.46,0.54,0.54,0.53
478.13,-0.71,-1.18,-0.71,-1.20,1.23,1.36,1.47,0.52,0.52,0.47
482.91,-0.73,-1.18,-0.73,-1.21,1.23,1.36,1.48,0.50,0.50,0.45
487.74,-0.75,-1.27,-0.75,-1.22,1.23,1.37,1.49,0.48,0.48,0.52
492.62,-0.77,-1.23,-0.77,-1.23,1.23,1.37,1.49,0.47,0.47,0.46
497.55,-0.79,-1.21,-0.79,-1.24,1.24,1.37,1.50,0.46,0.46,0.43
502.52,-0.80,-1.24,-0.80,-1.26,1.26,1.38,1.50,0.45,0.45,0.43
507.55,-0.82,-1.33,-0.82,-1.29,1.27,1.38,1.50,0.45,0.45,0.51
512.62,-0.84,-1.32,-0.84,-1.30,1.28,1.38,1.50,0.45,0.45,0.48
517.75,-0.85,-1.28,-0.85,-1.30,1.29,1.38,1.50,0.44,0.44,0.43
522.93,-0.87,-1.29,-0.87,-1.29,1.30,1.38,1.49,0.44,0.44,0.43
528.16,-0.88,-1.31,-0.88,-1.30,1.31,1.38,1.49,0.43,0.43,0.43
533.44,-0.89,-1.32,-0.89,-1.32,1.32,1.38,1.48,0.43,0.43,0.43
538.77,-0.91,-1.33,-0.91,-1.33,1.33,1.38,1.48,0.43,0.43,0.43
544.16,-0.92,-1.34,-0.92,-1.34,1.34,1.38,1.47,0.42,0.42,0.43
549.60,-0.93,-1.36,-0.93,-1.36,1.35,1.38,1.46,0.42,0.42,0.43
555.10,-0.94,-1.37,-0.94,-1.37,1.37,1.38,1.45,0.42,0.42,0.43
