frequency,raw,error,smoothed,error_smoothed,equalization,parametric_eq,fixed_band_eq,equalized_raw,equalized_smoothed,target
20.00,15.63,10.92,15.64,10.94,-11.20,-12.39,-3.57,4.44,4.45,4.71
20.20,15.73,10.81,15.73,10.77,-10.82,-12.28,-3.67,4.92,4.92,4.93
20.40,15.75,10.54,15.74,10.57,-10.47,-12.16,-3.77,5.28,5.27,5.21
20.61,15.69,10.41,15.67,10.35,-10.16,-11.75,-3.87,5.53,5.50,5.28
20.81,15.49,10.07,15.49,10.10,-9.90,-11.33,-3.98,5.60,5.60,5.42
21.02,15.25,9.81,15.24,9.83,-9.66,-10.86,-4.09,5.58,5.58,5.44
21.23,14.97,9.58,14.98,9.52,-9.47,-10.39,-4.20,5.50,5.51,5.39
21.44,14.73,9.23,14.74,9.25,-9.31,-9.99,-4.32,5.42,5.43,5.50
21.66,14.57,8.99,14.56,9.02,-9.16,-9.59,-4.44,5.41,5.40,5.58
21.87,14.45,8.88,14.48,8.89,-9.06,-9.30,-4.56,5.39,5.41,5.58
22.09,14.48,8.90,14.48,8.89,-9.03,-9.01,-4.69,5.45,5.46,5.58
22.31,14.57,8.99,14.56,9.00,-9.04,-8.80,-4.82,5.53,5.53,5.58
22.54,14.69,9.12,14.69,9.15,-9.09,-8.61,-4.95,5.60,5.60,5.56
22.76,14.82,9.33,14.81,9.26,-9.16,-8.48,-5.09,5.65,5.65,5.49
22.99,14.91,9.34,14.90,9.32,-9.23,-8.36,-5.23,5.68,5.67,5.57
23.22,14.95,9.28,14.94,9.35,-9.28,-8.30,-5.37,5.67,5.67,5.67
23.45,14.94,9.34,14.94,9.32,-9.29,-8.23,-5.51,5.65,5.65,5.59
23.69,14.89,9.32,14.89,9.28,-9.26,-8.21,-5.67,5.63,5.63,5.58
23.92,14.82,9.21,14.82,9.22,-9.20,-8.19,-5.82,5.63,5.63,5.61
24.16,14.75,9.08,14.75,9.11,-9.12,-8.19,-5.97,5.63,5.63,5.67
24.40,14.68,9.01,14.69,9.00,-9.04,-8.20,-6.13,5.65,5.65,5.68
24.65,14.63,8.92,14.63,8.91,-8.96,-8.22,-6.30,5.67,5.67,5.71
24.89,14.59,8.82,14.60,8.84,-8.89,-8.24,-6.46,5.71,5.71,5.78
25.14,14.57,8.79,14.57,8.79,-8.82,-8.27,-6.63,5.75,5.75,5.78
25.39,14.54,8.77,14.54,8.75,-8.74,-8.30,-6.79,5.80,5.80,5.78
25.65,14.51,8.72,14.51,8.71,-8.68,-8.32,-6.96,5.83,5.83,5.79
25.91,14.48,8.63,14.48,8.66,-8.62,-8.35,-7.14,5.85,5.85,5.85
26.16,14.44,8.56,14.44,8.57,-8.55,-8.37,-7.31,5.89,5.89,5.88
26.43,14.40,8.51,14.41,8.44,-8.44,-8.39,-7.48,5.96,5.96,5.90
26.69,14.37,8.28,14.37,8.32,-8.31,-8.39,-7.65,6.07,6.07,6.09
26.96,14.35,8.17,14.35,8.25,-8.16,-8.40,-7.82,6.19,6.19,6.18
27.23,14.33,8.16,14.33,8.15,-8.04,-8.39,-7.98,6.29,6.30,6.18
27.50,14.32,8.14,14.32,7.95,-7.95,-8.38,-8.15,6.37,6.37,6.18
27.77,14.31,7.69,14.31,7.71,-7.89,-8.35,-8.30,6.41,6.41,6.62
28.05,14.29,7.36,14.28,7.57,-7.84,-8.32,-8.46,6.44,6.44,6.93
28.33,14.25,7.61,14.25,7.62,-7.79,-8.28,-8.60,6.46,6.46,6.64
28.62,14.21,7.91,14.21,7.82,-7.73,-8.23,-8.74,6.48,6.48,6.31
28.90,14.17,8.04,14.17,7.96,-7.67,-8.17,-8.87,6.50,6.50,6.13
29.19,14.12,7.85,14.12,7.88,-7.60,-8.10,-8.99,6.52,6.52,6.27
29.48,14.08,7.66,14.09,7.65,-7.56,-8.03,-9.10,6.53,6.53,6.42
29.78,14.06,7.41,14.06,7.40,-7.52,-7.95,-9.19,6.55,6.55,6.65
30.08,14.05,7.18,14.06,7.25,-7.47,-7.86,-9.27,6.59,6.59,6.88
30.38,14.06,7.18,14.06,7.19,-7.40,-7.78,-9.34,6.66,6.66,6.88
30.68,14.07,7.24,14.07,7.21,-7.32,-7.68,-9.38,6.76,6.75,6.83
30.99,14.07,7.30,14.07,7.28,-7.23,-7.59,-9.42,6.84,6.84,6.78
31.30,14.06,7.28,14.06,7.35,-7.16,-7.50,-9.43,6.90,6.90,6.78
31.61,14.03,7.36,14.03,7.31,-7.09,-7.40,-9.44,6.94,6.93,6.67
31.93,13.98,7.27,13.97,7.17,-7.03,-7.30,-9.42,6.95,6.95,6.70
32.24,13.90,6.88,13.90,6.95,-6.96,-7.21,-9.39,6.94,6.94,7.02
32.57,13.82,6.69,13.82,6.74,-6.89,-7.12,-9.34,6.93,6.93,7.13
32.89,13.74,6.61,13.74,6.63,-6.83,-7.02,-9.28,6.90,6.90,7.13
33.22,13.66,6.69,13.65,6.66,-6.79,-6.94,-9.20,6.87,6.87,6.97
33.55,13.58,6.74,13.58,6.74,-6.76,-6.85,-9.12,6.82,6.82,6.84
33.89,13.52,6.82,13.52,6.84,-6.77,-6.77,-9.01,6.75,6.76,6.70
34.23,13.49,6.92,13.49,6.91,-6.80,-6.69,-8.91,6.69,6.69,6.57
34.57,13.47,6.97,13.47,6.93,-6.85,-6.62,-8.79,6.62,6.63,6.50
34.92,13.48,6.92,13.48,6.91,-6.89,-6.55,-8.67,6.59,6.59,6.56
35.27,13.50,6.82,13.50,6.87,-6.91,-6.49,-8.53,6.59,6.59,6.68
35.62,13.52,6.84,13.52,6.84,-6.90,-6.43,-8.40,6.62,6.62,6.68
35.97,13.53,6.86,13.53,6.85,-6.87,-6.38,-8.26,6.67,6.66,6.68
36.33,13.52,6.85,13.52,6.85,-6.83,-6.34,-8.11,6.70,6.69,6.68
36.70,13.49,6.82,13.49,6.80,-6.77,-6.30,-7.97,6.73,6.73,6.68
37.06,13.46,6.73,13.46,6.72,-6.69,-6.26,-7.82,6.76,6.76,6.73
37.43,13.41,6.62,13.42,6.63,-6.60,-6.23,-7.68,6.81,6.82,6.80
37.81,13.39,6.52,13.39,6.53,-6.49,-6.21,-7.53,6.89,6.89,6.86
38.19,13.36,6.43,13.36,6.42,-6.38,-6.19,-7.39,6.98,6.98,6.93
38.57,13.34,6.31,13.34,6.29,-6.28,-6.17,-7.25,7.06,7.06,7.03
38.95,13.32,6.16,13.32,6.14,-6.20,-6.16,-7.11,7.12,7.12,7.16
39.34,13.29,5.98,13.29,6.02,-6.14,-6.15,-6.97,7.15,7.15,7.32
39.74,13.25,5.96,13.25,5.99,-6.11,-6.14,-6.83,7.15,7.15,7.30
40.14,13.21,6.05,13.21,6.03,-6.08,-6.13,-6.70,7.13,7.13,7.17
40.54,13.16,6.13,13.16,6.12,-6.06,-6.13,-6.57,7.11,7.11,7.03
40.94,13.12,6.18,13.11,6.17,-6.05,-6.12,-6.45,7.07,7.07,6.94
41.35,13.07,6.18,13.06,6.15,-6.04,-6.11,-6.33,7.02,7.02,6.89
41.76,13.01,6.06,13.01,6.06,-6.02,-6.10,-6.21,6.99,6.99,6.95
42.18,12.97,5.95,12.97,5.97,-5.98,-6.09,-6.10,6.99,6.99,7.02
42.60,12.93,5.88,12.94,5.91,-5.92,-6.07,-5.99,7.01,7.02,7.06
43.03,12.92,5.93,12.92,5.88,-5.90,-6.04,-5.88,7.02,7.02,6.99
43.46,12.91,5.87,12.91,5.89,-5.91,-6.01,-5.78,7.00,7.00,7.04
43.90,12.90,5.85,12.89,5.85,-5.97,-5.97,-5.69,6.93,6.93,7.05
44.33,12.87,5.88,12.86,5.78,-6.03,-5.93,-5.59,6.84,6.83,6.99
44.78,12.81,5.77,12.81,5.93,-6.08,-5.88,-5.51,6.74,6.74,7.04
45.23,12.74,6.02,12.74,6.20,-6.09,-5.82,-5.42,6.66,6.66,6.72
45.68,12.67,6.66,12.67,6.42,-6.07,-5.76,-5.34,6.59,6.59,6.01
46.13,12.59,6.54,12.60,6.37,-6.03,-5.69,-5.27,6.56,6.57,6.05
46.60,12.54,6.04,12.54,6.08,-5.96,-5.62,-5.19,6.58,6.58,6.50
47.06,12.50,5.44,12.50,5.69,-5.86,-5.55,-5.13,6.64,6.64,7.06
47.53,12.46,5.54,12.46,5.48,-5.73,-5.47,-5.06,6.73,6.73,6.92
48.01,12.43,5.51,12.43,5.42,-5.57,-5.39,-5.00,6.86,6.86,6.92
48.49,12.39,5.41,12.39,5.41,-5.40,-5.31,-4.94,6.99,6.99,6.99
48.97,12.35,5.29,12.35,5.31,-5.27,-5.23,-4.89,7.08,7.07,7.06
49.46,12.29,5.22,12.29,5.22,-5.19,-5.15,-4.84,7.10,7.10,7.08
49.96,12.23,5.16,12.24,5.15,-5.15,-5.07,-4.79,7.09,7.09,7.08
50.46,12.18,5.11,12.18,5.11,-5.12,-4.99,-4.74,7.07,7.07,7.08
50.96,12.14,5.06,12.14,5.06,-5.08,-4.92,-4.70,7.06,7.06,7.08
51.47,12.10,5.02,12.10,5.02,-5.02,-4.86,-4.66,7.07,7.07,7.08
51.99,12.06,4.98,12.06,4.99,-4.97,-4.79,-4.62,7.09,7.09,7.08
52.51,12.02,4.94,12.02,4.93,-4.91,-4.73,-4.59,7.11,7.11,7.08
53.03,11.98,4.87,11.99,4.87,-4.84,-4.68,-4.56,7.14,7.14,7.11
53.56,11.95,4.78,11.95,4.81,-4.77,-4.63,-4.52,7.18,7.18,7.18
54.10,11.92,4.75,11.92,4.71,-4.71,-4.59,-4.49,7.22,7.22,7.18
54.64,11.90,4.63,11.90,4.61,-4.64,-4.55,-4.46,7.25,7.25,7.26
55.18,11.87,4.49,11.87,4.53,-4.58,-4.52,-4.44,7.29,7.29,7.38
55.74,11.83,4.46,11.83,4.47,-4.51,-4.50,-4.41,7.32,7.32,7.38
56.29,11.79,4.46,11.79,4.45,-4.46,-4.49,-4.38,7.33,7.34,7.33
56.86,11.74,4.47,11.74,4.45,-4.41,-4.48,-4.36,7.34,7.34,7.28
57.42,11.69,4.41,11.69,4.41,-4.36,-4.48,-4.33,7.33,7.33,7.28
58.00,11.62,4.35,11.62,4.34,-4.32,-4.48,-4.30,7.30,7.30,7.28
58.58,11.55,4.27,11.55,4.27,-4.29,-4.50,-4.28,7.26,7.26,7.28
59.16,11.48,4.20,11.48,4.24,-4.27,-4.52,-4.25,7.21,7.21,7.28
59.76,11.40,4.25,11.40,4.23,-4.25,-4.53,-4.22,7.15,7.15,7.15
60.35,11.33,4.26,11.33,4.22,-4.24,-4.55,-4.19,7.09,7.09,7.08
60.96,11.27,4.19,11.27,4.22,-4.23,-4.56,-4.16,7.03,7.03,7.08
61.57,11.20,4.20,11.20,4.23,-4.24,-4.56,-4.13,6.97,6.97,7.01
62.18,11.15,4.25,11.15,4.25,-4.25,-4.54,-4.10,6.90,6.90,6.89
62.80,11.09,4.32,11.09,4.28,-4.25,-4.51,-4.06,6.85,6.85,6.78
63.43,11.04,4.27,11.04,4.26,-4.23,-4.46,-4.03,6.81,6.81,6.78
64.07,10.99,4.21,10.99,4.24,-4.21,-4.39,-3.99,6.78,6.78,6.78
64.71,10.94,4.17,10.94,4.20,-4.18,-4.32,-3.95,6.76,6.76,6.77
65.35,10.88,4.19,10.88,4.15,-4.14,-4.24,-3.91,6.74,6.74,6.69
66.01,10.83,4.10,10.83,4.08,-4.09,-4.17,-3.87,6.73,6.73,6.73
66.67,10.77,3.99,10.77,4.01,-4.04,-4.10,-3.83,6.72,6.72,6.78
67.33,10.71,3.93,10.71,3.95,-3.99,-4.03,-3.79,6.72,6.72,6.78
68.01,10.65,3.94,10.66,3.93,-3.94,-3.97,-3.75,6.71,6.71,6.72
68.69,10.61,3.93,10.61,3.91,-3.89,-3.91,-3.70,6.71,6.71,6.68
69.37,10.56,3.88,10.56,3.88,-3.85,-3.85,-3.66,6.71,6.71,6.68
70.07,10.51,3.83,10.51,3.84,-3.81,-3.80,-3.61,6.70,6.70,6.68
70.77,10.46,3.79,10.46,3.78,-3.79,-3.76,-3.57,6.67,6.67,6.68
71.48,10.41,3.73,10.41,3.73,-3.78,-3.72,-3.52,6.64,6.63,6.68
72.19,10.36,3.68,10.36,3.69,-3.76,-3.68,-3.47,6.59,6.59,6.68
72.91,10.30,3.67,10.30,3.69,-3.75,-3.64,-3.43,6.56,6.56,6.64
73.64,10.25,3.70,10.25,3.72,-3.71,-3.61,-3.39,6.54,6.54,6.55
74.38,10.20,3.78,10.20,3.74,-3.66,-3.58,-3.34,6.54,6.54,6.42
75.12,10.14,3.72,10.14,3.71,-3.59,-3.55,-3.30,6.56,6.56,6.42
75.87,10.09,3.59,10.09,3.61,-3.50,-3.52,-3.26,6.59,6.59,6.49
76.63,10.03,3.47,10.03,3.45,-3.41,-3.50,-3.22,6.62,6.63,6.56
77.40,9.97,3.29,9.98,3.28,-3.32,-3.47,-3.18,6.66,6.66,6.69
78.17,9.92,3.12,9.92,3.13,-3.24,-3.45,-3.14,6.68,6.68,6.80
78.95,9.87,3.00,9.86,3.02,-3.17,-3.43,-3.11,6.70,6.70,6.86
79.74,9.81,2.99,9.81,3.01,-3.11,-3.41,-3.07,6.70,6.69,6.82
80.54,9.75,3.05,9.75,3.07,-3.07,-3.39,-3.04,6.67,6.67,6.69
81.35,9.68,3.19,9.68,3.15,-3.05,-3.36,-3.01,6.63,6.63,6.49
82.16,9.62,3.20,9.62,3.19,-3.06,-3.34,-2.98,6.56,6.56,6.41
82.98,9.55,3.18,9.55,3.17,-3.08,-3.32,-2.95,6.47,6.47,6.38
83.81,9.49,3.11,9.49,3.11,-3.13,-3.31,-2.93,6.36,6.36,6.38
84.65,9.43,3.05,9.43,3.06,-3.18,-3.29,-2.91,6.25,6.25,6.38
85.50,9.37,3.07,9.37,3.10,-3.22,-3.27,-2.89,6.14,6.14,6.29
86.35,9.31,3.18,9.31,3.21,-3.28,-3.25,-2.87,6.03,6.03,6.13
87.22,9.26,3.39,9.26,3.35,-3.33,-3.23,-2.85,5.92,5.92,5.86
88.09,9.20,3.48,9.21,3.46,-3.39,-3.21,-2.84,5.82,5.82,5.73
88.97,9.16,3.50,9.16,3.52,-3.43,-3.19,-2.82,5.73,5.73,5.66
89.86,9.11,3.52,9.11,3.53,-3.45,-3.17,-2.81,5.66,5.66,5.59
90.76,9.05,3.53,9.05,3.53,-3.46,-3.15,-2.81,5.59,5.59,5.52
91.66,8.97,3.50,8.97,3.48,-3.45,-3.13,-2.80,5.52,5.52,5.48
92.58,8.89,3.41,8.89,3.38,-3.44,-3.10,-2.80,5.45,5.45,5.48
93.51,8.81,3.27,8.81,3.30,-3.42,-3.08,-2.79,5.39,5.39,5.54
94.44,8.75,3.24,8.75,3.28,-3.41,-3.06,-2.79,5.34,5.34,5.51
95.39,8.72,3.34,8.72,3.35,-3.40,-3.04,-2.79,5.32,5.32,5.38
96.34,8.72,3.48,8.73,3.44,-3.40,-3.02,-2.80,5.32,5.33,5.24
97.30,8.76,3.52,8.77,3.48,-3.40,-2.99,-2.80,5.37,5.37,5.25
98.28,8.81,3.42,8.80,3.45,-3.38,-2.97,-2.81,5.42,5.42,5.38
99.26,8.82,3.36,8.81,3.40,-3.36,-2.95,-2.81,5.46,5.45,5.45
100.25,8.77,3.34,8.76,3.32,-3.31,-2.92,-2.82,5.46,5.45,5.43
101.25,8.66,3.27,8.65,3.22,-3.21,-2.90,-2.83,5.44,5.44,5.39
102.27,8.51,3.06,8.51,3.08,-3.08,-2.87,-2.84,5.43,5.43,5.44
103.29,8.35,2.90,8.35,2.95,-2.92,-2.85,-2.85,5.43,5.43,5.45
104.32,8.20,2.84,8.21,2.84,-2.78,-2.82,-2.87,5.42,5.43,5.36
105.37,8.08,2.77,8.08,2.71,-2.67,-2.79,-2.88,5.41,5.41,5.31
106.42,7.98,2.57,7.98,2.52,-2.60,-2.77,-2.89,5.38,5.38,5.40
107.48,7.89,2.31,7.89,2.38,-2.56,-2.74,-2.90,5.33,5.33,5.58
108.56,7.82,2.24,7.82,2.38,-2.55,-2.71,-2.91,5.27,5.27,5.58
109.64,7.76,2.57,7.76,2.50,-2.56,-2.68,-2.93,5.20,5.20,5.19
110.74,7.70,2.76,7.70,2.68,-2.59,-2.66,-2.94,5.11,5.11,4.94
111.85,7.64,2.75,7.64,2.79,-2.63,-2.63,-2.95,5.01,5.01,4.88
112.97,7.57,2.79,7.57,2.78,-2.67,-2.60,-2.95,4.90,4.90,4.78
114.10,7.50,2.73,7.50,2.73,-2.71,-2.57,-2.96,4.79,4.79,4.78
115.24,7.43,2.67,7.43,2.69,-2.72,-2.54,-2.96,4.71,4.71,4.77
116.39,7.36,2.65,7.36,2.67,-2.71,-2.51,-2.97,4.66,4.66,4.71
117.55,7.29,2.67,7.29,2.65,-2.67,-2.48,-2.97,4.62,4.62,4.62
118.73,7.22,2.65,7.22,2.63,-2.62,-2.45,-2.96,4.60,4.60,4.58
119.92,7.15,2.58,7.15,2.58,-2.59,-2.41,-2.96,4.57,4.57,4.58
121.12,7.09,2.51,7.09,2.51,-2.55,-2.38,-2.95,4.53,4.53,4.58
122.33,7.02,2.46,7.02,2.49,-2.51,-2.35,-2.94,4.51,4.51,4.56
123.55,6.96,2.46,6.96,2.48,-2.46,-2.32,-2.92,4.50,4.50,4.50
124.79,6.89,2.50,6.89,2.45,-2.39,-2.29,-2.90,4.50,4.50,4.40
126.03,6.83,2.40,6.83,2.39,-2.32,-2.25,-2.88,4.51,4.51,4.43
127.29,6.77,2.28,6.77,2.28,-2.25,-2.22,-2.86,4.52,4.52,4.49
128.57,6.70,2.15,6.70,2.15,-2.18,-2.19,-2.83,4.53,4.53,4.56
129.85,6.63,2.06,6.63,2.06,-2.11,-2.15,-2.80,4.52,4.52,4.58
131.15,6.57,2.00,6.57,2.01,-2.06,-2.12,-2.77,4.51,4.51,4.57
132.46,6.50,2.00,6.50,1.99,-2.03,-2.09,-2.73,4.47,4.47,4.50
133.79,6.44,2.00,6.44,1.99,-2.02,-2.05,-2.69,4.42,4.42,4.44
135.12,6.37,2.00,6.38,2.00,-2.03,-2.02,-2.64,4.34,4.34,4.37
136.48,6.31,2.01,6.31,2.05,-2.06,-1.99,-2.60,4.25,4.25,4.30
137.84,6.25,2.10,6.25,2.11,-2.09,-1.95,-2.55,4.16,4.16,4.15
139.22,6.19,2.21,6.19,2.15,-2.11,-1.92,-2.50,4.08,4.08,3.98
140.61,6.12,2.14,6.12,2.16,-2.10,-1.88,-2.45,4.01,4.01,3.98
142.02,6.04,2.12,6.04,2.14,-2.08,-1.85,-2.40,3.96,3.96,3.93
143.44,5.97,2.09,5.97,2.07,-2.05,-1.82,-2.34,3.92,3.92,3.88
144.87,5.89,2.02,5.89,2.00,-2.00,-1.78,-2.28,3.90,3.90,3.88
146.32,5.82,1.88,5.82,1.89,-1.93,-1.75,-2.23,3.90,3.90,3.94
147.78,5.75,1.78,5.76,1.80,-1.85,-1.71,-2.17,3.91,3.91,3.98
149.26,5.69,1.72,5.69,1.74,-1.76,-1.68,-2.11,3.92,3.92,3.96
150.75,5.62,1.73,5.62,1.69,-1.68,-1.65,-2.05,3.94,3.94,3.89
152.26,5.56,1.64,5.56,1.63,-1.60,-1.61,-1.99,3.96,3.96,3.92
153.78,5.50,1.53,5.50,1.55,-1.52,-1.58,-1.93,3.97,3.97,3.97
155.32,5.43,1.45,5.43,1.46,-1.46,-1.54,-1.87,3.97,3.98,3.98
156.88,5.37,1.39,5.37,1.38,-1.40,-1.51,-1.81,3.97,3.97,3.98
158.44,5.31,1.33,5.31,1.33,-1.35,-1.48,-1.76,3.96,3.96,3.98
160.03,5.24,1.27,5.24,1.28,-1.31,-1.44,-1.70,3.94,3.94,3.98
161.63,5.18,1.26,5.18,1.26,-1.28,-1.41,-1.64,3.90,3.90,3.92
163.24,5.12,1.25,5.12,1.26,-1.27,-1.38,-1.58,3.85,3.85,3.86
164.88,5.06,1.27,5.06,1.26,-1.27,-1.34,-1.52,3.79,3.79,3.78
166.53,5.00,1.27,5.00,1.27,-1.27,-1.31,-1.47,3.73,3.73,3.73
168.19,4.93,1.27,4.93,1.28,-1.27,-1.28,-1.41,3.67,3.66,3.67
169.87,4.87,1.29,4.87,1.29,-1.26,-1.25,-1.36,3.61,3.61,3.58
171.57,4.80,1.31,4.80,1.29,-1.25,-1.21,-1.30,3.56,3.56,3.50
173.29,4.74,1.26,4.74,1.25,-1.22,-1.18,-1.25,3.51,3.51,3.48
175.02,4.66,1.19,4.67,1.19,-1.19,-1.15,-1.20,3.47,3.48,3.48
176.77,4.60,1.12,4.60,1.14,-1.15,-1.12,-1.15,3.44,3.44,3.48
178.54,4.53,1.10,4.53,1.10,-1.11,-1.09,-1.10,3.41,3.41,3.43
180.32,4.46,1.08,4.46,1.06,-1.07,-1.05,-1.05,3.38,3.38,3.38
182.13,4.38,1.01,4.38,1.02,-1.04,-1.02,-1.00,3.34,3.34,3.38
183.95,4.31,0.98,4.31,0.99,-1.01,-0.99,-0.95,3.30,3.30,3.33
185.79,4.23,0.98,4.23,0.97,-0.99,-0.96,-0.90,3.25,3.25,3.25
187.65,4.16,0.97,4.16,0.98,-0.96,-0.93,-0.86,3.19,3.20,3.19
189.52,4.09,0.97,4.09,0.96,-0.94,-0.90,-0.81,3.15,3.16,3.13
191.42,4.02,0.95,4.02,0.93,-0.91,-0.87,-0.77,3.12,3.12,3.08
193.33,3.94,0.87,3.94,0.89,-0.87,-0.84,-0.72,3.08,3.07,3.08
195.27,3.85,0.83,3.84,0.84,-0.82,-0.81,-0.68,3.02,3.01,3.01
197.22,3.73,0.79,3.73,0.79,-0.79,-0.78,-0.64,2.94,2.95,2.94
199.19,3.62,0.74,3.63,0.73,-0.75,-0.75,-0.59,2.87,2.88,2.88
201.18,3.55,0.67,3.55,0.67,-0.71,-0.73,-0.55,2.83,2.84,2.88
203.19,3.50,0.62,3.50,0.63,-0.68,-0.70,-0.51,2.82,2.82,2.88
205.23,3.48,0.61,3.47,0.63,-0.64,-0.67,-0.47,2.83,2.83,2.87
207.28,3.46,0.65,3.45,0.64,-0.60,-0.64,-0.43,2.85,2.85,2.80
209.35,3.43,0.65,3.42,0.63,-0.56,-0.62,-0.40,2.87,2.86,2.78
211.44,3.38,0.59,3.38,0.58,-0.52,-0.59,-0.36,2.87,2.87,2.79
213.56,3.34,0.47,3.34,0.50,-0.48,-0.56,-0.32,2.85,2.85,2.86
215.69,3.29,0.42,3.29,0.42,-0.46,-0.54,-0.29,2.84,2.84,2.88
217.85,3.25,0.37,3.25,0.37,-0.43,-0.51,-0.26,2.82,2.82,2.88
220.03,3.22,0.34,3.22,0.36,-0.42,-0.48,-0.22,2.80,2.81,2.88
222.23,3.20,0.38,3.20,0.38,-0.40,-0.46,-0.19,2.80,2.79,2.82
224.45,3.18,0.42,3.18,0.42,-0.40,-0.43,-0.16,2.78,2.77,2.76
226.70,3.15,0.47,3.15,0.47,-0.42,-0.41,-0.13,2.74,2.73,2.69
228.96,3.12,0.51,3.12,0.49,-0.44,-0.38,-0.10,2.67,2.67,2.61
231.25,3.07,0.50,3.07,0.48,-0.48,-0.36,-0.08,2.60,2.60,2.58
233.57,3.02,0.45,3.02,0.47,-0.50,-0.34,-0.05,2.52,2.52,2.58
235.90,2.97,0.45,2.97,0.48,-0.52,-0.31,-0.03,2.45,2.45,2.51
238.26,2.90,0.51,2.90,0.51,-0.52,-0.29,-0.00,2.38,2.38,2.39
240.64,2.84,0.58,2.84,0.56,-0.52,-0.27,0.02,2.32,2.32,2.26
243.05,2.78,0.58,2.78,0.57,-0.51,-0.24,0.04,2.26,2.27,2.20
245.48,2.72,0.54,2.72,0.54,-0.51,-0.22,0.06,2.21,2.21,2.18
247.93,2.66,0.48,2.66,0.48,-0.50,-0.20,0.08,2.15,2.15,2.18
250.41,2.60,0.42,2.60,0.43,-0.49,-0.18,0.09,2.11,2.11,2.18
252.92,2.54,0.41,2.54,0.42,-0.46,-0.16,0.11,2.07,2.07,2.13
255.45,2.48,0.42,2.48,0.42,-0.42,-0.14,0.12,2.06,2.06,2.06
258.00,2.42,0.44,2.42,0.42,-0.37,-0.11,0.14,2.05,2.05,1.98
260.58,2.36,0.38,2.36,0.37,-0.31,-0.09,0.15,2.05,2.05,1.98
263.19,2.29,0.29,2.30,0.29,-0.24,-0.07,0.16,2.05,2.05,2.01
265.82,2.24,0.16,2.24,0.19,-0.18,-0.05,0.17,2.06,2.06,2.07
268.48,2.18,0.10,2.18,0.09,-0.12,-0.03,0.17,2.06,2.06,2.08
271.16,2.12,0.02,2.12,-0.01,-0.05,-0.02,0.18,2.07,2.07,2.11
273.87,2.07,-0.11,2.07,-0.07,0.01,0.00,0.19,2.08,2.08,2.17
276.61,2.01,-0.10,2.01,-0.10,0.07,0.02,0.19,2.08,2.08,2.11
279.38,1.95,-0.09,1.95,-0.10,0.11,0.04,0.19,2.07,2.06,2.04
282.17,1.90,-0.08,1.90,-0.10,0.15,0.06,0.20,2.05,2.05,1.98
284.99,1.84,-0.13,1.84,-0.13,0.17,0.07,0.20,2.02,2.02,1.98
287.84,1.79,-0.19,1.79,-0.19,0.20,0.09,0.20,1.99,1.99,1.98
290.72,1.73,-0.24,1.73,-0.24,0.22,0.11,0.20,1.96,1.96,1.98
293.63,1.68,-0.30,1.68,-0.27,0.25,0.13,0.20,1.93,1.93,1.98
296.57,1.63,-0.28,1.63,-0.30,0.28,0.14,0.20,1.91,1.91,1.91
299.53,1.58,-0.30,1.58,-0.31,0.31,0.16,0.20,1.89,1.89,1.88
302.53,1.53,-0.35,1.53,-0.32,0.34,0.17,0.20,1.86,1.86,1.88
305.55,1.47,-0.34,1.47,-0.35,0.36,0.19,0.20,1.83,1.83,1.81
308.61,1.42,-0.36,1.42,-0.38,0.38,0.20,0.20,1.79,1.79,1.78
311.69,1.36,-0.42,1.36,-0.39,0.40,0.22,0.20,1.76,1.76,1.78
314.81,1.31,-0.40,1.31,-0.41,0.43,0.23,0.20,1.73,1.73,1.71
317.96,1.25,-0.42,1.25,-0.44,0.45,0.25,0.20,1.71,1.71,1.68
321.14,1.20,-0.48,1.20,-0.47,0.48,0.26,0.20,1.68,1.68,1.68
324.35,1.15,-0.53,1.15,-0.51,0.50,0.27,0.20,1.65,1.65,1.68
327.59,1.10,-0.53,1.10,-0.54,0.51,0.29,0.20,1.61,1.61,1.62
330.87,1.05,-0.53,1.05,-0.55,0.52,0.30,0.20,1.57,1.57,1.58
334.18,1.00,-0.57,1.00,-0.53,0.52,0.31,0.20,1.52,1.52,1.58
337.52,0.96,-0.52,0.96,-0.52,0.52,0.33,0.20,1.47,1.47,1.48
340.90,0.91,-0.47,0.91,-0.51,0.52,0.34,0.20,1.43,1.43,1.38
344.30,0.86,-0.52,0.86,-0.49,0.52,0.35,0.20,1.38,1.38,1.38
347.75,0.82,-0.51,0.82,-0.50,0.53,0.36,0.20,1.35,1.35,1.32
351.23,0.77,-0.51,0.77,-0.53,0.55,0.37,0.20,1.32,1.32,1.28
354.74,0.72,-0.55,0.72,-0.55,0.58,0.38,0.20,1.30,1.30,1.28
358.28,0.68,-0.60,0.68,-0.60,0.60,0.39,0.20,1.28,1.28,1.28
361.87,0.63,-0.64,0.63,-0.64,0.62,0.40,0.20,1.25,1.25,1.28
365.49,0.59,-0.68,0.59,-0.67,0.63,0.41,0.20,1.21,1.22,1.27
369.14,0.55,-0.66,0.55,-0.67,0.62,0.42,0.20,1.17,1.17,1.21
372.83,0.50,-0.64,0.50,-0.64,0.60,0.43,0.20,1.10,1.10,1.14
376.56,0.46,-0.60,0.46,-0.58,0.57,0.44,0.21,1.03,1.03,1.06
380.33,0.42,-0.51,0.42,-0.52,0.54,0.45,0.21,0.96,0.96,0.93
384.13,0.38,-0.45,0.38,-0.46,0.50,0.46,0.21,0.88,0.88,0.83
387.97,0.34,-0.42,0.34,-0.42,0.46,0.47,0.21,0.80,0.80,0.76
391.85,0.30,-0.40,0.30,-0.41,0.43,0.48,0.22,0.73,0.73,0.70
395.77,0.25,-0.42,0.25,-0.41,0.41,0.49,0.22,0.67,0.67,0.68
399.73,0.21,-0.44,0.21,-0.42,0.40,0.49,0.22,0.62,0.62,0.65
403.72,0.17,-0.41,0.17,-0.44,0.41,0.50,0.23,0.58,0.58,0.58
407.76,0.13,-0.45,0.13,-0.44,0.43,0.51,0.23,0.56,0.56,0.58
411.84,0.09,-0.46,0.09,-0.44,0.46,0.51,0.23,0.54,0.54,0.55
415.96,0.05,-0.43,0.05,-0.45,0.49,0.52,0.24,0.54,0.54,0.48
420.12,0.00,-0.47,0.00,-0.49,0.53,0.53,0.24,0.54,0.54,0.48
424.32,-0.04,-0.55,-0.04,-0.56,0.57,0.53,0.25,0.54,0.54,0.52
428.56,-0.08,-0.65,-0.08,-0.63,0.61,0.54,0.25,0.53,0.53,0.58
432.85,-0.11,-0.69,-0.11,-0.67,0.64,0.54,0.25,0.52,0.52,0.58
437.18,-0.15,-0.68,-0.15,-0.69,0.66,0.55,0.26,0.51,0.51,0.53
441.55,-0.18,-0.66,-0.18,-0.69,0.66,0.56,0.26,0.47,0.47,0.48
445.96,-0.22,-0.70,-0.22,-0.66,0.65,0.56,0.27,0.43,0.43,0.48
450.42,-0.25,-0.63,-0.26,-0.63,0.62,0.57,0.27,0.36,0.36,0.38
454.93,-0.29,-0.55,-0.29,-0.57,0.58,0.57,0.28,0.29,0.29,0.26
459.48,-0.33,-0.51,-0.33,-0.51,0.53,0.57,0.28,0.21,0.21,0.19
464.07,-0.36,-0.48,-0.36,-0.48,0.49,0.58,0.29,0.13,0.13,0.12
468.71,-0.40,-0.45,-0.40,-0.44,0.45,0.58,0.29,0.06,0.06,0.05
473.40,-0.43,-0.42,-0.43,-0.41,0.42,0.58,0.30,-0.01,-0.01,-0.01
478.13,-0.47,-0.38,-0.47,-0.40,0.40,0.59,0.30,-0.07,-0.07,-0.08
482.91,-0.50,-0.38,-0.50,-0.39,0.39,0.59,0.30,-0.12,-0.12,-0.12
487.74,-0.54,-0.41,-0.54,-0.38,0.38,0.59,0.31,-0.15,-0.15,-0.12
492.62,-0.57,-0.38,-0.57,-0.39,0.39,0.60,0.31,-0.18,-0.18,-0.19
497.55,-0.60,-0.38,-0.60,-0.39,0.40,0.60,0.32,-0.20,-0.20,-0.22
502.52,-0.63,-0.41,-0.63,-0.40,0.41,0.60,0.32,-0.22,-0.22,-0.22
507.55,-0.66,-0.44,-0.66,-0.43,0.43,0.60,0.33,-0.23,-0.23,-0.22
512.62,-0.69,-0.47,-0.69,-0.47,0.46,0.60,0.33,-0.23,-0.23,-0.22
517.75,-0.72,-0.49,-0.72,-0.49,0.48,0.61,0.33,-0.24,-0.24,-0.22
522.93,-0.74,-0.52,-0.74,-0.52,0.51,0.61,0.34,-0.24,-0.24,-0.22
