frequency,raw,error,smoothed,error_smoothed,equalization,parametric_eq,fixed_band_eq,equalized_raw,equalized_smoothed,target
20.00,9.68,3.41,9.68,3.41,-3.41,-3.40,-1.57,6.27,6.27,6.26
20.20,9.70,3.42,9.70,3.42,-3.41,-3.42,-1.62,6.28,6.28,6.28
20.40,9.72,3.42,9.72,3.42,-3.42,-3.44,-1.66,6.30,6.30,6.30
20.61,9.74,3.43,9.74,3.43,-3.43,-3.46,-1.71,6.32,6.32,6.32
20.81,9.77,3.43,9.77,3.43,-3.43,-3.48,-1.76,6.33,6.33,6.33
21.02,9.79,3.44,9.79,3.44,-3.44,-3.50,-1.82,6.34,6.34,6.35
21.23,9.81,3.45,9.81,3.45,-3.46,-3.52,-1.87,6.36,6.36,6.36
21.44,9.84,3.46,9.83,3.46,-3.47,-3.53,-1.92,6.37,6.37,6.37
21.66,9.86,3.48,9.86,3.48,-3.49,-3.55,-1.98,6.37,6.37,6.37
21.87,9.88,3.50,9.88,3.50,-3.50,-3.57,-2.04,6.37,6.37,6.38
22.09,9.90,3.52,9.90,3.52,-3.52,-3.58,-2.10,6.38,6.38,6.38
22.31,9.92,3.54,9.92,3.54,-3.54,-3.60,-2.16,6.38,6.38,6.37
22.54,9.94,3.56,9.94,3.56,-3.56,-3.61,-2.22,6.38,6.38,6.37
22.76,9.96,3.58,9.96,3.58,-3.57,-3.62,-2.29,6.38,6.38,6.38
22.99,9.98,3.59,9.98,3.59,-3.59,-3.64,-2.35,6.39,6.39,6.38
23.22,10.00,3.60,10.00,3.60,-3.60,-3.65,-2.42,6.40,6.40,6.39
23.45,10.01,3.61,10.01,3.61,-3.60,-3.66,-2.49,6.41,6.41,6.41
23.69,10.03,3.61,10.03,3.61,-3.61,-3.67,-2.56,6.42,6.42,6.42
23.92,10.05,3.62,10.05,3.62,-3.62,-3.68,-2.63,6.43,6.43,6.43
24.16,10.07,3.62,10.07,3.62,-3.63,-3.68,-2.70,6.44,6.44,6.44
24.40,10.08,3.63,10.08,3.63,-3.64,-3.69,-2.78,6.44,6.44,6.45
24.65,10.10,3.65,10.10,3.65,-3.66,-3.70,-2.85,6.44,6.44,6.45
24.89,10.11,3.67,10.11,3.67,-3.67,-3.70,-2.93,6.44,6.44,6.45
25.14,10.13,3.69,10.13,3.69,-3.70,-3.70,-3.01,6.43,6.43,6.44
25.39,10.14,3.72,10.14,3.72,-3.72,-3.71,-3.08,6.43,6.43,6.43
25.65,10.16,3.74,10.16,3.74,-3.73,-3.71,-3.16,6.43,6.43,6.42
25.91,10.17,3.76,10.17,3.76,-3.75,-3.71,-3.24,6.43,6.43,6.42
26.16,10.19,3.77,10.19,3.77,-3.76,-3.71,-3.32,6.43,6.43,6.42
26.43,10.20,3.77,10.20,3.77,-3.76,-3.71,-3.39,6.44,6.44,6.43
26.69,10.21,3.76,10.21,3.76,-3.76,-3.71,-3.47,6.45,6.45,6.44
26.96,10.22,3.75,10.22,3.75,-3.75,-3.70,-3.54,6.47,6.47,6.46
27.23,10.23,3.74,10.23,3.74,-3.74,-3.70,-3.62,6.49,6.48,6.49
27.50,10.23,3.72,10.23,3.72,-3.73,-3.70,-3.69,6.50,6.50,6.51
27.77,10.24,3.71,10.24,3.71,-3.73,-3.69,-3.76,6.51,6.52,6.53
28.05,10.25,3.71,10.25,3.71,-3.72,-3.69,-3.82,6.53,6.53,6.54
28.33,10.25,3.71,10.25,3.71,-3.72,-3.68,-3.89,6.54,6.54,6.54
28.62,10.26,3.72,10.26,3.72,-3.72,-3.68,-3.95,6.54,6.54,6.55
28.90,10.27,3.72,10.27,3.72,-3.72,-3.68,-4.00,6.55,6.55,6.55
29.19,10.28,3.73,10.28,3.73,-3.72,-3.67,-4.06,6.56,6.56,6.55
29.48,10.30,3.73,10.30,3.73,-3.73,-3.67,-4.10,6.57,6.57,6.56
29.78,10.31,3.73,10.31,3.73,-3.72,-3.67,-4.14,6.58,6.58,6.58
30.08,10.32,3.73,10.32,3.73,-3.72,-3.68,-4.18,6.60,6.59,6.59
30.38,10.33,3.72,10.33,3.72,-3.72,-3.68,-4.21,6.61,6.61,6.61
30.68,10.33,3.71,10.33,3.71,-3.72,-3.69,-4.24,6.62,6.62,6.62
30.99,10.34,3.71,10.34,3.71,-3.71,-3.69,-4.26,6.63,6.63,6.63
31.30,10.35,3.71,10.35,3.71,-3.71,-3.70,-4.27,6.63,6.63,6.64
31.61,10.35,3.71,10.35,3.71,-3.71,-3.70,-4.28,6.63,6.64,6.64
31.93,10.35,3.71,10.35,3.71,-3.72,-3.71,-4.29,6.64,6.64,6.64
32.24,10.36,3.72,10.36,3.72,-3.72,-3.72,-4.28,6.64,6.64,6.64
32.57,10.36,3.73,10.36,3.73,-3.72,-3.72,-4.27,6.64,6.64,6.63
32.89,10.36,3.73,10.36,3.73,-3.71,-3.73,-4.26,6.65,6.65,6.63
33.22,10.36,3.73,10.36,3.73,-3.71,-3.74,-4.24,6.65,6.65,6.63
33.55,10.36,3.72,10.36,3.72,-3.72,-3.74,-4.22,6.65,6.65,6.64
33.89,10.37,3.71,10.37,3.71,-3.73,-3.75,-4.19,6.64,6.64,6.65
34.23,10.37,3.71,10.37,3.71,-3.74,-3.75,-4.16,6.63,6.63,6.66
34.57,10.37,3.72,10.37,3.73,-3.76,-3.75,-4.13,6.61,6.61,6.65
34.92,10.37,3.75,10.37,3.76,-3.78,-3.75,-4.09,6.60,6.60,6.62
35.27,10.37,3.79,10.37,3.79,-3.79,-3.75,-4.05,6.58,6.58,6.58
35.62,10.37,3.83,10.37,3.83,-3.81,-3.76,-4.01,6.56,6.56,6.54
35.97,10.37,3.86,10.37,3.86,-3.82,-3.75,-3.96,6.55,6.55,6.51
36.33,10.37,3.86,10.37,3.86,-3.83,-3.75,-3.92,6.54,6.54,6.51
36.70,10.37,3.84,10.37,3.84,-3.83,-3.75,-3.87,6.55,6.55,6.53
37.06,10.37,3.81,10.37,3.81,-3.81,-3.75,-3.82,6.56,6.56,6.56
37.43,10.37,3.78,10.37,3.78,-3.80,-3.74,-3.78,6.57,6.57,6.59
37.81,10.37,3.76,10.37,3.76,-3.77,-3.74,-3.73,6.60,6.60,6.61
38.19,10.37,3.74,10.37,3.74,-3.75,-3.74,-3.68,6.62,6.62,6.63
38.57,10.36,3.73,10.36,3.73,-3.73,-3.73,-3.64,6.63,6.63,6.63
38.95,10.36,3.72,10.36,3.72,-3.71,-3.73,-3.59,6.65,6.65,6.64
39.34,10.36,3.70,10.36,3.70,-3.70,-3.72,-3.55,6.65,6.65,6.65
39.74,10.35,3.69,10.35,3.69,-3.69,-3.71,-3.50,6.66,6.66,6.66
40.14,10.35,3.68,10.35,3.68,-3.69,-3.70,-3.46,6.66,6.66,6.67
40.54,10.34,3.68,10.34,3.68,-3.68,-3.70,-3.42,6.66,6.66,6.67
40.94,10.34,3.67,10.34,3.67,-3.67,-3.69,-3.39,6.66,6.66,6.66
41.35,10.33,3.67,10.33,3.67,-3.67,-3.68,-3.35,6.66,6.66,6.66
41.76,10.32,3.67,10.32,3.67,-3.66,-3.67,-3.32,6.66,6.66,6.66
42.18,10.31,3.66,10.31,3.66,-3.65,-3.66,-3.29,6.66,6.66,6.66
42.60,10.31,3.64,10.31,3.64,-3.64,-3.65,-3.26,6.66,6.66,6.66
43.03,10.30,3.63,10.30,3.63,-3.63,-3.64,-3.23,6.66,6.66,6.66
43.46,10.29,3.62,10.29,3.62,-3.62,-3.63,-3.21,6.67,6.67,6.67
43.90,10.28,3.61,10.28,3.61,-3.61,-3.62,-3.19,6.67,6.67,6.67
44.33,10.27,3.60,10.27,3.60,-3.60,-3.61,-3.17,6.67,6.67,6.67
44.78,10.26,3.58,10.26,3.58,-3.58,-3.60,-3.15,6.67,6.67,6.67
45.23,10.25,3.57,10.25,3.57,-3.57,-3.59,-3.14,6.67,6.67,6.68
45.68,10.24,3.56,10.24,3.56,-3.56,-3.58,-3.12,6.67,6.67,6.68
46.13,10.22,3.55,10.22,3.55,-3.55,-3.57,-3.12,6.67,6.67,6.67
46.60,10.21,3.54,10.21,3.54,-3.54,-3.56,-3.11,6.67,6.67,6.67
47.06,10.20,3.53,10.20,3.53,-3.53,-3.54,-3.10,6.67,6.67,6.67
47.53,10.19,3.53,10.19,3.53,-3.52,-3.53,-3.10,6.66,6.66,6.66
48.01,10.17,3.52,10.17,3.52,-3.52,-3.52,-3.10,6.66,6.66,6.66
48.49,10.16,3.51,10.16,3.51,-3.51,-3.51,-3.10,6.66,6.66,6.66
48.97,10.15,3.50,10.15,3.50,-3.50,-3.49,-3.11,6.65,6.65,6.65
49.46,10.14,3.49,10.14,3.49,-3.49,-3.48,-3.11,6.65,6.65,6.65
49.96,10.12,3.48,10.12,3.48,-3.48,-3.47,-3.12,6.65,6.65,6.65
50.46,10.11,3.46,10.11,3.47,-3.47,-3.45,-3.13,6.64,6.64,6.64
50.96,10.09,3.45,10.09,3.45,-3.45,-3.44,-3.14,6.64,6.64,6.64
51.47,10.08,3.44,10.08,3.44,-3.44,-3.42,-3.15,6.64,6.64,6.64
51.99,10.07,3.43,10.07,3.43,-3.43,-3.41,-3.16,6.63,6.63,6.63
52.51,10.05,3.42,10.05,3.42,-3.42,-3.39,-3.18,6.63,6.63,6.63
53.03,10.04,3.41,10.04,3.41,-3.41,-3.38,-3.19,6.63,6.63,6.63
53.56,10.02,3.40,10.02,3.40,-3.40,-3.36,-3.21,6.62,6.62,6.63
54.10,10.01,3.38,10.01,3.38,-3.38,-3.35,-3.22,6.62,6.62,6.62
54.64,9.99,3.37,9.99,3.37,-3.37,-3.33,-3.23,6.62,6.63,6.62
55.18,9.98,3.36,9.98,3.35,-3.35,-3.31,-3.25,6.63,6.63,6.62
55.74,9.96,3.33,9.96,3.33,-3.33,-3.30,-3.26,6.63,6.63,6.62
56.29,9.94,3.31,9.94,3.31,-3.31,-3.28,-3.27,6.63,6.63,6.63
56.86,9.91,3.28,9.91,3.28,-3.29,-3.26,-3.28,6.63,6.63,6.63
57.42,9.89,3.26,9.89,3.26,-3.26,-3.25,-3.29,6.62,6.62,6.63
58.00,9.86,3.24,9.86,3.24,-3.24,-3.23,-3.30,6.62,6.62,6.63
58.58,9.84,3.21,9.84,3.21,-3.22,-3.21,-3.30,6.62,6.62,6.62
59.16,9.81,3.19,9.81,3.19,-3.19,-3.19,-3.31,6.62,6.62,6.62
59.76,9.79,3.17,9.79,3.17,-3.17,-3.17,-3.30,6.62,6.62,6.62
60.35,9.76,3.15,9.76,3.15,-3.15,-3.15,-3.30,6.61,6.61,6.61
60.96,9.74,3.13,9.74,3.13,-3.13,-3.13,-3.30,6.61,6.61,6.61
61.57,9.71,3.11,9.71,3.11,-3.11,-3.11,-3.29,6.60,6.60,6.60
62.18,9.69,3.09,9.69,3.09,-3.09,-3.09,-3.27,6.60,6.60,6.60
62.80,9.66,3.07,9.66,3.07,-3.07,-3.07,-3.26,6.59,6.59,6.59
63.43,9.63,3.05,9.63,3.05,-3.05,-3.05,-3.24,6.59,6.59,6.59
64.07,9.61,3.03,9.61,3.03,-3.03,-3.03,-3.22,6.58,6.58,6.58
64.71,9.58,3.01,9.58,3.01,-3.01,-3.01,-3.19,6.58,6.58,6.58
65.35,9.56,2.98,9.56,2.98,-2.98,-2.99,-3.17,6.57,6.57,6.57
66.01,9.53,2.96,9.53,2.96,-2.96,-2.97,-3.14,6.57,6.57,6.57
66.67,9.50,2.94,9.50,2.94,-2.94,-2.94,-3.10,6.57,6.57,6.57
67.33,9.48,2.91,9.48,2.91,-2.91,-2.92,-3.07,6.56,6.56,6.56
68.01,9.45,2.89,9.45,2.89,-2.89,-2.90,-3.03,6.56,6.56,6.56
68.69,9.42,2.86,9.42,2.86,-2.86,-2.87,-2.99,6.56,6.56,6.56
69.37,9.38,2.83,9.38,2.83,-2.83,-2.85,-2.95,6.55,6.55,6.55
70.07,9.35,2.80,9.35,2.80,-2.80,-2.82,-2.90,6.55,6.55,6.55
70.77,9.31,2.77,9.31,2.77,-2.77,-2.80,-2.86,6.54,6.54,6.54
71.48,9.27,2.74,9.27,2.74,-2.74,-2.77,-2.81,6.54,6.54,6.53
72.19,9.23,2.70,9.23,2.70,-2.70,-2.75,-2.76,6.53,6.53,6.53
72.91,9.19,2.67,9.19,2.67,-2.67,-2.72,-2.71,6.52,6.52,6.52
73.64,9.15,2.64,9.15,2.64,-2.64,-2.69,-2.66,6.52,6.52,6.52
74.38,9.12,2.61,9.12,2.61,-2.61,-2.67,-2.61,6.51,6.51,6.51
75.12,9.09,2.58,9.09,2.58,-2.58,-2.64,-2.57,6.50,6.51,6.51
75.87,9.06,2.55,9.06,2.55,-2.56,-2.61,-2.52,6.50,6.50,6.50
76.63,9.03,2.53,9.03,2.53,-2.53,-2.58,-2.47,6.50,6.50,6.50
77.40,9.00,2.51,9.00,2.51,-2.51,-2.56,-2.42,6.49,6.49,6.49
78.17,8.98,2.49,8.98,2.49,-2.49,-2.53,-2.37,6.49,6.49,6.49
78.95,8.95,2.47,8.95,2.47,-2.47,-2.50,-2.33,6.48,6.48,6.48
79.74,8.92,2.45,8.92,2.45,-2.45,-2.47,-2.28,6.47,6.47,6.47
80.54,8.89,2.43,8.89,2.43,-2.43,-2.44,-2.23,6.47,6.47,6.46
81.35,8.86,2.41,8.86,2.41,-2.40,-2.41,-2.19,6.46,6.46,6.46
82.16,8.83,2.38,8.83,2.38,-2.38,-2.38,-2.15,6.45,6.45,6.45
82.98,8.80,2.36,8.80,2.36,-2.36,-2.35,-2.11,6.44,6.44,6.44
83.81,8.77,2.33,8.77,2.33,-2.33,-2.32,-2.07,6.43,6.43,6.43
84.65,8.74,2.31,8.74,2.31,-2.31,-2.29,-2.03,6.43,6.43,6.43
85.50,8.71,2.28,8.71,2.28,-2.29,-2.26,-1.99,6.42,6.42,6.42
86.35,8.68,2.26,8.68,2.26,-2.27,-2.23,-1.96,6.41,6.41,6.42
87.22,8.65,2.23,8.65,2.23,-2.24,-2.20,-1.92,6.41,6.41,6.42
88.09,8.62,2.21,8.62,2.22,-2.22,-2.17,-1.89,6.41,6.41,6.41
88.97,8.60,2.19,8.60,2.20,-2.19,-2.14,-1.86,6.41,6.41,6.40
89.86,8.57,2.17,8.57,2.17,-2.15,-2.11,-1.83,6.42,6.41,6.39
90.76,8.52,2.14,8.52,2.14,-2.11,-2.08,-1.80,6.41,6.41,6.39
91.66,8.47,2.09,8.46,2.09,-2.07,-2.05,-1.77,6.40,6.40,6.38
92.58,8.40,2.03,8.40,2.03,-2.03,-2.01,-1.75,6.37,6.37,6.37
93.51,8.33,1.97,8.33,1.97,-1.99,-1.98,-1.72,6.34,6.34,6.36
94.44,8.27,1.92,8.27,1.92,-1.96,-1.95,-1.70,6.31,6.32,6.35
95.39,8.24,1.89,8.24,1.90,-1.94,-1.92,-1.68,6.30,6.30,6.34
96.34,8.22,1.89,8.23,1.89,-1.92,-1.89,-1.66,6.30,6.30,6.33
97.30,8.23,1.90,8.23,1.90,-1.91,-1.86,-1.64,6.32,6.32,6.33
98.28,8.24,1.92,8.24,1.92,-1.90,-1.83,-1.62,6.34,6.34,6.32
99.26,8.23,1.92,8.23,1.92,-1.88,-1.80,-1.60,6.36,6.35,6.31
100.25,8.20,1.90,8.20,1.90,-1.85,-1.77,-1.59,6.35,6.34,6.30
101.25,8.14,1.85,8.14,1.85,-1.82,-1.74,-1.57,6.32,6.32,6.29
102.27,8.06,1.78,8.07,1.78,-1.78,-1.71,-1.56,6.28,6.28,6.28
103.29,7.99,1.72,7.99,1.72,-1.73,-1.68,-1.54,6.25,6.26,6.27
104.32,7.92,1.66,7.92,1.66,-1.68,-1.66,-1.53,6.24,6.24,6.26
105.37,7.87,1.61,7.86,1.61,-1.64,-1.63,-1.52,6.23,6.23,6.25
106.42,7.82,1.58,7.82,1.58,-1.59,-1.60,-1.51,6.22,6.23,6.24
107.48,7.78,1.55,7.78,1.55,-1.56,-1.57,-1.49,6.22,6.22,6.23
108.56,7.75,1.54,7.75,1.54,-1.54,-1.54,-1.48,6.22,6.22,6.22
109.64,7.73,1.52,7.73,1.52,-1.52,-1.51,-1.47,6.21,6.21,6.21
110.74,7.71,1.51,7.71,1.51,-1.51,-1.49,-1.46,6.20,6.20,6.20
111.85,7.69,1.50,7.69,1.50,-1.49,-1.46,-1.44,6.19,6.19,6.19
112.97,7.66,1.48,7.66,1.48,-1.48,-1.43,-1.43,6.18,6.18,6.17
114.10,7.63,1.47,7.63,1.47,-1.46,-1.41,-1.42,6.17,6.17,6.16
115.24,7.60,1.45,7.60,1.45,-1.45,-1.38,-1.40,6.15,6.16,6.15
116.39,7.57,1.42,7.57,1.42,-1.42,-1.35,-1.39,6.14,6.14,6.14
117.55,7.54,1.40,7.53,1.40,-1.40,-1.33,-1.37,6.14,6.14,6.13
118.73,7.50,1.37,7.50,1.37,-1.37,-1.30,-1.36,6.13,6.13,6.12
119.92,7.46,1.34,7.46,1.34,-1.34,-1.27,-1.34,6.12,6.12,6.11
121.12,7.41,1.31,7.41,1.31,-1.31,-1.24,-1.32,6.10,6.10,6.10
122.33,7.36,1.27,7.36,1.27,-1.27,-1.22,-1.30,6.09,6.09,6.09
123.55,7.31,1.23,7.31,1.23,-1.23,-1.19,-1.28,6.07,6.07,6.08
124.79,7.25,1.19,7.26,1.19,-1.20,-1.16,-1.25,6.06,6.06,6.06
126.03,7.20,1.15,7.20,1.15,-1.16,-1.13,-1.23,6.05,6.05,6.05
127.29,7.15,1.12,7.15,1.12,-1.12,-1.10,-1.20,6.03,6.03,6.03
128.57,7.10,1.08,7.10,1.08,-1.08,-1.07,-1.18,6.02,6.02,6.02
129.85,7.04,1.04,7.04,1.04,-1.04,-1.04,-1.15,6.01,6.01,6.01
131.15,6.99,1.00,6.99,0.99,-0.99,-1.01,-1.12,6.00,6.00,5.99
132.46,6.93,0.95,6.93,0.95,-0.95,-0.97,-1.08,5.98,5.98,5.98
133.79,6.88,0.91,6.88,0.91,-0.91,-0.94,-1.05,5.97,5.97,5.97
135.12,6.82,0.87,6.82,0.87,-0.87,-0.90,-1.02,5.96,5.96,5.96
136.48,6.77,0.82,6.77,0.82,-0.82,-0.87,-0.98,5.94,5.94,5.94
137.84,6.71,0.78,6.71,0.78,-0.78,-0.83,-0.94,5.93,5.93,5.93
139.22,6.65,0.74,6.65,0.74,-0.74,-0.79,-0.90,5.91,5.91,5.91
140.61,6.59,0.69,6.59,0.69,-0.69,-0.75,-0.87,5.90,5.90,5.90
142.02,6.54,0.65,6.54,0.65,-0.65,-0.71,-0.83,5.89,5.89,5.89
143.44,6.48,0.61,6.48,0.61,-0.61,-0.67,-0.78,5.87,5.87,5.87
144.87,6.43,0.57,6.43,0.57,-0.57,-0.63,-0.74,5.86,5.86,5.86
146.32,6.37,0.53,6.37,0.53,-0.53,-0.58,-0.70,5.84,5.84,5.84
147.78,6.32,0.49,6.32,0.49,-0.49,-0.54,-0.66,5.83,5.83,5.83
149.26,6.26,0.45,6.26,0.45,-0.45,-0.49,-0.61,5.81,5.81,5.81
150.75,6.21,0.42,6.21,0.42,-0.42,-0.45,-0.57,5.79,5.79,5.80
152.26,6.16,0.38,6.16,0.38,-0.38,-0.40,-0.53,5.78,5.78,5.78
153.78,6.11,0.35,6.11,0.35,-0.35,-0.36,-0.48,5.76,5.76,5.76
155.32,6.07,0.32,6.07,0.32,-0.32,-0.31,-0.44,5.75,5.75,5.75
156.88,6.02,0.29,6.02,0.29,-0.29,-0.27,-0.39,5.73,5.73,5.73
158.44,5.98,0.26,5.98,0.26,-0.26,-0.22,-0.34,5.72,5.72,5.72
160.03,5.93,0.23,5.93,0.23,-0.23,-0.18,-0.30,5.70,5.70,5.70
161.63,5.88,0.20,5.88,0.20,-0.20,-0.13,-0.25,5.68,5.68,5.68
163.24,5.83,0.17,5.83,0.17,-0.16,-0.09,-0.21,5.67,5.67,5.67
164.88,5.78,0.13,5.78,0.13,-0.13,-0.04,-0.16,5.65,5.65,5.65
166.53,5.73,0.09,5.73,0.09,-0.09,0.00,-0.11,5.64,5.64,5.63
168.19,5.67,0.05,5.67,0.05,-0.05,0.05,-0.07,5.62,5.62,5.62
169.87,5.61,0.01,5.61,0.01,-0.01,0.09,-0.02,5.60,5.60,5.60
171.57,5.55,-0.04,5.55,-0.04,0.03,0.13,0.03,5.58,5.58,5.58
173.29,5.48,-0.08,5.48,-0.08,0.08,0.18,0.07,5.56,5.56,5.56
175.02,5.42,-0.12,5.42,-0.12,0.12,0.22,0.12,5.54,5.54,5.54
176.77,5.36,-0.17,5.36,-0.17,0.17,0.26,0.17,5.52,5.52,5.52
178.54,5.29,-0.21,5.29,-0.21,0.21,0.30,0.22,5.50,5.50,5.51
180.32,5.23,-0.25,5.23,-0.25,0.26,0.34,0.27,5.49,5.49,5.49
182.13,5.17,-0.30,5.17,-0.30,0.30,0.38,0.31,5.47,5.47,5.47
183.95,5.11,-0.34,5.11,-0.34,0.34,0.42,0.36,5.45,5.45,5.45
185.79,5.04,-0.39,5.04,-0.39,0.39,0.46,0.41,5.43,5.43,5.43
187.65,4.98,-0.44,4.98,-0.44,0.44,0.50,0.46,5.41,5.41,5.41
189.52,4.91,-0.48,4.91,-0.48,0.48,0.54,0.51,5.40,5.40,5.40
191.42,4.85,-0.53,4.85,-0.53,0.53,0.57,0.55,5.38,5.38,5.38
193.33,4.78,-0.57,4.78,-0.57,0.58,0.61,0.60,5.36,5.36,5.36
195.27,4.71,-0.62,4.71,-0.62,0.62,0.65,0.65,5.34,5.34,5.33
197.22,4.65,-0.67,4.65,-0.67,0.67,0.68,0.70,5.31,5.31,5.31
199.19,4.58,-0.72,4.58,-0.71,0.71,0.72,0.75,5.29,5.29,5.29
201.18,4.51,-0.76,4.51,-0.76,0.76,0.75,0.80,5.27,5.27,5.27
203.19,4.45,-0.80,4.45,-0.80,0.80,0.79,0.85,5.25,5.25,5.25
205.23,4.38,-0.85,4.38,-0.85,0.85,0.82,0.89,5.23,5.23,5.23
207.28,4.32,-0.89,4.32,-0.89,0.89,0.85,0.94,5.21,5.21,5.21
209.35,4.25,-0.94,4.25,-0.94,0.94,0.89,0.99,5.19,5.19,5.19
211.44,4.18,-0.98,4.18,-0.98,0.99,0.92,1.04,5.17,5.17,5.16
213.56,4.11,-1.03,4.11,-1.03,1.04,0.95,1.08,5.15,5.15,5.14
215.69,4.04,-1.08,4.04,-1.08,1.09,0.98,1.13,5.13,5.13,5.12
217.85,3.96,-1.14,3.96,-1.14,1.14,1.01,1.17,5.10,5.10,5.10
220.03,3.89,-1.19,3.89,-1.19,1.20,1.04,1.21,5.08,5.08,5.08
222.23,3.81,-1.24,3.81,-1.24,1.25,1.07,1.26,5.06,5.06,5.05
224.45,3.74,-1.29,3.74,-1.29,1.29,1.10,1.30,5.03,5.03,5.03
226.70,3.67,-1.34,3.67,-1.33,1.33,1.13,1.34,5.00,5.00,5.00
228.96,3.61,-1.37,3.61,-1.37,1.35,1.16,1.38,4.97,4.97,4.98
231.25,3.57,-1.39,3.57,-1.39,1.37,1.19,1.41,4.94,4.94,4.96
233.57,3.54,-1.39,3.54,-1.39,1.37,1.22,1.45,4.91,4.91,4.93
235.90,3.53,-1.38,3.53,-1.37,1.36,1.24,1.48,4.89,4.89,4.91
238.26,3.54,-1.35,3.53,-1.35,1.34,1.27,1.51,4.88,4.88,4.88
240.64,3.54,-1.32,3.54,-1.32,1.32,1.30,1.54,4.86,4.86,4.86
243.05,3.55,-1.29,3.55,-1.29,1.30,1.33,1.56,4.85,4.85,4.84
245.48,3.54,-1.27,3.54,-1.27,1.28,1.35,1.59,4.83,4.83,4.81
247.93,3.53,-1.26,3.53,-1.26,1.27,1.38,1.61,4.80,4.80,4.79
250.41,3.51,-1.26,3.50,-1.26,1.27,1.40,1.63,4.77,4.77,4.76
252.92,3.47,-1.27,3.47,-1.27,1.27,1.43,1.64,4.74,4.74,4.73
255.45,3.42,-1.29,3.42,-1.29,1.29,1.45,1.66,4.71,4.71,4.71
258.00,3.37,-1.31,3.37,-1.32,1.31,1.48,1.67,4.68,4.68,4.68
260.58,3.31,-1.35,3.31,-1.35,1.34,1.50,1.68,4.65,4.65,4.66
263.19,3.25,-1.38,3.25,-1.38,1.38,1.53,1.69,4.62,4.63,4.63
265.82,3.18,-1.42,3.18,-1.42,1.41,1.55,1.70,4.60,4.60,4.60
268.48,3.12,-1.46,3.12,-1.45,1.45,1.57,1.70,4.57,4.57,4.57
271.16,3.05,-1.49,3.05,-1.49,1.49,1.60,1.70,4.54,4.54,4.55
273.87,2.99,-1.53,2.99,-1.53,1.53,1.62,1.71,4.52,4.52,4.52
276.61,2.93,-1.56,2.93,-1.56,1.56,1.64,1.71,4.49,4.49,4.49
279.38,2.86,-1.60,2.86,-1.60,1.60,1.66,1.71,4.46,4.46,4.46
282.17,2.80,-1.63,2.80,-1.63,1.63,1.68,1.70,4.43,4.43,4.43
284.99,2.74,-1.66,2.74,-1.66,1.66,1.70,1.70,4.40,4.40,4.40
287.84,2.68,-1.70,2.68,-1.70,1.69,1.73,1.70,4.37,4.37,4.37
290.72,2.62,-1.73,2.62,-1.73,1.73,1.75,1.70,4.34,4.34,4.34
293.63,2.56,-1.76,2.56,-1.76,1.76,1.77,1.69,4.31,4.31,4.31
296.57,2.50,-1.79,2.50,-1.79,1.79,1.79,1.69,4.28,4.28,4.28
299.53,2.44,-1.82,2.44,-1.82,1.82,1.81,1.68,4.25,4.25,4.25
302.53,2.38,-1.84,2.38,-1.84,1.84,1.83,1.68,4.22,4.22,4.22
305.55,2.32,-1.87,2.32,-1.87,1.87,1.84,1.68,4.19,4.19,4.19
308.61,2.26,-1.90,2.26,-1.90,1.90,1.86,1.67,4.16,4.16,4.16
311.69,2.20,-1.93,2.20,-1.93,1.93,1.88,1.67,4.13,4.13,4.13
314.81,2.14,-1.95,2.14,-1.95,1.95,1.90,1.67,4.10,4.10,4.10
317.96,2.09,-1.98,2.09,-1.98,1.98,1.92,1.67,4.06,4.06,4.06
321.14,2.03,-2.00,2.03,-2.00,2.00,1.94,1.67,4.03,4.03,4.03
324.35,1.97,-2.03,1.97,-2.03,2.03,1.95,1.67,4.00,4.00,4.00
327.59,1.92,-2.05,1.92,-2.05,2.05,1.97,1.67,3.97,3.97,3.97
330.87,1.86,-2.08,1.86,-2.08,2.08,1.99,1.68,3.94,3.94,3.94
334.18,1.81,-2.10,1.81,-2.10,2.10,2.00,1.68,3.90,3.90,3.90
337.52,1.75,-2.12,1.75,-2.12,2.12,2.02,1.69,3.87,3.87,3.87
340.90,1.70,-2.14,1.70,-2.14,2.14,2.03,1.69,3.84,3.84,3.84
344.30,1.64,-2.16,1.64,-2.16,2.16,2.05,1.70,3.81,3.81,3.81
347.75,1.59,-2.19,1.59,-2.19,2.19,2.07,1.71,3.78,3.78,3.78
351.23,1.54,-2.21,1.54,-2.21,2.21,2.08,1.72,3.75,3.75,3.75
354.74,1.49,-2.23,1.49,-2.23,2.23,2.10,1.73,3.72,3.72,3.72
358.28,1.44,-2.25,1.44,-2.25,2.25,2.11,1.75,3.68,3.68,3.68
361.87,1.38,-2.27,1.38,-2.27,2.27,2.12,1.76,3.65,3.65,3.65
365.49,1.33,-2.29,1.33,-2.29,2.29,2.14,1.78,3.62,3.62,3.62
369.14,1.28,-2.31,1.28,-2.31,2.31,2.15,1.80,3.59,3.59,3.59
372.83,1.23,-2.33,1.23,-2.33,2.33,2.16,1.82,3.55,3.55,3.55
376.56,1.18,-2.34,1.18,-2.34,2.34,2.18,1.84,3.52,3.52,3.52
380.33,1.13,-2.36,1.13,-2.36,2.36,2.19,1.86,3.49,3.49,3.49
384.13,1.08,-2.37,1.08,-2.37,2.37,2.20,1.88,3.45,3.45,3.45
387.97,1.03,-2.39,1.03,-2.39,2.39,2.21,1.91,3.41,3.41,3.41
391.85,0.98,-2.40,0.98,-2.40,2.40,2.23,1.93,3.38,3.38,3.38
395.77,0.93,-2.41,0.93,-2.41,2.41,2.24,1.96,3.34,3.34,3.34
399.73,0.88,-2.42,0.88,-2.42,2.42,2.25,1.98,3.30,3.30,3.30
403.72,0.83,-2.43,0.83,-2.43,2.43,2.26,2.01,3.26,3.26,3.26
407.76,0.79,-2.44,0.79,-2.44,2.44,2.27,2.04,3.22,3.22,3.22
411.84,0.74,-2.44,0.74,-2.44,2.44,2.28,2.07,3.18,3.18,3.18
415.96,0.69,-2.45,0.69,-2.45,2.45,2.29,2.10,3.14,3.14,3.14
420.12,0.65,-2.46,0.65,-2.46,2.46,2.30,2.13,3.10,3.10,3.10
424.32,0.60,-2.46,0.60,-2.46,2.46,2.31,2.16,3.06,3.06,3.06
428.56,0.56,-2.46,0.56,-2.46,2.46,2.32,2.19,3.02,3.02,3.02
432.85,0.51,-2.47,0.51,-2.47,2.47,2.33,2.22,2.98,2.98,2.98
437.18,0.47,-2.47,0.47,-2.47,2.47,2.34,2.25,2.94,2.94,2.94
441.55,0.42,-2.47,0.42,-2.47,2.47,2.35,2.27,2.89,2.89,2.89
445.96,0.38,-2.47,0.38,-2.47,2.47,2.36,2.30,2.85,2.85,2.85
450.42,0.34,-2.47,0.34,-2.47,2.47,2.36,2.33,2.81,2.81,2.81
454.93,0.29,-2.47,0.29,-2.47,2.47,2.37,2.35,2.77,2.77,2.77
459.48,0.25,-2.47,0.25,-2.47,2.47,2.38,2.38,2.72,2.72,2.72
464.07,0.21,-2.47,0.21,-2.47,2.47,2.39,2.40,2.68,2.68,2.68
468.71,0.17,-2.47,0.17,-2.47,2.47,2.39,2.42,2.63,2.63,2.64
473.40,0.13,-2.46,0.13,-2.46,2.46,2.40,2.44,2.59,2.59,2.59
478.13,0.09,-2.46,0.09,-2.46,2.46,2.41,2.45,2.55,2.55,2.55
482.91,0.05,-2.45,0.05,-2.45,2.45,2.41,2.47,2.50,2.50,2.50
487.74,0.01,-2.45,0.01,-2.45,2.45,2.42,2.48,2.46,2.46,2.46
492.62,-0.03,-2.44,-0.03,-2.44,2.44,2.42,2.49,2.41,2.41,2.41
497.55,-0.07,-2.43,-0.07,-2.43,2.43,2.43,2.50,2.36,2.36,2.36
502.52,-0.10,-2.42,-0.10,-2.42,2.42,2.43,2.50,2.32,2.32,2.32
507.55,-0.14,-2.41,-0.14,-2.41,2.41,2.44,2.50,2.27,2.27,2.27
512.62,-0.17,-2.40,-0.17,-2.40,2.40,2.44,2.50,2.22,2.22,2.22
517.75,-0.21,-2.39,-0.21,-2.39,2.39,2.45,2.50,2.18,2.18,2.18
522.93,-0.24,-2.37,-0.24,-2.37,2.37,2.45,2.50,2.13,2.13,2.13
528.16,-0.28,-2.36,-0.28,-2.36,2.36,2.46,2.49,2.08,2.08,2.08
533.44,-0.31,-2.35,-0.31,-2.35,2.35,2.46,2.48,2.04,2.04,2.04
538.77,-0.34,-2.33,-0.34,-2.33,2.33,2.46,2.47,1.99,1.99,1.99
