frequency,raw,error,smoothed,error_smoothed,equalization,parametric_eq,fixed_band_eq,equalized_raw,equalized_smoothed,target
20.00,10.98,2.35,10.98,2.36,-2.36,-2.27,-0.98,8.62,8.62,8.63
20.20,11.01,2.38,11.01,2.36,-2.36,-2.29,-1.01,8.64,8.64,8.63
20.40,11.03,2.37,11.03,2.37,-2.36,-2.30,-1.04,8.67,8.67,8.66
20.61,11.06,2.34,11.06,2.36,-2.36,-2.31,-1.07,8.70,8.70,8.73
20.81,11.09,2.37,11.09,2.35,-2.36,-2.32,-1.10,8.73,8.73,8.73
21.02,11.12,2.36,11.12,2.34,-2.36,-2.32,-1.14,8.77,8.77,8.77
21.23,11.15,2.32,11.15,2.35,-2.35,-2.32,-1.17,8.80,8.80,8.83
21.44,11.18,2.35,11.18,2.34,-2.34,-2.31,-1.21,8.84,8.84,8.83
21.66,11.20,2.35,11.20,2.33,-2.32,-2.30,-1.24,8.88,8.88,8.85
21.87,11.22,2.30,11.22,2.33,-2.31,-2.29,-1.28,8.92,8.91,8.92
22.09,11.24,2.31,11.24,2.30,-2.29,-2.28,-1.32,8.95,8.95,8.93
22.31,11.25,2.28,11.25,2.27,-2.27,-2.27,-1.36,8.97,8.97,8.96
22.54,11.26,2.23,11.26,2.25,-2.26,-2.26,-1.39,8.99,8.99,9.03
22.76,11.26,2.23,11.26,2.23,-2.25,-2.24,-1.44,9.01,9.01,9.03
22.99,11.26,2.23,11.26,2.22,-2.25,-2.22,-1.48,9.01,9.01,9.03
23.22,11.26,2.23,11.26,2.23,-2.24,-2.20,-1.52,9.01,9.01,9.03
23.45,11.25,2.22,11.25,2.25,-2.24,-2.19,-1.56,9.01,9.01,9.03
23.69,11.25,2.28,11.25,2.26,-2.24,-2.17,-1.61,9.00,9.00,8.96
23.92,11.24,2.28,11.24,2.26,-2.24,-2.15,-1.65,9.00,9.00,8.96
24.16,11.24,2.22,11.24,2.24,-2.24,-2.13,-1.70,9.00,9.00,9.02
24.40,11.24,2.21,11.24,2.22,-2.23,-2.12,-1.75,9.01,9.01,9.03
24.65,11.24,2.21,11.24,2.21,-2.21,-2.10,-1.79,9.03,9.03,9.03
24.89,11.25,2.22,11.25,2.20,-2.19,-2.08,-1.84,9.06,9.06,9.03
25.14,11.26,2.18,11.26,2.17,-2.16,-2.07,-1.89,9.10,9.10,9.09
25.39,11.28,2.12,11.28,2.13,-2.14,-2.06,-1.94,9.14,9.14,9.16
25.65,11.30,2.07,11.30,2.10,-2.11,-2.04,-1.99,9.19,9.19,9.23
25.91,11.32,2.09,11.32,2.07,-2.09,-2.03,-2.03,9.23,9.23,9.23
26.16,11.34,2.07,11.34,2.06,-2.06,-2.02,-2.08,9.28,9.28,9.27
26.43,11.36,2.03,11.36,2.06,-2.03,-2.01,-2.13,9.33,9.32,9.33
26.69,11.37,2.04,11.37,2.02,-2.01,-2.00,-2.18,9.36,9.36,9.33
26.96,11.38,2.01,11.38,2.00,-2.00,-1.99,-2.23,9.38,9.38,9.37
27.23,11.38,1.96,11.38,1.98,-2.00,-1.98,-2.27,9.39,9.39,9.43
27.50,11.39,1.96,11.39,1.96,-2.00,-1.98,-2.32,9.39,9.39,9.43
27.77,11.39,1.97,11.39,1.97,-2.00,-1.97,-2.36,9.39,9.39,9.43
28.05,11.40,1.99,11.40,2.01,-2.01,-1.97,-2.40,9.39,9.39,9.41
28.33,11.41,2.07,11.41,2.03,-2.02,-1.96,-2.44,9.39,9.39,9.34
28.62,11.42,2.04,11.42,2.04,-2.02,-1.96,-2.48,9.40,9.40,9.38
28.90,11.43,2.00,11.43,2.03,-2.00,-1.96,-2.51,9.43,9.43,9.43
29.19,11.44,2.01,11.44,1.99,-1.97,-1.95,-2.55,9.47,9.47,9.43
29.48,11.45,1.95,11.45,1.95,-1.92,-1.95,-2.57,9.53,9.53,9.50
29.78,11.46,1.89,11.46,1.89,-1.85,-1.95,-2.60,9.60,9.60,9.57
30.08,11.46,1.81,11.46,1.79,-1.78,-1.95,-2.62,9.68,9.68,9.66
30.38,11.47,1.69,11.47,1.69,-1.71,-1.95,-2.64,9.76,9.76,9.78
30.68,11.47,1.60,11.47,1.61,-1.64,-1.96,-2.66,9.82,9.82,9.87
30.99,11.46,1.54,11.46,1.55,-1.59,-1.96,-2.67,9.87,9.87,9.93
31.30,11.46,1.53,11.46,1.52,-1.56,-1.96,-2.68,9.90,9.90,9.93
31.61,11.44,1.52,11.44,1.52,-1.54,-1.96,-2.69,9.91,9.91,9.93
31.93,11.43,1.53,11.43,1.54,-1.54,-1.97,-2.69,9.89,9.89,9.90
32.24,11.42,1.58,11.42,1.56,-1.56,-1.97,-2.69,9.86,9.86,9.84
32.57,11.41,1.58,11.41,1.59,-1.58,-1.98,-2.69,9.83,9.83,9.83
32.89,11.40,1.60,11.40,1.62,-1.60,-1.98,-2.68,9.80,9.80,9.80
33.22,11.40,1.67,11.40,1.64,-1.62,-1.99,-2.67,9.78,9.78,9.73
33.55,11.39,1.66,11.39,1.66,-1.63,-1.99,-2.66,9.77,9.77,9.73
33.89,11.38,1.66,11.38,1.66,-1.63,-2.00,-2.64,9.76,9.75,9.73
34.23,11.37,1.65,11.37,1.65,-1.63,-2.00,-2.62,9.74,9.74,9.73
34.57,11.36,1.64,11.36,1.63,-1.65,-2.01,-2.60,9.72,9.72,9.73
34.92,11.35,1.63,11.35,1.62,-1.67,-2.01,-2.58,9.68,9.68,9.73
35.27,11.35,1.63,11.35,1.65,-1.71,-2.02,-2.56,9.64,9.64,9.71
35.62,11.34,1.70,11.34,1.72,-1.76,-2.03,-2.53,9.59,9.59,9.64
35.97,11.34,1.82,11.34,1.81,-1.82,-2.03,-2.51,9.52,9.52,9.52
36.33,11.34,1.93,11.34,1.91,-1.89,-2.04,-2.48,9.45,9.45,9.40
36.70,11.34,1.99,11.34,2.00,-1.96,-2.04,-2.45,9.38,9.38,9.34
37.06,11.34,2.06,11.33,2.06,-2.04,-2.05,-2.42,9.30,9.30,9.27
37.43,11.33,2.13,11.33,2.12,-2.11,-2.06,-2.39,9.22,9.22,9.20
37.81,11.32,2.18,11.32,2.18,-2.18,-2.06,-2.37,9.14,9.14,9.14
38.19,11.30,2.23,11.30,2.23,-2.23,-2.07,-2.34,9.07,9.07,9.07
38.57,11.28,2.28,11.28,2.28,-2.29,-2.07,-2.31,8.99,8.99,9.00
38.95,11.26,2.33,11.26,2.33,-2.34,-2.08,-2.28,8.92,8.92,8.93
39.34,11.24,2.38,11.24,2.38,-2.40,-2.09,-2.26,8.84,8.84,8.86
39.74,11.23,2.44,11.23,2.44,-2.47,-2.09,-2.23,8.76,8.76,8.79
40.14,11.21,2.49,11.22,2.50,-2.53,-2.10,-2.21,8.69,8.69,8.72
40.54,11.21,2.55,11.21,2.56,-2.57,-2.10,-2.18,8.64,8.64,8.65
40.94,11.20,2.61,11.20,2.61,-2.59,-2.11,-2.16,8.61,8.60,8.59
41.35,11.19,2.66,11.19,2.65,-2.59,-2.11,-2.14,8.60,8.60,8.53
41.76,11.17,2.64,11.17,2.64,-2.56,-2.12,-2.12,8.62,8.62,8.53
42.18,11.15,2.58,11.15,2.57,-2.50,-2.12,-2.10,8.65,8.65,8.57
42.60,11.14,2.47,11.14,2.46,-2.43,-2.12,-2.09,8.71,8.71,8.66
43.03,11.12,2.31,11.11,2.33,-2.35,-2.13,-2.07,8.76,8.76,8.80
43.46,11.09,2.21,11.09,2.22,-2.28,-2.13,-2.06,8.81,8.81,8.89
43.90,11.07,2.15,11.07,2.15,-2.23,-2.13,-2.05,8.84,8.85,8.93
44.33,11.06,2.13,11.06,2.12,-2.20,-2.14,-2.04,8.86,8.86,8.93
44.78,11.05,2.12,11.05,2.14,-2.19,-2.14,-2.03,8.86,8.86,8.93
45.23,11.04,2.18,11.04,2.20,-2.21,-2.14,-2.02,8.83,8.83,8.86
45.68,11.03,2.30,11.03,2.28,-2.24,-2.14,-2.01,8.79,8.79,8.73
46.13,11.01,2.36,11.01,2.34,-2.28,-2.14,-2.01,8.74,8.73,8.65
46.60,10.99,2.36,10.99,2.36,-2.31,-2.14,-2.01,8.67,8.67,8.63
47.06,10.96,2.34,10.96,2.37,-2.34,-2.14,-2.01,8.62,8.62,8.62
47.53,10.92,2.37,10.92,2.36,-2.35,-2.14,-2.01,8.57,8.57,8.55
48.01,10.88,2.36,10.88,2.34,-2.36,-2.14,-2.01,8.53,8.53,8.53
48.49,10.84,2.32,10.84,2.32,-2.34,-2.14,-2.01,8.50,8.50,8.53
48.97,10.81,2.28,10.81,2.31,-2.33,-2.14,-2.02,8.48,8.48,8.53
49.46,10.78,2.31,10.79,2.30,-2.30,-2.14,-2.02,8.48,8.48,8.48
49.96,10.77,2.32,10.77,2.29,-2.28,-2.14,-2.03,8.49,8.50,8.45
50.46,10.77,2.25,10.77,2.27,-2.25,-2.13,-2.04,8.52,8.52,8.52
50.96,10.76,2.24,10.76,2.24,-2.23,-2.13,-2.05,8.53,8.53,8.53
51.47,10.74,2.21,10.74,2.20,-2.21,-2.13,-2.05,8.54,8.53,8.53
51.99,10.70,2.18,10.70,2.17,-2.18,-2.12,-2.06,8.52,8.52,8.53
52.51,10.66,2.13,10.66,2.15,-2.16,-2.12,-2.08,8.50,8.50,8.53
53.03,10.61,2.12,10.62,2.13,-2.15,-2.12,-2.09,8.47,8.47,8.49
53.56,10.58,2.15,10.58,2.12,-2.13,-2.11,-2.10,8.44,8.44,8.43
54.10,10.54,2.11,10.54,2.13,-2.12,-2.11,-2.11,8.41,8.41,8.43
54.64,10.50,2.12,10.50,2.13,-2.11,-2.10,-2.12,8.39,8.38,8.38
55.18,10.46,2.14,10.46,2.12,-2.11,-2.09,-2.13,8.36,8.36,8.33
55.74,10.43,2.11,10.43,2.11,-2.10,-2.09,-2.14,8.34,8.34,8.33
56.29,10.41,2.08,10.41,2.08,-2.08,-2.08,-2.15,8.32,8.32,8.33
56.86,10.38,2.06,10.38,2.06,-2.06,-2.07,-2.16,8.32,8.32,8.33
57.42,10.36,2.03,10.36,2.03,-2.04,-2.06,-2.16,8.32,8.32,8.33
58.00,10.33,2.01,10.33,2.00,-2.00,-2.06,-2.17,8.33,8.33,8.33
58.58,10.30,1.97,10.30,1.98,-1.96,-2.05,-2.17,8.34,8.34,8.33
59.16,10.27,1.94,10.27,1.95,-1.92,-2.04,-2.18,8.35,8.35,8.33
59.76,10.24,1.91,10.24,1.90,-1.87,-2.03,-2.18,8.36,8.36,8.33
60.35,10.21,1.86,10.21,1.84,-1.84,-2.02,-2.18,8.37,8.37,8.36
60.96,10.18,1.76,10.19,1.78,-1.81,-2.01,-2.18,8.37,8.37,8.42
61.57,10.16,1.73,10.16,1.74,-1.80,-2.00,-2.17,8.36,8.36,8.43
62.18,10.13,1.74,10.13,1.74,-1.79,-1.99,-2.17,8.34,8.34,8.38
62.80,10.09,1.78,10.09,1.77,-1.78,-1.98,-2.16,8.31,8.31,8.32
63.43,10.06,1.80,10.06,1.81,-1.78,-1.97,-2.15,8.28,8.28,8.25
64.07,10.02,1.83,10.02,1.84,-1.79,-1.96,-2.14,8.23,8.24,8.19
64.71,9.99,1.86,9.99,1.84,-1.80,-1.95,-2.12,8.19,8.19,8.13
65.35,9.95,1.83,9.95,1.82,-1.81,-1.93,-2.11,8.14,8.14,8.13
66.01,9.92,1.79,9.92,1.80,-1.83,-1.92,-2.09,8.09,8.09,8.13
66.67,9.88,1.77,9.88,1.79,-1.84,-1.91,-2.07,8.04,8.04,8.11
67.33,9.84,1.81,9.84,1.80,-1.85,-1.90,-2.05,7.99,7.99,8.03
68.01,9.80,1.84,9.80,1.84,-1.85,-1.88,-2.02,7.95,7.95,7.97
68.69,9.76,1.87,9.76,1.87,-1.84,-1.87,-2.00,7.92,7.92,7.90
69.37,9.73,1.90,9.73,1.88,-1.82,-1.86,-1.97,7.90,7.90,7.83
70.07,9.69,1.86,9.69,1.86,-1.79,-1.84,-1.95,7.90,7.90,7.83
70.77,9.65,1.79,9.65,1.79,-1.75,-1.83,-1.92,7.90,7.90,7.86
71.48,9.61,1.69,9.61,1.69,-1.69,-1.82,-1.89,7.92,7.92,7.92
72.19,9.57,1.58,9.57,1.59,-1.62,-1.80,-1.86,7.95,7.95,8.00
72.91,9.53,1.50,9.53,1.51,-1.55,-1.79,-1.83,7.98,7.98,8.03
73.64,9.48,1.45,9.48,1.44,-1.47,-1.77,-1.80,8.00,8.00,8.03
74.38,9.43,1.40,9.43,1.40,-1.40,-1.76,-1.77,8.02,8.02,8.03
75.12,9.38,1.35,9.38,1.35,-1.34,-1.74,-1.74,8.04,8.04,8.03
75.87,9.34,1.31,9.34,1.31,-1.29,-1.73,-1.71,8.04,8.04,8.03
76.63,9.29,1.26,9.29,1.26,-1.25,-1.72,-1.68,8.04,8.04,8.03
77.40,9.25,1.22,9.25,1.22,-1.20,-1.70,-1.66,8.04,8.04,8.03
78.17,9.20,1.18,9.20,1.18,-1.16,-1.69,-1.63,8.04,8.04,8.03
78.95,9.16,1.13,9.16,1.15,-1.13,-1.67,-1.60,8.03,8.03,8.03
79.74,9.11,1.15,9.11,1.13,-1.12,-1.66,-1.57,7.99,7.99,7.97
80.54,9.07,1.14,9.07,1.11,-1.13,-1.64,-1.55,7.93,7.93,7.93
81.35,9.02,1.09,9.02,1.13,-1.18,-1.63,-1.52,7.84,7.84,7.93
82.16,8.97,1.17,8.97,1.18,-1.26,-1.61,-1.49,7.71,7.71,7.80
82.98,8.92,1.29,8.92,1.29,-1.37,-1.60,-1.47,7.56,7.55,7.63
83.81,8.87,1.45,8.87,1.44,-1.48,-1.58,-1.45,7.39,7.39,7.42
84.65,8.82,1.61,8.82,1.62,-1.60,-1.57,-1.42,7.22,7.22,7.21
85.50,8.78,1.78,8.78,1.78,-1.71,-1.55,-1.40,7.07,7.07,7.00
86.35,8.73,1.92,8.74,1.89,-1.80,-1.54,-1.38,6.94,6.94,6.82
87.22,8.70,1.95,8.70,1.95,-1.85,-1.52,-1.36,6.84,6.84,6.75
88.09,8.66,1.93,8.66,1.93,-1.87,-1.51,-1.34,6.79,6.79,6.73
88.97,8.62,1.87,8.62,1.86,-1.85,-1.49,-1.33,6.76,6.76,6.75
89.86,8.58,1.76,8.58,1.78,-1.81,-1.48,-1.31,6.77,6.77,6.82
90.76,8.53,1.70,8.53,1.71,-1.74,-1.47,-1.29,6.79,6.79,6.83
91.66,8.48,1.65,8.48,1.64,-1.67,-1.45,-1.28,6.81,6.81,6.83
92.58,8.42,1.59,8.42,1.59,-1.61,-1.44,-1.27,6.81,6.81,6.83
93.51,8.36,1.53,8.36,1.54,-1.57,-1.42,-1.25,6.79,6.79,6.83
94.44,8.31,1.51,8.31,1.52,-1.55,-1.41,-1.24,6.76,6.76,6.80
95.39,8.25,1.52,8.25,1.52,-1.54,-1.40,-1.23,6.71,6.71,6.73
96.34,8.20,1.54,8.20,1.54,-1.54,-1.38,-1.22,6.66,6.66,6.66
97.30,8.16,1.57,8.16,1.57,-1.55,-1.37,-1.21,6.61,6.61,6.59
98.28,8.12,1.59,8.12,1.60,-1.57,-1.35,-1.21,6.54,6.54,6.52
99.26,8.07,1.62,8.07,1.60,-1.60,-1.34,-1.20,6.47,6.47,6.45
100.25,8.02,1.60,8.02,1.59,-1.62,-1.33,-1.19,6.41,6.40,6.43
101.25,7.97,1.56,7.96,1.59,-1.62,-1.32,-1.19,6.34,6.34,6.40
102.27,7.90,1.60,7.90,1.61,-1.61,-1.30,-1.18,6.29,6.29,6.30
103.29,7.84,1.64,7.84,1.63,-1.58,-1.29,-1.18,6.26,6.26,6.20
104.32,7.77,1.63,7.77,1.60,-1.52,-1.28,-1.17,6.25,6.25,6.14
105.37,7.71,1.52,7.71,1.51,-1.46,-1.27,-1.17,6.25,6.25,6.20
106.42,7.65,1.38,7.65,1.40,-1.39,-1.25,-1.17,6.27,6.27,6.27
107.48,7.60,1.27,7.60,1.29,-1.31,-1.24,-1.16,6.28,6.28,6.33
108.56,7.54,1.21,7.54,1.21,-1.24,-1.23,-1.16,6.29,6.29,6.33
109.64,7.48,1.16,7.48,1.13,-1.19,-1.22,-1.16,6.29,6.29,6.33
110.74,7.43,1.10,7.43,1.10,-1.16,-1.21,-1.16,6.27,6.27,6.33
111.85,7.37,1.04,7.37,1.10,-1.15,-1.20,-1.15,6.22,6.22,6.33
112.97,7.31,1.17,7.31,1.15,-1.16,-1.19,-1.15,6.15,6.15,6.13
114.10,7.25,1.23,7.25,1.21,-1.19,-1.17,-1.15,6.06,6.06,6.02
115.24,7.19,1.27,7.19,1.27,-1.22,-1.16,-1.15,5.97,5.97,5.92
116.39,7.13,1.28,7.13,1.29,-1.25,-1.15,-1.15,5.88,5.88,5.86
117.55,7.08,1.31,7.08,1.31,-1.29,-1.14,-1.14,5.78,5.79,5.77
118.73,7.02,1.33,7.02,1.33,-1.33,-1.13,-1.14,5.69,5.69,5.69
119.92,6.97,1.34,6.97,1.34,-1.37,-1.12,-1.14,5.60,5.60,5.63
121.12,6.92,1.35,6.92,1.34,-1.40,-1.12,-1.13,5.52,5.52,5.57
122.33,6.86,1.35,6.86,1.36,-1.40,-1.11,-1.13,5.46,5.46,5.51
123.55,6.80,1.35,6.80,1.40,-1.38,-1.10,-1.12,5.41,5.41,5.45
124.79,6.73,1.46,6.73,1.43,-1.34,-1.09,-1.12,5.39,5.39,5.27
126.03,6.66,1.44,6.66,1.42,-1.28,-1.08,-1.11,5.38,5.39,5.23
127.29,6.60,1.34,6.60,1.33,-1.21,-1.07,-1.10,5.39,5.39,5.26
128.57,6.54,1.15,6.54,1.14,-1.14,-1.06,-1.10,5.40,5.40,5.38
129.85,6.48,0.97,6.48,0.98,-1.08,-1.06,-1.09,5.40,5.40,5.51
131.15,6.43,0.81,6.43,0.88,-1.03,-1.05,-1.08,5.40,5.40,5.61
132.46,6.37,0.89,6.37,0.88,-1.01,-1.04,-1.07,5.37,5.37,5.48
133.79,6.32,0.97,6.32,0.95,-1.01,-1.03,-1.07,5.31,5.31,5.35
135.12,6.26,1.05,6.26,1.05,-1.05,-1.03,-1.06,5.22,5.22,5.21
136.48,6.21,1.13,6.21,1.13,-1.10,-1.02,-1.05,5.11,5.11,5.08
137.84,6.15,1.20,6.15,1.21,-1.15,-1.01,-1.04,4.99,5.00,4.94
139.22,6.08,1.27,6.08,1.26,-1.18,-1.01,-1.03,4.91,4.91,4.82
140.61,6.02,1.28,6.02,1.28,-1.17,-1.00,-1.02,4.85,4.85,4.75
142.02,5.96,1.23,5.96,1.21,-1.13,-1.00,-1.01,4.82,4.82,4.73
143.44,5.89,1.12,5.89,1.09,-1.07,-0.99,-1.00,4.82,4.82,4.77
144.87,5.83,0.91,5.83,0.96,-1.00,-0.99,-0.99,4.82,4.83,4.91
146.32,5.77,0.84,5.77,0.84,-0.93,-0.98,-0.98,4.84,4.84,4.93
147.78,5.71,0.78,5.71,0.77,-0.86,-0.97,-0.97,4.85,4.85,4.93
149.26,5.65,0.74,5.65,0.76,-0.80,-0.97,-0.96,4.85,4.85,4.91
150.75,5.60,0.76,5.60,0.76,-0.75,-0.97,-0.95,4.85,4.85,4.84
152.26,5.55,0.77,5.55,0.77,-0.72,-0.96,-0.94,4.83,4.83,4.78
153.78,5.51,0.77,5.51,0.76,-0.71,-0.96,-0.93,4.80,4.80,4.73
155.32,5.46,0.74,5.46,0.73,-0.71,-0.95,-0.92,4.76,4.76,4.73
156.88,5.42,0.69,5.41,0.70,-0.70,-0.95,-0.91,4.71,4.71,4.73
158.44,5.36,0.66,5.36,0.68,-0.70,-0.94,-0.90,4.66,4.66,4.70
160.03,5.31,0.69,5.31,0.67,-0.70,-0.94,-0.90,4.61,4.61,4.63
161.63,5.26,0.69,5.26,0.69,-0.70,-0.94,-0.89,4.56,4.56,4.57
163.24,5.22,0.70,5.22,0.71,-0.70,-0.93,-0.88,4.51,4.51,4.51
164.88,5.17,0.74,5.17,0.73,-0.70,-0.93,-0.88,4.47,4.47,4.43
166.53,5.12,0.75,5.12,0.75,-0.71,-0.93,-0.87,4.41,4.41,4.38
168.19,5.07,0.75,5.07,0.76,-0.73,-0.92,-0.87,4.34,4.34,4.32
169.87,5.02,0.78,5.02,0.75,-0.76,-0.92,-0.86,4.25,4.25,4.23
171.57,4.96,0.73,4.96,0.75,-0.80,-0.92,-0.86,4.16,4.16,4.23
173.29,4.91,0.77,4.91,0.78,-0.84,-0.91,-0.86,4.06,4.06,4.14
175.02,4.85,0.83,4.85,0.84,-0.89,-0.91,-0.86,3.96,3.96,4.02
176.77,4.80,0.95,4.80,0.93,-0.94,-0.91,-0.86,3.86,3.86,3.85
178.54,4.74,1.02,4.74,1.02,-0.97,-0.90,-0.85,3.77,3.77,3.72
180.32,4.69,1.07,4.69,1.07,-0.99,-0.90,-0.85,3.69,3.69,3.62
182.13,4.63,1.07,4.63,1.07,-1.00,-0.90,-0.86,3.62,3.62,3.56
183.95,4.56,1.04,4.56,1.04,-0.99,-0.89,-0.86,3.57,3.57,3.53
185.79,4.50,0.98,4.50,0.98,-0.97,-0.89,-0.86,3.54,3.54,3.53
187.65,4.44,0.92,4.44,0.91,-0.93,-0.89,-0.86,3.51,3.51,3.53
189.52,4.38,0.85,4.38,0.85,-0.90,-0.88,-0.86,3.48,3.48,3.53
191.42,4.32,0.81,4.32,0.82,-0.88,-0.88,-0.87,3.44,3.44,3.51
193.33,4.26,0.81,4.26,0.81,-0.88,-0.88,-0.87,3.39,3.39,3.45
195.27,4.20,0.84,4.20,0.84,-0.88,-0.87,-0.88,3.32,3.32,3.36
197.22,4.14,0.89,4.14,0.90,-0.90,-0.87,-0.88,3.23,3.23,3.25
199.19,4.07,0.96,4.07,0.96,-0.92,-0.87,-0.89,3.15,3.15,3.11
201.18,4.01,1.03,4.01,1.01,-0.95,-0.86,-0.89,3.06,3.07,2.98
203.19,3.95,1.02,3.95,1.01,-0.96,-0.86,-0.90,2.99,2.99,2.93
205.23,3.89,0.97,3.89,0.97,-0.96,-0.85,-0.91,2.94,2.94,2.93
207.28,3.84,0.91,3.84,0.93,-0.94,-0.85,-0.91,2.90,2.90,2.93
209.35,3.78,0.90,3.78,0.90,-0.91,-0.85,-0.92,2.87,2.87,2.88
211.44,3.72,0.90,3.72,0.87,-0.87,-0.84,-0.93,2.85,2.85,2.83
213.56,3.67,0.84,3.67,0.83,-0.83,-0.84,-0.93,2.83,2.83,2.83
215.69,3.61,0.78,3.61,0.79,-0.80,-0.83,-0.94,2.81,2.81,2.83
217.85,3.55,0.75,3.55,0.76,-0.78,-0.83,-0.95,2.77,2.77,2.80
220.03,3.49,0.76,3.49,0.75,-0.78,-0.82,-0.95,2.71,2.71,2.73
222.23,3.43,0.76,3.43,0.75,-0.78,-0.82,-0.96,2.64,2.64,2.67
224.45,3.36,0.75,3.36,0.76,-0.79,-0.81,-0.97,2.57,2.57,2.61
226.70,3.30,0.77,3.30,0.79,-0.79,-0.80,-0.97,2.51,2.51,2.54
228.96,3.24,0.85,3.24,0.84,-0.80,-0.80,-0.98,2.45,2.45,2.40
231.25,3.18,0.89,3.18,0.87,-0.80,-0.79,-0.98,2.38,2.38,2.30
233.57,3.12,0.89,3.12,0.85,-0.80,-0.79,-0.98,2.32,2.32,2.24
235.90,3.06,0.77,3.06,0.80,-0.80,-0.78,-0.99,2.27,2.27,2.29
238.26,3.00,0.72,3.00,0.74,-0.79,-0.77,-0.99,2.21,2.21,2.28
240.64,2.94,0.73,2.94,0.72,-0.79,-0.77,-0.99,2.16,2.16,2.21
243.05,2.88,0.73,2.88,0.76,-0.78,-0.76,-0.99,2.10,2.10,2.15
245.48,2.82,0.80,2.82,0.79,-0.77,-0.75,-0.99,2.05,2.05,2.03
247.93,2.76,0.84,2.76,0.80,-0.77,-0.74,-0.99,1.99,1.99,1.93
250.41,2.71,0.78,2.71,0.80,-0.78,-0.74,-0.98,1.93,1.93,1.93
252.92,2.65,0.77,2.65,0.79,-0.79,-0.73,-0.98,1.87,1.86,1.88
255.45,2.60,0.78,2.60,0.78,-0.79,-0.72,-0.97,1.81,1.81,1.81
258.00,2.54,0.81,2.54,0.78,-0.78,-0.71,-0.97,1.76,1.76,1.73
260.58,2.49,0.76,2.49,0.78,-0.77,-0.70,-0.96,1.72,1.72,1.73
263.19,2.44,0.74,2.44,0.76,-0.75,-0.70,-0.95,1.68,1.69,1.70
265.82,2.38,0.75,2.38,0.73,-0.73,-0.69,-0.94,1.65,1.65,1.63
268.48,2.33,0.71,2.33,0.72,-0.71,-0.68,-0.93,1.62,1.62,1.63
271.16,2.28,0.69,2.28,0.70,-0.70,-0.67,-0.92,1.59,1.59,1.60
273.87,2.23,0.70,2.23,0.68,-0.68,-0.66,-0.91,1.55,1.55,1.53
276.61,2.18,0.66,2.18,0.66,-0.68,-0.65,-0.90,1.51,1.51,1.53
279.38,2.13,0.64,2.13,0.66,-0.68,-0.64,-0.89,1.45,1.45,1.49
282.17,2.08,0.66,2.08,0.65,-0.68,-0.64,-0.87,1.40,1.40,1.42
284.99,2.03,0.68,2.03,0.67,-0.68,-0.63,-0.86,1.35,1.35,1.35
287.84,1.98,0.70,1.98,0.70,-0.68,-0.62,-0.85,1.30,1.30,1.28
290.72,1.92,0.71,1.92,0.72,-0.67,-0.61,-0.83,1.25,1.25,1.21
293.63,1.87,0.73,1.87,0.71,-0.67,-0.60,-0.82,1.20,1.20,1.14
296.57,1.81,0.68,1.81,0.67,-0.67,-0.59,-0.80,1.15,1.15,1.13
299.53,1.76,0.63,1.76,0.63,-0.67,-0.58,-0.79,1.09,1.09,1.13
302.53,1.70,0.57,1.70,0.62,-0.68,-0.57,-0.77,1.02,1.02,1.13
305.55,1.65,0.65,1.65,0.63,-0.69,-0.56,-0.76,0.96,0.96,1.00
308.61,1.59,0.70,1.59,0.67,-0.69,-0.56,-0.75,0.90,0.90,0.89
311.69,1.54,0.71,1.54,0.72,-0.70,-0.55,-0.73,0.84,0.84,0.83
314.81,1.49,0.73,1.49,0.75,-0.69,-0.54,-0.72,0.79,0.79,0.76
317.96,1.44,0.75,1.44,0.75,-0.68,-0.53,-0.70,0.76,0.76,0.69
321.14,1.39,0.76,1.39,0.72,-0.66,-0.52,-0.69,0.73,0.73,0.63
324.35,1.35,0.64,1.35,0.66,-0.64,-0.51,-0.68,0.71,0.71,0.71
327.59,1.30,0.57,1.30,0.58,-0.61,-0.50,-0.66,0.69,0.69,0.73
330.87,1.26,0.53,1.26,0.52,-0.59,-0.49,-0.65,0.67,0.67,0.73
334.18,1.22,0.49,1.22,0.50,-0.57,-0.49,-0.64,0.64,0.64,0.73
337.52,1.17,0.50,1.17,0.51,-0.56,-0.48,-0.63,0.61,0.61,0.68
340.90,1.13,0.54,1.13,0.55,-0.55,-0.47,-0.62,0.57,0.57,0.59
344.30,1.08,0.63,1.08,0.62,-0.56,-0.46,-0.61,0.52,0.52,0.45
347.75,1.04,0.67,1.04,0.64,-0.57,-0.45,-0.59,0.47,0.47,0.37
351.23,0.99,0.64,0.99,0.61,-0.58,-0.45,-0.58,0.41,0.41,0.35
354.74,0.94,0.52,0.94,0.57,-0.58,-0.44,-0.58,0.36,0.36,0.42
358.28,0.89,0.53,0.89,0.55,-0.57,-0.43,-0.57,0.32,0.32,0.36
361.87,0.85,0.56,0.85,0.54,-0.55,-0.42,-0.56,0.29,0.29,0.29
365.49,0.80,0.57,0.80,0.55,-0.53,-0.41,-0.55,0.27,0.27,0.23
369.14,0.75,0.52,0.75,0.52,-0.51,-0.41,-0.54,0.24,0.24,0.23
372.83,0.71,0.48,0.71,0.48,-0.50,-0.40,-0.53,0.21,0.21,0.23
376.56,0.66,0.44,0.66,0.46,-0.50,-0.39,-0.53,0.16,0.16,0.22
380.33,0.61,0.46,0.61,0.46,-0.50,-0.38,-0.52,0.11,0.11,0.15
384.13,0.57,0.48,0.57,0.48,-0.50,-0.38,-0.51,0.07,0.07,0.08
387.97,0.52,0.51,0.52,0.51,-0.49,-0.37,-0.51,0.03,0.03,0.01
391.85,0.48,0.53,0.48,0.52,-0.48,-0.36,-0.50,-0.00,-0.00,-0.05
395.77,0.44,0.51,0.44,0.51,-0.47,-0.36,-0.50,-0.03,-0.03,-0.07
399.73,0.39,0.46,0.39,0.47,-0.45,-0.35,-0.49,-0.06,-0.06,-0.07
403.72,0.35,0.42,0.35,0.42,-0.42,-0.34,-0.49,-0.07,-0.07,-0.07
407.76,0.31,0.38,0.31,0.38,-0.39,-0.34,-0.48,-0.09,-0.09,-0.07
411.84,0.26,0.34,0.26,0.33,-0.35,-0.33,-0.48,-0.09,-0.09,-0.07
415.96,0.22,0.29,0.22,0.29,-0.31,-0.32,-0.48,-0.09,-0.09,-0.07
420.12,0.18,0.25,0.18,0.27,-0.28,-0.32,-0.47,-0.10,-0.10,-0.07
424.32,0.14,0.25,0.14,0.26,-0.25,-0.31,-0.47,-0.11,-0.11,-0.11
428.56,0.10,0.27,0.10,0.25,-0.23,-0.31,-0.46,-0.13,-0.13,-0.17
432.85,0.06,0.23,0.06,0.22,-0.22,-0.30,-0.46,-0.16,-0.16,-0.17
437.18,0.02,0.19,0.02,0.20,-0.21,-0.29,-0.46,-0.20,-0.20,-0.17
441.55,-0.02,0.16,-0.02,0.18,-0.21,-0.29,-0.46,-0.23,-0.23,-0.18
445.96,-0.06,0.19,-0.06,0.19,-0.20,-0.28,-0.45,-0.26,-0.26,-0.26
450.42,-0.10,0.22,-0.10,0.22,-0.19,-0.28,-0.45,-0.29,-0.29,-0.32
454.93,-0.14,0.24,-0.14,0.22,-0.18,-0.27,-0.45,-0.32,-0.32,-0.37
459.48,-0.17,0.20,-0.17,0.20,-0.19,-0.27,-0.44,-0.36,-0.36,-0.37
464.07,-0.21,0.17,-0.21,0.17,-0.20,-0.26,-0.44,-0.40,-0.40,-0.37
468.71,-0.24,0.15,-0.24,0.17,-0.21,-0.26,-0.44,-0.45,-0.45,-0.40
473.40,-0.28,0.19,-0.28,0.18,-0.22,-0.25,-0.43,-0.50,-0.50,-0.46
478.13,-0.31,0.22,-0.31,0.22,-0.23,-0.25,-0.43,-0.54,-0.54,-0.53
482.91,-0.35,0.25,-0.35,0.26,-0.23,-0.24,-0.42,-0.58,-0.58,-0.60
487.74,-0.38,0.29,-0.38,0.27,-0.23,-0.24,-0.42,-0.61,-0.61,-0.67
492.62,-0.41,0.26,-0.41,0.26,-0.23,-0.23,-0.42,-0.64,-0.64,-0.67
497.55,-0.44,0.23,-0.44,0.24,-0.22,-0.23,-0.41,-0.66,-0.66,-0.67
502.52,-0.47,0.20,-0.47,0.20,-0.21,-0.23,-0.40,-0.68,-0.68,-0.67
507.55,-0.50,0.17,-0.50,0.17,-0.19,-0.22,-0.40,-0.69,-0.69,-0.67
512.62,-0.53,0.14,-0.53,0.13,-0.17,-0.22,-0.39,-0.70,-0.70,-0.67
517.75,-0.56,0.11,-0.56,0.11,-0.15,-0.21,-0.39,-0.71,-0.71,-0.67
