frequency,raw,error,smoothed,error_smoothed,equalization,parametric_eq,fixed_band_eq,equalized_raw,equalized_smoothed,target
20.00,2.38,-4.29,2.38,-4.30,4.33,3.79,1.61,6.71,6.71,6.67
20.20,2.41,-4.27,2.41,-4.27,4.27,3.88,1.66,6.67,6.67,6.67
20.40,2.44,-4.24,2.44,-4.23,4.21,3.97,1.71,6.64,6.64,6.67
20.61,2.47,-4.20,2.47,-4.18,4.15,4.05,1.76,6.62,6.62,6.67
20.81,2.50,-4.10,2.50,-4.11,4.10,4.12,1.81,6.60,6.60,6.60
21.02,2.54,-4.03,2.54,-4.04,4.05,4.17,1.86,6.59,6.59,6.57
21.23,2.58,-3.99,2.58,-3.99,4.01,4.21,1.92,6.59,6.59,6.57
21.44,2.62,-3.96,2.62,-3.95,3.97,4.21,1.98,6.58,6.58,6.57
21.66,2.65,-3.93,2.65,-3.92,3.93,4.20,2.03,6.58,6.58,6.57
21.87,2.68,-3.90,2.68,-3.90,3.90,4.14,2.09,6.58,6.58,6.57
22.09,2.70,-3.87,2.70,-3.87,3.88,4.09,2.15,6.58,6.58,6.57
22.31,2.72,-3.86,2.72,-3.86,3.86,4.01,2.22,6.58,6.58,6.57
22.54,2.73,-3.84,2.73,-3.84,3.84,3.93,2.28,6.57,6.57,6.57
22.76,2.75,-3.83,2.75,-3.83,3.81,3.84,2.35,6.56,6.56,6.57
22.99,2.76,-3.81,2.76,-3.81,3.78,3.75,2.42,6.54,6.54,6.57
23.22,2.78,-3.79,2.78,-3.77,3.75,3.66,2.49,6.53,6.53,6.57
23.45,2.79,-3.70,2.79,-3.72,3.72,3.58,2.56,6.51,6.51,6.49
23.69,2.82,-3.66,2.82,-3.67,3.68,3.51,2.63,6.50,6.50,6.47
23.92,2.84,-3.63,2.84,-3.63,3.65,3.44,2.70,6.49,6.49,6.47
24.16,2.87,-3.61,2.87,-3.60,3.62,3.38,2.78,6.48,6.48,6.47
24.40,2.89,-3.58,2.89,-3.58,3.59,3.33,2.85,6.48,6.48,6.47
24.65,2.92,-3.55,2.92,-3.55,3.56,3.28,2.93,6.48,6.48,6.47
24.89,2.94,-3.53,2.94,-3.53,3.53,3.23,3.01,6.47,6.47,6.47
25.14,2.97,-3.51,2.97,-3.51,3.49,3.20,3.09,6.46,6.46,6.47
25.39,2.99,-3.49,2.99,-3.48,3.46,3.16,3.17,6.45,6.45,6.47
25.65,3.01,-3.45,3.01,-3.44,3.42,3.13,3.25,6.43,6.43,6.46
25.91,3.03,-3.37,3.03,-3.38,3.39,3.10,3.33,6.42,6.42,6.40
26.16,3.05,-3.32,3.05,-3.33,3.35,3.07,3.41,6.40,6.40,6.37
26.43,3.08,-3.30,3.08,-3.29,3.31,3.05,3.49,6.39,6.39,6.37
26.69,3.10,-3.27,3.10,-3.27,3.28,3.03,3.56,6.38,6.38,6.37
26.96,3.13,-3.24,3.13,-3.24,3.24,3.01,3.64,6.37,6.37,6.37
27.23,3.16,-3.22,3.15,-3.22,3.22,2.99,3.71,6.37,6.37,6.37
27.50,3.18,-3.20,3.18,-3.20,3.19,2.98,3.79,6.37,6.37,6.37
27.77,3.20,-3.17,3.20,-3.17,3.17,2.96,3.86,6.37,6.37,6.37
28.05,3.22,-3.15,3.22,-3.15,3.15,2.95,3.92,6.37,6.37,6.37
28.33,3.24,-3.13,3.24,-3.13,3.13,2.93,3.99,6.37,6.37,6.37
28.62,3.26,-3.11,3.26,-3.11,3.11,2.92,4.05,6.37,6.37,6.37
28.90,3.28,-3.09,3.28,-3.09,3.08,2.91,4.10,6.37,6.37,6.37
29.19,3.30,-3.07,3.30,-3.07,3.06,2.90,4.15,6.36,6.36,6.37
29.48,3.33,-3.05,3.33,-3.05,3.04,2.89,4.20,6.37,6.37,6.37
29.78,3.35,-3.03,3.35,-3.02,3.03,2.88,4.24,6.38,6.38,6.37
30.08,3.37,-3.00,3.37,-3.00,3.02,2.87,4.28,6.39,6.39,6.37
30.38,3.39,-2.98,3.39,-3.00,3.02,2.87,4.31,6.41,6.41,6.37
30.68,3.41,-3.01,3.41,-3.01,3.02,2.86,4.33,6.44,6.43,6.42
30.99,3.43,-3.04,3.43,-3.02,3.03,2.85,4.35,6.46,6.46,6.47
31.30,3.45,-3.03,3.45,-3.05,3.04,2.84,4.36,6.49,6.49,6.47
31.61,3.46,-3.06,3.46,-3.07,3.05,2.84,4.36,6.51,6.51,6.53
31.93,3.48,-3.09,3.48,-3.08,3.06,2.83,4.36,6.54,6.54,6.57
32.24,3.50,-3.08,3.50,-3.08,3.07,2.82,4.35,6.56,6.56,6.57
32.57,3.51,-3.06,3.51,-3.06,3.06,2.82,4.34,6.58,6.58,6.57
32.89,3.53,-3.04,3.53,-3.04,3.05,2.81,4.32,6.58,6.58,6.57
33.22,3.55,-3.02,3.55,-3.03,3.03,2.81,4.29,6.58,6.58,6.57
33.55,3.57,-3.01,3.57,-3.01,3.00,2.80,4.26,6.57,6.57,6.57
33.89,3.59,-2.99,3.59,-2.99,2.97,2.79,4.22,6.55,6.55,6.57
34.23,3.60,-2.97,3.60,-2.94,2.93,2.79,4.19,6.54,6.54,6.57
34.57,3.62,-2.88,3.62,-2.90,2.90,2.78,4.14,6.52,6.52,6.50
34.92,3.64,-2.84,3.64,-2.85,2.87,2.78,4.10,6.50,6.50,6.47
35.27,3.65,-2.82,3.65,-2.82,2.84,2.77,4.04,6.49,6.49,6.47
35.62,3.67,-2.81,3.67,-2.80,2.82,2.77,3.99,6.48,6.48,6.47
35.97,3.68,-2.79,3.68,-2.79,2.79,2.76,3.94,6.48,6.48,6.47
36.33,3.70,-2.78,3.70,-2.78,2.78,2.76,3.88,6.47,6.47,6.47
36.70,3.71,-2.76,3.71,-2.76,2.76,2.75,3.82,6.47,6.47,6.47
37.06,3.73,-2.75,3.73,-2.75,2.73,2.75,3.77,6.46,6.46,6.47
37.43,3.74,-2.73,3.74,-2.73,2.71,2.74,3.71,6.45,6.45,6.47
37.81,3.76,-2.72,3.76,-2.70,2.68,2.74,3.65,6.44,6.44,6.47
38.19,3.77,-2.65,3.77,-2.65,2.65,2.73,3.59,6.42,6.42,6.42
38.57,3.78,-2.59,3.78,-2.61,2.63,2.73,3.53,6.41,6.41,6.37
38.95,3.80,-2.58,3.80,-2.58,2.60,2.72,3.47,6.39,6.39,6.37
39.34,3.81,-2.57,3.81,-2.56,2.57,2.72,3.41,6.38,6.38,6.37
39.74,3.82,-2.55,3.82,-2.55,2.55,2.71,3.36,6.37,6.37,6.37
40.14,3.83,-2.54,3.83,-2.54,2.54,2.70,3.30,6.37,6.37,6.37
40.54,3.84,-2.53,3.84,-2.53,2.52,2.70,3.25,6.37,6.37,6.37
40.94,3.85,-2.52,3.86,-2.52,2.52,2.69,3.20,6.37,6.37,6.37
41.35,3.87,-2.51,3.87,-2.51,2.51,2.69,3.15,6.37,6.37,6.37
41.76,3.88,-2.50,3.88,-2.50,2.50,2.68,3.10,6.38,6.37,6.37
42.18,3.89,-2.49,3.89,-2.49,2.49,2.68,3.06,6.37,6.37,6.37
42.60,3.90,-2.47,3.90,-2.47,2.47,2.67,3.01,6.37,6.37,6.37
43.03,3.91,-2.46,3.91,-2.46,2.46,2.67,2.97,6.37,6.37,6.37
43.46,3.92,-2.45,3.92,-2.45,2.45,2.66,2.93,6.37,6.37,6.37
43.90,3.94,-2.44,3.94,-2.44,2.44,2.65,2.89,6.37,6.37,6.37
44.33,3.95,-2.42,3.95,-2.42,2.42,2.65,2.86,6.38,6.38,6.37
44.78,3.97,-2.41,3.97,-2.41,2.41,2.64,2.82,6.38,6.38,6.37
45.23,3.98,-2.40,3.98,-2.40,2.40,2.64,2.79,6.38,6.38,6.37
45.68,3.99,-2.39,3.99,-2.39,2.39,2.63,2.77,6.38,6.38,6.37
46.13,3.99,-2.38,3.99,-2.38,2.38,2.62,2.74,6.37,6.37,6.37
46.60,4.00,-2.38,4.00,-2.37,2.37,2.62,2.72,6.37,6.37,6.37
47.06,4.01,-2.37,4.01,-2.37,2.37,2.61,2.69,6.37,6.37,6.37
47.53,4.01,-2.36,4.01,-2.36,2.36,2.61,2.67,6.37,6.37,6.37
48.01,4.02,-2.35,4.02,-2.35,2.35,2.60,2.65,6.37,6.37,6.37
48.49,4.03,-2.34,4.03,-2.35,2.35,2.59,2.64,6.37,6.37,6.37
48.97,4.04,-2.34,4.04,-2.34,2.34,2.59,2.62,6.37,6.37,6.37
49.46,4.04,-2.33,4.04,-2.33,2.33,2.58,2.61,6.37,6.37,6.37
49.96,4.05,-2.32,4.05,-2.32,2.33,2.57,2.60,6.38,6.38,6.37
50.46,4.06,-2.32,4.06,-2.32,2.32,2.57,2.59,6.38,6.38,6.37
50.96,4.07,-2.31,4.07,-2.31,2.32,2.56,2.58,6.38,6.38,6.37
51.47,4.07,-2.30,4.07,-2.30,2.31,2.55,2.58,6.39,6.38,6.37
51.99,4.08,-2.29,4.08,-2.29,2.30,2.54,2.57,6.38,6.38,6.37
52.51,4.09,-2.29,4.09,-2.29,2.27,2.54,2.57,6.36,6.36,6.37
53.03,4.10,-2.28,4.09,-2.28,2.24,2.53,2.56,6.33,6.33,6.37
53.56,4.10,-2.27,4.10,-2.25,2.20,2.52,2.56,6.30,6.30,6.37
54.10,4.11,-2.19,4.11,-2.19,2.17,2.52,2.56,6.28,6.28,6.30
54.64,4.11,-2.12,4.11,-2.12,2.15,2.51,2.56,6.26,6.26,6.23
55.18,4.12,-2.06,4.12,-2.07,2.13,2.50,2.56,6.25,6.25,6.17
55.74,4.12,-2.05,4.12,-2.06,2.13,2.49,2.56,6.25,6.25,6.17
56.29,4.12,-2.10,4.12,-2.10,2.13,2.48,2.56,6.26,6.26,6.22
56.86,4.13,-2.17,4.13,-2.16,2.16,2.48,2.55,6.28,6.28,6.29
57.42,4.13,-2.23,4.13,-2.21,2.19,2.47,2.55,6.32,6.32,6.36
58.00,4.14,-2.24,4.14,-2.25,2.23,2.46,2.55,6.37,6.37,6.37
58.58,4.14,-2.26,4.14,-2.28,2.27,2.45,2.55,6.41,6.41,6.40
59.16,4.14,-2.33,4.14,-2.31,2.30,2.44,2.54,6.44,6.44,6.47
59.76,4.14,-2.33,4.14,-2.34,2.31,2.44,2.54,6.45,6.45,6.47
60.35,4.14,-2.33,4.14,-2.34,2.31,2.43,2.53,6.45,6.45,6.47
60.96,4.14,-2.33,4.14,-2.31,2.29,2.42,2.53,6.44,6.44,6.47
61.57,4.14,-2.26,4.14,-2.28,2.27,2.41,2.52,6.41,6.41,6.40
62.18,4.15,-2.23,4.15,-2.24,2.24,2.40,2.51,6.38,6.38,6.37
62.80,4.15,-2.22,4.15,-2.19,2.20,2.39,2.50,6.35,6.35,6.36
63.43,4.15,-2.15,4.15,-2.16,2.17,2.38,2.48,6.32,6.32,6.30
64.07,4.15,-2.12,4.15,-2.13,2.15,2.37,2.47,6.30,6.30,6.27
64.71,4.15,-2.12,4.15,-2.11,2.13,2.36,2.46,6.29,6.29,6.27
65.35,4.15,-2.12,4.15,-2.11,2.13,2.36,2.44,6.29,6.29,6.27
66.01,4.15,-2.12,4.15,-2.13,2.14,2.35,2.42,6.29,6.29,6.27
66.67,4.15,-2.14,4.15,-2.16,2.15,2.34,2.40,6.31,6.31,6.29
67.33,4.15,-2.21,4.15,-2.19,2.18,2.33,2.38,6.33,6.33,6.37
68.01,4.15,-2.22,4.15,-2.21,2.21,2.32,2.36,6.36,6.36,6.37
68.69,4.15,-2.23,4.15,-2.23,2.24,2.31,2.34,6.39,6.39,6.37
69.37,4.15,-2.23,4.15,-2.25,2.27,2.30,2.32,6.42,6.42,6.37
70.07,4.14,-2.30,4.14,-2.29,2.29,2.29,2.30,6.44,6.44,6.44
70.77,4.14,-2.33,4.14,-2.32,2.30,2.28,2.27,6.45,6.45,6.47
71.48,4.14,-2.33,4.14,-2.34,2.30,2.27,2.25,6.45,6.45,6.47
72.19,4.14,-2.33,4.14,-2.32,2.30,2.26,2.23,6.44,6.44,6.47
72.91,4.14,-2.29,4.14,-2.29,2.28,2.25,2.21,6.42,6.42,6.43
73.64,4.14,-2.24,4.14,-2.26,2.26,2.24,2.18,6.40,6.40,6.37
74.38,4.13,-2.24,4.13,-2.22,2.24,2.23,2.16,6.37,6.37,6.37
75.12,4.13,-2.20,4.13,-2.19,2.21,2.22,2.14,6.34,6.34,6.33
75.87,4.13,-2.15,4.13,-2.17,2.19,2.21,2.12,6.32,6.32,6.27
76.63,4.12,-2.15,4.12,-2.15,2.18,2.19,2.10,6.30,6.30,6.27
77.40,4.12,-2.16,4.12,-2.15,2.17,2.18,2.08,6.29,6.29,6.27
78.17,4.11,-2.16,4.11,-2.17,2.16,2.17,2.06,6.27,6.27,6.27
78.95,4.11,-2.17,4.11,-2.17,2.15,2.16,2.04,6.25,6.25,6.27
79.74,4.10,-2.17,4.10,-2.17,2.13,2.15,2.02,6.23,6.23,6.27
80.54,4.10,-2.15,4.10,-2.14,2.10,2.14,2.01,6.19,6.19,6.25
81.35,4.09,-2.09,4.09,-2.09,2.06,2.13,1.99,6.15,6.15,6.18
82.16,4.09,-2.03,4.09,-2.02,2.03,2.12,1.98,6.11,6.11,6.11
82.98,4.08,-1.96,4.08,-1.96,1.99,2.11,1.97,6.07,6.07,6.04
83.81,4.07,-1.90,4.07,-1.92,1.96,2.09,1.96,6.03,6.03,5.97
84.65,4.07,-1.91,4.07,-1.90,1.94,2.08,1.95,6.01,6.01,5.97
85.50,4.06,-1.92,4.06,-1.91,1.94,2.07,1.94,5.99,5.99,5.97
86.35,4.05,-1.93,4.05,-1.93,1.94,2.06,1.94,5.98,5.98,5.97
87.22,4.03,-1.94,4.03,-1.96,1.95,2.05,1.93,5.98,5.98,5.97
88.09,4.02,-2.00,4.02,-1.99,1.96,2.04,1.93,5.98,5.98,6.02
88.97,4.01,-2.04,4.01,-2.01,1.98,2.02,1.93,5.99,5.99,6.05
89.86,4.00,-1.98,4.00,-2.01,1.99,2.01,1.93,5.99,5.99,5.98
90.76,3.99,-1.98,3.99,-1.99,1.99,2.00,1.93,5.99,5.99,5.97
91.66,3.99,-1.98,3.99,-1.98,2.00,1.99,1.93,5.99,5.99,5.97
92.58,3.99,-1.99,3.99,-1.99,2.00,1.98,1.94,5.99,5.99,5.97
93.51,3.98,-1.99,3.98,-1.99,2.00,1.97,1.94,5.98,5.98,5.97
94.44,3.97,-2.00,3.97,-2.00,2.01,1.95,1.95,5.98,5.98,5.97
95.39,3.96,-2.01,3.96,-2.01,2.02,1.94,1.96,5.98,5.98,5.97
96.34,3.95,-2.02,3.95,-2.02,2.02,1.93,1.97,5.98,5.97,5.97
97.30,3.94,-2.04,3.94,-2.04,2.03,1.92,1.98,5.97,5.97,5.97
98.28,3.92,-2.05,3.92,-2.05,2.03,1.90,1.99,5.95,5.95,5.97
99.26,3.91,-2.07,3.91,-2.05,2.03,1.89,2.00,5.94,5.94,5.97
100.25,3.89,-2.03,3.89,-2.03,2.03,1.88,2.01,5.92,5.92,5.93
101.25,3.88,-1.99,3.88,-2.01,2.03,1.87,2.03,5.91,5.91,5.87
102.27,3.87,-2.00,3.87,-2.00,2.03,1.86,2.04,5.91,5.91,5.87
103.29,3.87,-2.01,3.87,-2.00,2.03,1.84,2.06,5.90,5.90,5.87
104.32,3.86,-2.02,3.86,-2.02,2.03,1.83,2.07,5.88,5.88,5.87
105.37,3.85,-2.03,3.85,-2.03,2.02,1.82,2.09,5.86,5.86,5.87
106.42,3.83,-2.04,3.83,-2.04,2.00,1.81,2.10,5.83,5.83,5.87
107.48,3.82,-2.03,3.82,-2.02,1.98,1.79,2.12,5.80,5.80,5.85
108.56,3.81,-1.99,3.81,-1.98,1.96,1.78,2.13,5.76,5.76,5.80
109.64,3.79,-1.92,3.79,-1.92,1.93,1.77,2.15,5.72,5.72,5.71
110.74,3.78,-1.86,3.78,-1.87,1.90,1.76,2.16,5.68,5.68,5.64
111.85,3.76,-1.82,3.76,-1.83,1.87,1.75,2.18,5.63,5.63,5.58
112.97,3.75,-1.83,3.75,-1.83,1.84,1.73,2.19,5.59,5.59,5.57
114.10,3.73,-1.84,3.73,-1.83,1.82,1.72,2.20,5.56,5.56,5.57
115.24,3.72,-1.85,3.72,-1.83,1.82,1.71,2.21,5.53,5.53,5.56
116.39,3.70,-1.80,3.70,-1.81,1.82,1.70,2.22,5.52,5.52,5.50
117.55,3.68,-1.79,3.68,-1.80,1.83,1.68,2.22,5.51,5.51,5.47
118.73,3.67,-1.81,3.67,-1.81,1.83,1.67,2.23,5.49,5.49,5.47
119.92,3.65,-1.83,3.65,-1.83,1.82,1.66,2.23,5.47,5.47,5.47
121.12,3.63,-1.84,3.63,-1.84,1.80,1.65,2.23,5.43,5.43,5.47
122.33,3.62,-1.84,3.62,-1.83,1.77,1.64,2.22,5.39,5.39,5.46
123.55,3.60,-1.79,3.60,-1.78,1.75,1.62,2.22,5.35,5.35,5.40
124.79,3.59,-1.71,3.59,-1.72,1.73,1.61,2.21,5.32,5.32,5.30
126.03,3.57,-1.65,3.57,-1.66,1.71,1.60,2.20,5.28,5.28,5.22
127.29,3.55,-1.62,3.55,-1.63,1.69,1.59,2.19,5.24,5.24,5.17
128.57,3.53,-1.64,3.53,-1.64,1.68,1.58,2.17,5.21,5.21,5.17
129.85,3.52,-1.66,3.52,-1.66,1.66,1.56,2.16,5.18,5.18,5.17
131.15,3.50,-1.68,3.50,-1.68,1.65,1.55,2.14,5.14,5.14,5.17
132.46,3.48,-1.70,3.48,-1.69,1.64,1.54,2.11,5.11,5.11,5.17
133.79,3.46,-1.68,3.46,-1.67,1.62,1.53,2.09,5.08,5.08,5.13
135.12,3.44,-1.63,3.44,-1.63,1.61,1.52,2.06,5.05,5.05,5.07
136.48,3.42,-1.58,3.42,-1.58,1.59,1.51,2.04,5.01,5.01,5.00
137.84,3.40,-1.53,3.40,-1.53,1.58,1.50,2.00,4.97,4.97,4.93
139.22,3.38,-1.50,3.38,-1.51,1.56,1.48,1.97,4.94,4.94,4.87
140.61,3.36,-1.52,3.36,-1.51,1.55,1.47,1.94,4.90,4.90,4.87
142.02,3.33,-1.54,3.33,-1.54,1.54,1.46,1.91,4.87,4.87,4.87
143.44,3.31,-1.56,3.31,-1.56,1.54,1.45,1.87,4.85,4.85,4.87
144.87,3.29,-1.59,3.29,-1.57,1.54,1.44,1.84,4.82,4.83,4.87
146.32,3.26,-1.55,3.26,-1.56,1.54,1.43,1.80,4.81,4.81,4.81
147.78,3.24,-1.53,3.24,-1.54,1.55,1.42,1.76,4.79,4.79,4.77
149.26,3.22,-1.55,3.22,-1.52,1.54,1.41,1.73,4.76,4.76,4.76
150.75,3.19,-1.50,3.19,-1.52,1.53,1.40,1.69,4.72,4.72,4.69
152.26,3.17,-1.51,3.17,-1.52,1.51,1.39,1.65,4.68,4.68,4.67
153.78,3.14,-1.53,3.14,-1.51,1.49,1.38,1.61,4.63,4.63,4.67
155.32,3.12,-1.49,3.12,-1.48,1.47,1.37,1.58,4.59,4.59,4.61
156.88,3.09,-1.44,3.09,-1.45,1.45,1.36,1.54,4.55,4.55,4.53
158.44,3.07,-1.41,3.07,-1.42,1.44,1.35,1.50,4.50,4.50,4.47
160.03,3.04,-1.43,3.04,-1.40,1.42,1.34,1.47,4.46,4.46,4.47
161.63,3.02,-1.40,3.02,-1.40,1.40,1.33,1.43,4.42,4.42,4.42
163.24,3.00,-1.37,3.00,-1.39,1.38,1.32,1.40,4.39,4.39,4.37
164.88,2.98,-1.39,2.98,-1.37,1.37,1.31,1.36,4.36,4.36,4.37
166.53,2.96,-1.36,2.96,-1.36,1.37,1.30,1.33,4.33,4.33,4.32
168.19,2.94,-1.33,2.94,-1.36,1.36,1.29,1.29,4.31,4.31,4.27
169.87,2.92,-1.36,2.92,-1.36,1.36,1.28,1.26,4.28,4.28,4.27
171.57,2.89,-1.38,2.89,-1.36,1.36,1.28,1.23,4.25,4.25,4.27
173.29,2.87,-1.36,2.87,-1.36,1.35,1.27,1.20,4.22,4.22,4.23
175.02,2.84,-1.33,2.84,-1.36,1.34,1.26,1.17,4.19,4.19,4.17
176.77,2.82,-1.36,2.82,-1.34,1.33,1.25,1.14,4.15,4.15,4.17
178.54,2.79,-1.33,2.79,-1.32,1.32,1.24,1.11,4.11,4.11,4.12
180.32,2.77,-1.30,2.77,-1.30,1.30,1.24,1.08,4.07,4.07,4.06
182.13,2.74,-1.26,2.74,-1.28,1.28,1.23,1.06,4.02,4.02,4.00
183.95,2.71,-1.26,2.71,-1.26,1.26,1.22,1.03,3.98,3.98,3.97
185.79,2.69,-1.26,2.69,-1.25,1.24,1.21,1.01,3.93,3.93,3.95
187.65,2.66,-1.23,2.66,-1.22,1.22,1.21,0.98,3.88,3.88,3.89
189.52,2.63,-1.19,2.63,-1.20,1.21,1.20,0.96,3.84,3.84,3.82
191.42,2.60,-1.17,2.60,-1.19,1.19,1.19,0.94,3.79,3.79,3.77
193.33,2.57,-1.20,2.57,-1.18,1.18,1.19,0.92,3.75,3.75,3.77
195.27,2.54,-1.17,2.54,-1.18,1.17,1.18,0.89,3.71,3.71,3.71
197.22,2.51,-1.16,2.51,-1.17,1.17,1.17,0.88,3.68,3.68,3.67
199.19,2.48,-1.18,2.48,-1.16,1.17,1.17,0.86,3.65,3.65,3.67
201.18,2.45,-1.15,2.45,-1.16,1.17,1.16,0.84,3.63,3.63,3.60
203.19,2.42,-1.15,2.42,-1.17,1.18,1.16,0.82,3.60,3.60,3.57
205.23,2.39,-1.18,2.39,-1.18,1.19,1.15,0.80,3.58,3.58,3.57
207.28,2.36,-1.21,2.36,-1.19,1.19,1.15,0.79,3.55,3.55,3.57
209.35,2.33,-1.20,2.33,-1.20,1.19,1.14,0.77,3.52,3.52,3.53
211.44,2.30,-1.18,2.30,-1.20,1.18,1.14,0.76,3.48,3.48,3.47
213.56,2.27,-1.21,2.27,-1.19,1.17,1.13,0.74,3.44,3.44,3.47
215.69,2.23,-1.18,2.23,-1.17,1.16,1.13,0.73,3.39,3.39,3.42
217.85,2.20,-1.14,2.20,-1.15,1.14,1.12,0.72,3.35,3.34,3.35
220.03,2.17,-1.10,2.17,-1.11,1.12,1.12,0.71,3.29,3.29,3.27
222.23,2.14,-1.08,2.14,-1.09,1.11,1.12,0.70,3.24,3.24,3.22
224.45,2.10,-1.07,2.10,-1.08,1.10,1.11,0.69,3.20,3.20,3.17
226.70,2.07,-1.11,2.07,-1.08,1.09,1.11,0.68,3.16,3.16,3.17
228.96,2.03,-1.07,2.03,-1.08,1.09,1.11,0.67,3.12,3.12,3.11
231.25,2.00,-1.07,2.00,-1.09,1.09,1.10,0.66,3.09,3.09,3.07
233.57,1.97,-1.11,1.97,-1.11,1.10,1.10,0.65,3.07,3.07,3.07
235.90,1.93,-1.14,1.93,-1.12,1.11,1.10,0.65,3.04,3.04,3.07
238.26,1.90,-1.13,1.90,-1.13,1.12,1.10,0.64,3.02,3.02,3.03
240.64,1.87,-1.11,1.87,-1.13,1.12,1.09,0.64,2.99,2.99,2.97
243.05,1.84,-1.14,1.84,-1.12,1.13,1.09,0.64,2.96,2.96,2.97
245.48,1.81,-1.12,1.81,-1.12,1.12,1.09,0.63,2.93,2.93,2.92
247.93,1.78,-1.10,1.78,-1.12,1.11,1.09,0.63,2.89,2.89,2.87
250.41,1.75,-1.13,1.75,-1.11,1.10,1.09,0.63,2.84,2.84,2.87
252.92,1.72,-1.11,1.72,-1.09,1.08,1.09,0.63,2.80,2.80,2.83
255.45,1.69,-1.07,1.69,-1.07,1.07,1.09,0.63,2.76,2.76,2.76
258.00,1.66,-1.02,1.66,-1.05,1.06,1.09,0.63,2.72,2.72,2.67
260.58,1.62,-1.05,1.62,-1.03,1.06,1.09,0.64,2.68,2.68,2.67
263.19,1.59,-1.05,1.59,-1.03,1.06,1.09,0.64,2.65,2.65,2.64
265.82,1.56,-1.02,1.56,-1.04,1.06,1.09,0.65,2.62,2.62,2.58
268.48,1.53,-1.05,1.53,-1.05,1.06,1.09,0.65,2.59,2.59,2.57
271.16,1.49,-1.08,1.49,-1.08,1.06,1.09,0.66,2.55,2.55,2.57
273.87,1.46,-1.12,1.46,-1.10,1.05,1.09,0.66,2.51,2.51,2.57
276.61,1.42,-1.08,1.42,-1.09,1.05,1.09,0.67,2.47,2.47,2.51
279.38,1.39,-1.05,1.39,-1.05,1.04,1.09,0.68,2.43,2.43,2.44
282.17,1.35,-1.02,1.35,-1.01,1.04,1.09,0.69,2.39,2.39,2.37
284.99,1.32,-0.98,1.32,-0.99,1.03,1.09,0.70,2.35,2.35,2.30
287.84,1.29,-0.99,1.29,-1.00,1.03,1.09,0.71,2.31,2.31,2.27
290.72,1.25,-1.02,1.25,-1.02,1.02,1.10,0.72,2.27,2.27,2.27
293.63,1.21,-1.06,1.21,-1.03,1.02,1.10,0.73,2.24,2.24,2.27
296.57,1.18,-1.03,1.18,-1.05,1.03,1.10,0.75,2.21,2.20,2.21
299.53,1.14,-1.04,1.14,-1.05,1.04,1.10,0.76,2.17,2.18,2.17
302.53,1.10,-1.07,1.10,-1.04,1.04,1.10,0.78,2.14,2.14,2.17
305.55,1.07,-1.04,1.07,-1.05,1.04,1.11,0.79,2.11,2.11,2.11
308.61,1.04,-1.04,1.04,-1.05,1.05,1.11,0.81,2.08,2.08,2.07
311.69,1.01,-1.07,1.01,-1.04,1.05,1.11,0.83,2.06,2.06,2.07
314.81,0.97,-1.03,0.97,-1.04,1.06,1.12,0.85,2.03,2.03,2.00
317.96,0.94,-1.03,0.94,-1.05,1.07,1.12,0.86,2.01,2.01,1.97
321.14,0.91,-1.07,0.91,-1.06,1.09,1.12,0.88,1.99,1.99,1.97
324.35,0.87,-1.10,0.87,-1.10,1.09,1.13,0.90,1.97,1.97,1.97
327.59,0.84,-1.13,0.84,-1.13,1.10,1.13,0.93,1.93,1.93,1.97
330.87,0.81,-1.15,0.81,-1.14,1.10,1.14,0.95,1.90,1.90,1.96
334.18,0.77,-1.12,0.77,-1.12,1.09,1.14,0.97,1.87,1.87,1.89
337.52,0.74,-1.09,0.74,-1.09,1.09,1.14,1.00,1.83,1.83,1.82
340.90,0.70,-1.05,0.70,-1.05,1.08,1.15,1.02,1.78,1.78,1.76
344.30,0.67,-1.02,0.67,-1.03,1.07,1.15,1.05,1.74,1.74,1.69
347.75,0.64,-1.04,0.64,-1.05,1.06,1.16,1.07,1.69,1.69,1.67
351.23,0.60,-1.07,0.60,-1.06,1.06,1.16,1.10,1.66,1.66,1.67
354.74,0.57,-1.10,0.57,-1.08,1.07,1.17,1.13,1.64,1.64,1.67
358.28,0.54,-1.07,0.54,-1.08,1.09,1.17,1.16,1.63,1.63,1.61
361.87,0.50,-1.07,0.50,-1.09,1.12,1.18,1.19,1.62,1.62,1.57
365.49,0.47,-1.11,0.47,-1.13,1.15,1.18,1.22,1.62,1.62,1.58
369.14,0.44,-1.21,0.44,-1.18,1.17,1.19,1.25,1.61,1.61,1.64
372.83,0.40,-1.23,0.40,-1.22,1.19,1.20,1.28,1.59,1.59,1.64
376.56,0.37,-1.20,0.37,-1.24,1.19,1.20,1.32,1.56,1.56,1.57
380.33,0.34,-1.24,0.34,-1.23,1.19,1.21,1.35,1.53,1.53,1.57
384.13,0.31,-1.23,0.31,-1.21,1.19,1.21,1.38,1.49,1.49,1.53
387.97,0.27,-1.18,0.27,-1.19,1.18,1.22,1.42,1.46,1.46,1.46
391.85,0.24,-1.15,0.24,-1.14,1.18,1.23,1.45,1.42,1.42,1.39
395.77,0.21,-1.11,0.21,-1.13,1.18,1.23,1.49,1.39,1.39,1.32
399.73,0.18,-1.12,0.18,-1.15,1.19,1.24,1.53,1.37,1.37,1.30
403.72,0.15,-1.22,0.15,-1.19,1.21,1.24,1.57,1.36,1.36,1.37
407.76,0.12,-1.26,0.12,-1.25,1.24,1.25,1.60,1.36,1.36,1.37
411.84,0.09,-1.29,0.09,-1.29,1.28,1.26,1.64,1.36,1.36,1.37
415.96,0.06,-1.32,0.06,-1.32,1.31,1.26,1.68,1.37,1.37,1.37
420.12,0.03,-1.35,0.03,-1.35,1.34,1.27,1.71,1.36,1.36,1.37
424.32,-0.00,-1.38,-0.00,-1.38,1.35,1.27,1.75,1.35,1.35,1.37
428.56,-0.03,-1.40,-0.03,-1.38,1.35,1.28,1.79,1.32,1.32,1.36
432.85,-0.06,-1.35,-0.06,-1.36,1.34,1.29,1.82,1.28,1.28,1.29
437.18,-0.09,-1.32,-0.09,-1.32,1.32,1.29,1.86,1.23,1.23,1.23
441.55,-0.12,-1.28,-0.12,-1.28,1.30,1.30,1.89,1.18,1.18,1.16
445.96,-0.15,-1.24,-0.15,-1.26,1.28,1.31,1.92,1.13,1.13,1.09
450.42,-0.18,-1.25,-0.18,-1.24,1.26,1.31,1.96,1.09,1.09,1.07
454.93,-0.20,-1.26,-0.20,-1.23,1.25,1.32,1.99,1.05,1.05,1.06
459.48,-0.23,-1.21,-0.23,-1.23,1.24,1.32,2.01,1.01,1.01,0.98
464.07,-0.26,-1.23,-0.26,-1.24,1.24,1.33,2.04,0.98,0.98,0.97
468.71,-0.28,-1.26,-0.28,-1.25,1.24,1.33,2.06,0.95,0.95,0.97
473.40,-0.31,-1.29,-0.31,-1.26,1.24,1.34,2.08,0.93,0.93,0.97
478.13,-0.34,-1.25,-0.34,-1.27,1.24,1.35,2.10,0.90,0.90,0.91
482.91,-0.37,-1.24,-0.36,-1.25,1.25,1.35,2.12,0.88,0.88,0.87
487.74,-0.39,-1.27,-0.39,-1.23,1.26,1.36,2.13,0.87,0.87,0.87
492.62,-0.42,-1.23,-0.42,-1.25,1.28,1.36,2.15,0.87,0.86,0.81
497.55,-0.44,-1.26,-0.44,-1.28,1.30,1.37,2.15,0.86,0.86,0.81
502.52,-0.47,-1.35,-0.47,-1.32,1.33,1.37,2.16,0.86,0.86,0.87
507.55,-0.50,-1.37,-0.50,-1.37,1.35,1.38,2.16,0.85,0.85,0.87
512.62,-0.52,-1.40,-0.52,-1.41,1.37,1.38,2.16,0.85,0.85,0.87
517.75,-0.55,-1.42,-0.55,-1.43,1.40,1.38,2.16,0.85,0.85,0.87
522.93,-0.58,-1.45,-0.58,-1.43,1.42,1.39,2.16,0.84,0.84,0.87
528.16,-0.60,-1.42,-0.60,-1.42,1.43,1.39,2.15,0.83,0.83,0.82
533.44,-0.63,-1.40,-0.63,-1.42,1.44,1.40,2.14,0.82,0.82,0.77
538.77,-0.65,-1.43,-0.65,-1.42,1.45,1.40,2.13,0.80,0.80,0.77
544.16,-0.68,-1.45,-0.68,-1.45,1.45,1.40,2.12,0.77,0.77,0.77
549.60,-0.70,-1.47,-0.70,-1.47,1.45,1.41,2.10,0.75,0.75,0.77
555.10,-0.72,-1.49,-0.72,-1.47,1.45,1.41,2.08,0.73,0.73,0.77
560.65,-0.74,-1.45,-0.74,-1.46,1.46,1.41,2.07,0.71,0.71,0.70
566.25,-0.77,-1.44,-0.77,-1.45,1.47,1.41,2.05,0.70,0.70,0.67
571.92,-0.79,-1.46,-0.79,-1.45,1.48,1.42,2.03,0.70,0.70,0.67
