frequency,raw,error,smoothed,error_smoothed,equalization,parametric_eq,fixed_band_eq,equalized_raw,equalized_smoothed,target
20.00,15.63,8.84,15.64,8.84,-9.25,-9.11,-3.17,6.39,6.40,6.80
20.20,15.73,8.94,15.73,8.94,-9.00,-8.96,-3.26,6.74,6.74,6.79
20.40,15.75,8.96,15.74,8.95,-8.77,-8.81,-3.35,6.98,6.97,6.79
20.61,15.69,8.89,15.67,8.87,-8.56,-8.62,-3.45,7.13,7.10,6.80
20.81,15.49,8.68,15.49,8.68,-8.38,-8.42,-3.55,7.11,7.11,6.81
21.02,15.25,8.42,15.24,8.42,-8.22,-8.26,-3.65,7.02,7.02,6.83
21.23,14.97,8.12,14.98,8.13,-8.09,-8.10,-3.75,6.88,6.89,6.85
21.44,14.73,7.86,14.74,7.87,-7.97,-8.00,-3.85,6.76,6.77,6.87
21.66,14.57,7.67,14.56,7.66,-7.81,-7.91,-3.96,6.75,6.75,6.90
21.87,14.45,7.53,14.48,7.56,-7.71,-7.86,-4.07,6.74,6.76,6.92
22.09,14.48,7.55,14.48,7.56,-7.67,-7.81,-4.19,6.80,6.81,6.93
22.31,14.57,7.64,14.56,7.63,-7.69,-7.78,-4.31,6.88,6.87,6.93
22.54,14.69,7.76,14.69,7.76,-7.74,-7.75,-4.43,6.95,6.95,6.93
22.76,14.82,7.89,14.81,7.89,-7.81,-7.73,-4.55,7.00,7.00,6.92
22.99,14.91,8.00,14.90,7.98,-7.88,-7.71,-4.68,7.03,7.02,6.92
23.22,14.95,8.03,14.94,8.02,-7.92,-7.69,-4.81,7.03,7.02,6.92
23.45,14.94,8.00,14.94,8.00,-7.93,-7.67,-4.94,7.01,7.01,6.93
23.69,14.89,7.94,14.89,7.93,-7.90,-7.64,-5.08,6.99,6.99,6.96
23.92,14.82,7.84,14.82,7.84,-7.85,-7.62,-5.21,6.97,6.97,6.99
24.16,14.75,7.74,14.75,7.74,-7.78,-7.60,-5.35,6.97,6.97,7.01
24.40,14.68,7.65,14.69,7.65,-7.71,-7.58,-5.50,6.98,6.98,7.03
24.65,14.63,7.58,14.63,7.59,-7.64,-7.55,-5.64,7.00,7.00,7.05
24.89,14.59,7.54,14.60,7.55,-7.57,-7.53,-5.79,7.02,7.02,7.05
25.14,14.57,7.52,14.57,7.52,-7.52,-7.50,-5.94,7.05,7.04,7.05
25.39,14.54,7.50,14.54,7.50,-7.48,-7.48,-6.09,7.06,7.06,7.04
25.65,14.51,7.47,14.51,7.47,-7.44,-7.45,-6.25,7.07,7.07,7.04
25.91,14.48,7.43,14.48,7.43,-7.40,-7.42,-6.40,7.08,7.07,7.05
26.16,14.44,7.38,14.44,7.38,-7.37,-7.39,-6.55,7.07,7.07,7.06
26.43,14.40,7.32,14.41,7.33,-7.33,-7.37,-6.71,7.07,7.07,7.08
26.69,14.37,7.28,14.37,7.28,-7.30,-7.34,-6.86,7.07,7.07,7.10
26.96,14.35,7.24,14.35,7.24,-7.27,-7.31,-7.01,7.08,7.08,7.11
27.23,14.33,7.22,14.33,7.22,-7.23,-7.28,-7.16,7.10,7.10,7.12
27.50,14.32,7.20,14.32,7.20,-7.20,-7.25,-7.30,7.12,7.12,7.12
27.77,14.31,7.19,14.31,7.19,-7.16,-7.22,-7.44,7.14,7.14,7.12
28.05,14.29,7.16,14.28,7.16,-7.13,-7.19,-7.58,7.16,7.16,7.12
28.33,14.25,7.11,14.25,7.11,-7.09,-7.16,-7.71,7.17,7.17,7.14
28.62,14.21,7.06,14.21,7.06,-7.04,-7.12,-7.83,7.17,7.17,7.15
28.90,14.17,7.00,14.17,7.00,-7.00,-7.09,-7.94,7.16,7.16,7.17
29.19,14.12,6.94,14.12,6.94,-6.97,-7.06,-8.05,7.16,7.15,7.18
29.48,14.08,6.90,14.09,6.90,-6.94,-7.03,-8.14,7.14,7.15,7.19
29.78,14.06,6.88,14.06,6.88,-6.92,-6.99,-8.23,7.15,7.15,7.18
30.08,14.05,6.88,14.06,6.88,-6.90,-6.96,-8.30,7.15,7.16,7.17
30.38,14.06,6.89,14.06,6.89,-6.89,-6.93,-8.36,7.17,7.17,7.17
30.68,14.07,6.90,14.07,6.90,-6.88,-6.89,-8.40,7.19,7.19,7.17
30.99,14.07,6.89,14.07,6.89,-6.87,-6.86,-8.44,7.21,7.21,7.18
31.30,14.06,6.87,14.06,6.87,-6.84,-6.83,-8.46,7.22,7.22,7.19
31.61,14.03,6.83,14.03,6.83,-6.81,-6.79,-8.46,7.22,7.22,7.20
31.93,13.98,6.77,13.97,6.77,-6.76,-6.76,-8.45,7.22,7.22,7.20
32.24,13.90,6.70,13.90,6.70,-6.69,-6.72,-8.43,7.21,7.21,7.20
32.57,13.82,6.63,13.82,6.62,-6.61,-6.69,-8.39,7.21,7.21,7.20
32.89,13.74,6.54,13.74,6.54,-6.53,-6.65,-8.35,7.20,7.20,7.20
33.22,13.66,6.45,13.65,6.45,-6.46,-6.62,-8.29,7.20,7.20,7.20
33.55,13.58,6.37,13.58,6.37,-6.39,-6.58,-8.22,7.19,7.19,7.21
33.89,13.52,6.31,13.52,6.31,-6.34,-6.54,-8.14,7.19,7.19,7.21
34.23,13.49,6.27,13.49,6.27,-6.30,-6.51,-8.05,7.19,7.19,7.22
34.57,13.47,6.24,13.47,6.25,-6.28,-6.47,-7.95,7.19,7.20,7.23
34.92,13.48,6.25,13.48,6.25,-6.27,-6.44,-7.85,7.21,7.22,7.23
35.27,13.50,6.27,13.50,6.27,-6.27,-6.40,-7.75,7.24,7.24,7.24
35.62,13.52,6.29,13.52,6.29,-6.27,-6.36,-7.63,7.25,7.25,7.23
35.97,13.53,6.31,13.53,6.30,-6.27,-6.33,-7.52,7.27,7.26,7.23
36.33,13.52,6.30,13.52,6.30,-6.27,-6.29,-7.40,7.25,7.25,7.22
36.70,13.49,6.28,13.49,6.28,-6.26,-6.26,-7.28,7.23,7.23,7.21
37.06,13.46,6.25,13.46,6.25,-6.25,-6.22,-7.16,7.21,7.21,7.21
37.43,13.41,6.21,13.42,6.21,-6.23,-6.18,-7.04,7.19,7.19,7.21
37.81,13.39,6.18,13.39,6.18,-6.20,-6.15,-6.92,7.18,7.18,7.21
38.19,13.36,6.16,13.36,6.16,-6.18,-6.11,-6.80,7.19,7.19,7.21
38.57,13.34,6.15,13.34,6.14,-6.15,-6.07,-6.68,7.20,7.20,7.20
38.95,13.32,6.13,13.32,6.13,-6.11,-6.04,-6.56,7.21,7.21,7.19
39.34,13.29,6.10,13.29,6.10,-6.08,-6.00,-6.45,7.21,7.21,7.19
39.74,13.25,6.06,13.25,6.06,-6.05,-5.96,-6.34,7.21,7.21,7.19
40.14,13.21,6.01,13.21,6.01,-6.01,-5.93,-6.23,7.20,7.20,7.20
40.54,13.16,5.96,13.16,5.96,-5.96,-5.89,-6.12,7.20,7.20,7.20
40.94,13.12,5.91,13.11,5.92,-5.92,-5.85,-6.02,7.20,7.20,7.20
41.35,13.07,5.87,13.06,5.87,-5.88,-5.82,-5.92,7.19,7.19,7.20
41.76,13.01,5.83,13.01,5.83,-5.84,-5.78,-5.83,7.18,7.18,7.19
42.18,12.97,5.79,12.97,5.79,-5.80,-5.74,-5.74,7.17,7.17,7.18
42.60,12.93,5.75,12.94,5.76,-5.78,-5.71,-5.65,7.16,7.16,7.18
43.03,12.92,5.73,12.92,5.74,-5.75,-5.67,-5.57,7.17,7.17,7.19
43.46,12.91,5.72,12.91,5.72,-5.72,-5.63,-5.49,7.19,7.19,7.19
43.90,12.90,5.71,12.89,5.71,-5.69,-5.60,-5.42,7.21,7.20,7.19
44.33,12.87,5.69,12.86,5.69,-5.65,-5.56,-5.34,7.22,7.21,7.18
44.78,12.81,5.65,12.81,5.64,-5.61,-5.52,-5.28,7.20,7.20,7.17
45.23,12.74,5.58,12.74,5.58,-5.57,-5.49,-5.21,7.18,7.18,7.16
45.68,12.67,5.51,12.67,5.51,-5.52,-5.45,-5.16,7.15,7.15,7.16
46.13,12.59,5.44,12.60,5.44,-5.47,-5.41,-5.10,7.12,7.12,7.16
46.60,12.54,5.39,12.54,5.39,-5.43,-5.38,-5.05,7.11,7.11,7.15
47.06,12.50,5.36,12.50,5.36,-5.38,-5.34,-5.00,7.12,7.12,7.14
47.53,12.46,5.34,12.46,5.34,-5.33,-5.30,-4.96,7.13,7.13,7.13
48.01,12.43,5.31,12.43,5.31,-5.29,-5.27,-4.92,7.14,7.14,7.12
48.49,12.39,5.27,12.39,5.27,-5.25,-5.23,-4.88,7.15,7.14,7.12
48.97,12.35,5.22,12.35,5.22,-5.21,-5.19,-4.85,7.14,7.14,7.12
49.46,12.29,5.17,12.29,5.17,-5.17,-5.16,-4.82,7.13,7.13,7.12
49.96,12.23,5.11,12.24,5.12,-5.12,-5.12,-4.79,7.11,7.11,7.12
50.46,12.18,5.07,12.18,5.07,-5.08,-5.08,-4.76,7.10,7.10,7.11
50.96,12.14,5.03,12.14,5.03,-5.04,-5.04,-4.74,7.10,7.10,7.11
51.47,12.10,4.99,12.10,5.00,-5.00,-5.01,-4.72,7.09,7.09,7.10
51.99,12.06,4.97,12.06,4.97,-4.97,-4.97,-4.70,7.09,7.09,7.09
52.51,12.02,4.95,12.02,4.95,-4.94,-4.93,-4.68,7.08,7.08,7.08
53.03,11.98,4.93,11.99,4.92,-4.92,-4.90,-4.67,7.07,7.07,7.06
53.56,11.95,4.90,11.95,4.90,-4.90,-4.86,-4.66,7.05,7.05,7.05
54.10,11.92,4.87,11.92,4.87,-4.88,-4.82,-4.64,7.04,7.04,7.05
54.64,11.90,4.85,11.90,4.85,-4.86,-4.78,-4.63,7.04,7.04,7.05
55.18,11.87,4.84,11.87,4.83,-4.83,-4.75,-4.62,7.04,7.03,7.03
55.74,11.83,4.81,11.83,4.81,-4.80,-4.71,-4.61,7.03,7.03,7.03
56.29,11.79,4.78,11.79,4.78,-4.77,-4.67,-4.59,7.02,7.03,7.01
56.86,11.74,4.75,11.74,4.75,-4.73,-4.63,-4.58,7.01,7.01,6.99
57.42,11.69,4.70,11.69,4.70,-4.69,-4.60,-4.57,6.99,6.99,6.98
58.00,11.62,4.65,11.62,4.64,-4.65,-4.56,-4.55,6.97,6.97,6.97
58.58,11.55,4.57,11.55,4.58,-4.60,-4.52,-4.54,6.95,6.95,6.98
59.16,11.48,4.51,11.48,4.53,-4.55,-4.48,-4.52,6.92,6.93,6.97
59.76,11.40,4.51,11.40,4.50,-4.50,-4.44,-4.50,6.91,6.91,6.89
60.35,11.33,4.49,11.33,4.47,-4.44,-4.40,-4.47,6.90,6.90,6.85
60.96,11.27,4.42,11.27,4.41,-4.38,-4.37,-4.45,6.88,6.88,6.85
61.57,11.20,4.31,11.20,4.33,-4.33,-4.33,-4.42,6.88,6.88,6.89
62.18,11.15,4.24,11.15,4.25,-4.27,-4.29,-4.39,6.87,6.87,6.91
62.80,11.09,4.20,11.09,4.20,-4.22,-4.25,-4.36,6.87,6.87,6.89
63.43,11.04,4.16,11.04,4.16,-4.17,-4.21,-4.32,6.87,6.87,6.88
64.07,10.99,4.12,10.99,4.12,-4.12,-4.17,-4.28,6.88,6.88,6.87
64.71,10.94,4.08,10.94,4.08,-4.07,-4.14,-4.24,6.87,6.87,6.86
65.35,10.88,4.03,10.88,4.03,-4.02,-4.10,-4.19,6.86,6.86,6.85
66.01,10.83,3.99,10.83,3.99,-3.99,-4.06,-4.15,6.84,6.84,6.84
66.67,10.77,3.95,10.77,3.95,-3.95,-4.02,-4.10,6.82,6.82,6.82
67.33,10.71,3.91,10.71,3.91,-3.91,-3.98,-4.05,6.80,6.80,6.80
68.01,10.65,3.87,10.66,3.87,-3.88,-3.94,-3.99,6.78,6.78,6.79
68.69,10.61,3.84,10.61,3.84,-3.84,-3.90,-3.94,6.77,6.77,6.77
69.37,10.56,3.80,10.56,3.80,-3.80,-3.86,-3.88,6.75,6.75,6.75
70.07,10.51,3.77,10.51,3.77,-3.77,-3.82,-3.82,6.74,6.74,6.74
70.77,10.46,3.74,10.46,3.74,-3.73,-3.78,-3.76,6.73,6.73,6.72
71.48,10.41,3.70,10.41,3.70,-3.70,-3.74,-3.70,6.71,6.71,6.71
72.19,10.36,3.66,10.36,3.66,-3.66,-3.70,-3.64,6.69,6.69,6.69
72.91,10.30,3.62,10.30,3.62,-3.63,-3.66,-3.58,6.68,6.68,6.68
73.64,10.25,3.59,10.25,3.59,-3.59,-3.62,-3.52,6.66,6.66,6.66
74.38,10.20,3.55,10.20,3.55,-3.55,-3.59,-3.46,6.65,6.65,6.65
75.12,10.14,3.51,10.14,3.51,-3.51,-3.55,-3.40,6.63,6.63,6.63
75.87,10.09,3.47,10.09,3.47,-3.47,-3.51,-3.34,6.61,6.61,6.61
76.63,10.03,3.43,10.03,3.43,-3.44,-3.47,-3.28,6.59,6.59,6.60
77.40,9.97,3.40,9.98,3.40,-3.40,-3.43,-3.22,6.57,6.58,6.58
78.17,9.92,3.36,9.92,3.36,-3.36,-3.39,-3.16,6.56,6.56,6.56
78.95,9.87,3.33,9.86,3.33,-3.32,-3.35,-3.11,6.54,6.54,6.54
79.74,9.81,3.29,9.81,3.29,-3.28,-3.31,-3.05,6.53,6.53,6.52
80.54,9.75,3.24,9.75,3.24,-3.24,-3.27,-3.00,6.51,6.51,6.50
81.35,9.68,3.20,9.68,3.20,-3.20,-3.23,-2.95,6.49,6.49,6.48
82.16,9.62,3.15,9.62,3.15,-3.15,-3.19,-2.90,6.47,6.47,6.47
82.98,9.55,3.11,9.55,3.11,-3.11,-3.15,-2.85,6.44,6.44,6.45
83.81,9.49,3.06,9.49,3.06,-3.07,-3.11,-2.80,6.42,6.42,6.43
84.65,9.43,3.02,9.43,3.02,-3.03,-3.07,-2.76,6.40,6.40,6.41
85.50,9.37,2.98,9.37,2.98,-2.99,-3.03,-2.72,6.38,6.38,6.38
86.35,9.31,2.95,9.31,2.95,-2.96,-2.99,-2.68,6.35,6.35,6.36
87.22,9.26,2.92,9.26,2.92,-2.92,-2.95,-2.64,6.33,6.33,6.34
88.09,9.20,2.88,9.21,2.89,-2.89,-2.91,-2.60,6.32,6.32,6.32
88.97,9.16,2.86,9.16,2.86,-2.85,-2.87,-2.57,6.31,6.31,6.30
89.86,9.11,2.83,9.11,2.83,-2.81,-2.83,-2.53,6.30,6.30,6.28
90.76,9.05,2.80,9.05,2.79,-2.76,-2.79,-2.50,6.29,6.28,6.25
91.66,8.97,2.75,8.97,2.74,-2.72,-2.75,-2.47,6.26,6.25,6.23
92.58,8.89,2.68,8.89,2.68,-2.68,-2.71,-2.44,6.21,6.21,6.21
93.51,8.81,2.63,8.81,2.63,-2.66,-2.67,-2.42,6.15,6.15,6.18
94.44,8.75,2.59,8.75,2.59,-2.65,-2.63,-2.39,6.10,6.10,6.16
95.39,8.72,2.59,8.72,2.59,-2.66,-2.59,-2.37,6.06,6.06,6.13
96.34,8.72,2.62,8.73,2.62,-2.68,-2.55,-2.35,6.05,6.06,6.11
97.30,8.76,2.68,8.77,2.68,-2.69,-2.52,-2.33,6.07,6.07,6.08
98.28,8.81,2.75,8.80,2.75,-2.70,-2.48,-2.32,6.10,6.10,6.06
99.26,8.82,2.78,8.81,2.78,-2.69,-2.44,-2.30,6.12,6.12,6.03
100.25,8.77,2.76,8.76,2.75,-2.67,-2.40,-2.28,6.11,6.09,6.01
101.25,8.66,2.67,8.65,2.67,-2.61,-2.36,-2.27,6.04,6.04,5.98
102.27,8.51,2.55,8.51,2.55,-2.54,-2.32,-2.26,5.97,5.97,5.95
103.29,8.35,2.42,8.35,2.42,-2.45,-2.28,-2.25,5.90,5.90,5.93
104.32,8.20,2.29,8.21,2.30,-2.35,-2.25,-2.23,5.85,5.86,5.91
105.37,8.08,2.20,8.08,2.20,-2.25,-2.21,-2.22,5.84,5.83,5.88
106.42,7.98,2.13,7.98,2.12,-2.16,-2.17,-2.21,5.82,5.82,5.85
107.48,7.89,2.07,7.89,2.07,-2.08,-2.13,-2.20,5.80,5.81,5.82
108.56,7.82,2.02,7.82,2.02,-2.03,-2.10,-2.20,5.79,5.79,5.80
109.64,7.76,1.99,7.76,1.99,-1.98,-2.06,-2.19,5.78,5.78,5.77
110.74,7.70,1.96,7.70,1.96,-1.95,-2.02,-2.18,5.75,5.75,5.74
111.85,7.64,1.93,7.64,1.93,-1.92,-1.98,-2.17,5.72,5.72,5.71
112.97,7.57,1.89,7.57,1.89,-1.88,-1.95,-2.16,5.69,5.69,5.68
114.10,7.50,1.86,7.50,1.85,-1.85,-1.91,-2.15,5.66,5.66,5.65
115.24,7.43,1.82,7.43,1.81,-1.81,-1.88,-2.14,5.62,5.62,5.62
116.39,7.36,1.77,7.36,1.77,-1.77,-1.84,-2.12,5.59,5.59,5.59
117.55,7.29,1.72,7.29,1.73,-1.73,-1.80,-2.11,5.56,5.56,5.57
118.73,7.22,1.69,7.22,1.68,-1.69,-1.77,-2.10,5.53,5.53,5.54
119.92,7.15,1.65,7.15,1.65,-1.65,-1.73,-2.08,5.50,5.50,5.51
121.12,7.09,1.61,7.09,1.61,-1.62,-1.70,-2.06,5.47,5.47,5.48
122.33,7.02,1.58,7.02,1.58,-1.58,-1.66,-2.05,5.44,5.44,5.44
123.55,6.96,1.55,6.96,1.55,-1.55,-1.63,-2.03,5.41,5.41,5.41
124.79,6.89,1.52,6.89,1.52,-1.52,-1.59,-2.00,5.38,5.38,5.38
126.03,6.83,1.49,6.83,1.49,-1.49,-1.56,-1.98,5.34,5.34,5.34
127.29,6.77,1.46,6.77,1.46,-1.46,-1.52,-1.95,5.31,5.31,5.31
128.57,6.70,1.43,6.70,1.43,-1.43,-1.49,-1.93,5.28,5.28,5.27
129.85,6.63,1.40,6.63,1.40,-1.40,-1.46,-1.90,5.24,5.24,5.24
131.15,6.57,1.36,6.57,1.36,-1.37,-1.42,-1.87,5.20,5.20,5.20
132.46,6.50,1.34,6.50,1.33,-1.34,-1.39,-1.84,5.16,5.16,5.17
133.79,6.44,1.31,6.44,1.31,-1.31,-1.36,-1.81,5.13,5.13,5.13
135.12,6.37,1.28,6.38,1.28,-1.28,-1.33,-1.77,5.09,5.09,5.10
136.48,6.31,1.25,6.31,1.25,-1.25,-1.29,-1.74,5.06,5.06,5.06
137.84,6.25,1.23,6.25,1.23,-1.22,-1.26,-1.70,5.03,5.03,5.02
139.22,6.19,1.20,6.19,1.20,-1.19,-1.23,-1.66,4.99,4.99,4.99
140.61,6.12,1.17,6.12,1.17,-1.16,-1.20,-1.62,4.95,4.95,4.95
142.02,6.04,1.13,6.04,1.13,-1.13,-1.17,-1.58,4.91,4.91,4.91
143.44,5.97,1.09,5.97,1.10,-1.10,-1.14,-1.54,4.87,4.87,4.87
144.87,5.89,1.06,5.89,1.06,-1.06,-1.11,-1.50,4.83,4.83,4.83
146.32,5.82,1.03,5.82,1.03,-1.03,-1.08,-1.46,4.79,4.79,4.79
147.78,5.75,1.00,5.76,1.00,-1.00,-1.05,-1.42,4.75,4.75,4.76
149.26,5.69,0.97,5.69,0.97,-0.97,-1.02,-1.37,4.71,4.71,4.72
150.75,5.62,0.95,5.62,0.95,-0.95,-0.99,-1.33,4.67,4.67,4.68
152.26,5.56,0.92,5.56,0.92,-0.92,-0.96,-1.29,4.63,4.63,4.64
153.78,5.50,0.91,5.50,0.91,-0.90,-0.93,-1.25,4.59,4.59,4.59
155.32,5.43,0.89,5.43,0.89,-0.88,-0.91,-1.20,4.55,4.55,4.54
156.88,5.37,0.86,5.37,0.86,-0.86,-0.88,-1.16,4.51,4.51,4.51
158.44,5.31,0.84,5.31,0.84,-0.84,-0.85,-1.12,4.46,4.46,4.46
160.03,5.24,0.82,5.24,0.82,-0.82,-0.82,-1.08,4.42,4.42,4.42
161.63,5.18,0.80,5.18,0.80,-0.81,-0.80,-1.03,4.37,4.37,4.38
163.24,5.12,0.79,5.12,0.79,-0.79,-0.77,-0.99,4.33,4.33,4.33
164.88,5.06,0.77,5.06,0.77,-0.77,-0.75,-0.95,4.29,4.29,4.29
166.53,5.00,0.76,5.00,0.76,-0.75,-0.72,-0.91,4.24,4.24,4.24
168.19,4.93,0.75,4.93,0.74,-0.74,-0.69,-0.87,4.20,4.20,4.19
169.87,4.87,0.73,4.87,0.73,-0.73,-0.67,-0.83,4.14,4.14,4.14
171.57,4.80,0.71,4.80,0.71,-0.73,-0.65,-0.79,4.08,4.08,4.10
173.29,4.74,0.70,4.74,0.69,-0.72,-0.62,-0.75,4.01,4.01,4.04
175.02,4.66,0.69,4.67,0.69,-0.72,-0.60,-0.71,3.95,3.95,3.97
176.77,4.60,0.70,4.60,0.72,-0.71,-0.57,-0.68,3.89,3.89,3.90
178.54,4.53,0.73,4.53,0.73,-0.69,-0.55,-0.64,3.84,3.84,3.80
180.32,4.46,0.76,4.46,0.71,-0.67,-0.53,-0.60,3.79,3.79,3.70
182.13,4.38,0.64,4.38,0.66,-0.64,-0.51,-0.56,3.74,3.74,3.74
183.95,4.31,0.58,4.31,0.59,-0.60,-0.48,-0.53,3.70,3.70,3.73
185.79,4.23,0.53,4.23,0.53,-0.56,-0.46,-0.49,3.67,3.67,3.70
187.65,4.16,0.48,4.16,0.49,-0.50,-0.44,-0.46,3.66,3.66,3.67
189.52,4.09,0.44,4.09,0.44,-0.43,-0.42,-0.42,3.66,3.66,3.65
191.42,4.02,0.39,4.02,0.39,-0.36,-0.40,-0.39,3.66,3.66,3.64
193.33,3.94,0.33,3.94,0.33,-0.30,-0.38,-0.35,3.65,3.64,3.62
195.27,3.85,0.26,3.84,0.25,-0.24,-0.36,-0.32,3.61,3.60,3.59
197.22,3.73,0.17,3.73,0.17,-0.18,-0.34,-0.29,3.54,3.55,3.56
199.19,3.62,0.10,3.63,0.11,-0.14,-0.32,-0.25,3.48,3.48,3.52
201.18,3.55,0.06,3.55,0.07,-0.11,-0.30,-0.22,3.44,3.44,3.48
203.19,3.50,0.05,3.50,0.06,-0.09,-0.28,-0.19,3.41,3.41,3.44
205.23,3.48,0.08,3.47,0.08,-0.08,-0.27,-0.16,3.40,3.39,3.40
207.28,3.46,0.10,3.45,0.10,-0.08,-0.25,-0.13,3.38,3.37,3.35
209.35,3.43,0.12,3.42,0.12,-0.09,-0.23,-0.10,3.34,3.33,3.31
211.44,3.38,0.13,3.38,0.13,-0.10,-0.22,-0.07,3.28,3.28,3.26
213.56,3.34,0.13,3.34,0.13,-0.12,-0.20,-0.04,3.21,3.22,3.21
215.69,3.29,0.13,3.29,0.13,-0.14,-0.18,-0.01,3.15,3.15,3.16
217.85,3.25,0.14,3.25,0.14,-0.16,-0.17,0.01,3.09,3.09,3.11
220.03,3.22,0.16,3.22,0.16,-0.18,-0.15,0.04,3.04,3.05,3.06
222.23,3.20,0.19,3.20,0.19,-0.19,-0.14,0.06,3.01,3.01,3.01
224.45,3.18,0.22,3.18,0.22,-0.21,-0.12,0.09,2.97,2.97,2.96
226.70,3.15,0.24,3.15,0.24,-0.23,-0.11,0.11,2.93,2.92,2.91
228.96,3.12,0.25,3.12,0.25,-0.24,-0.09,0.13,2.88,2.88,2.86
231.25,3.07,0.26,3.07,0.26,-0.25,-0.08,0.16,2.82,2.82,2.82
233.57,3.02,0.26,3.02,0.26,-0.25,-0.07,0.18,2.77,2.77,2.77
235.90,2.97,0.25,2.97,0.25,-0.25,-0.06,0.19,2.72,2.72,2.72
238.26,2.90,0.23,2.90,0.23,-0.23,-0.04,0.21,2.67,2.67,2.67
240.64,2.84,0.22,2.84,0.22,-0.22,-0.03,0.23,2.63,2.63,2.62
243.05,2.78,0.19,2.78,0.19,-0.20,-0.02,0.24,2.58,2.58,2.58
245.48,2.72,0.17,2.72,0.17,-0.17,-0.01,0.25,2.54,2.54,2.54
247.93,2.66,0.15,2.66,0.15,-0.15,0.00,0.27,2.50,2.50,2.51
250.41,2.60,0.13,2.60,0.13,-0.13,0.01,0.28,2.47,2.47,2.47
252.92,2.54,0.11,2.54,0.11,-0.11,0.02,0.29,2.43,2.43,2.43
255.45,2.48,0.09,2.48,0.09,-0.09,0.03,0.29,2.39,2.39,2.39
258.00,2.42,0.07,2.42,0.07,-0.07,0.04,0.30,2.35,2.34,2.35
260.58,2.36,0.05,2.36,0.05,-0.05,0.05,0.30,2.30,2.30,2.30
263.19,2.29,0.04,2.30,0.04,-0.04,0.06,0.31,2.25,2.26,2.26
265.82,2.24,0.02,2.24,0.03,-0.03,0.07,0.31,2.21,2.21,2.21
268.48,2.18,0.02,2.18,0.01,-0.01,0.08,0.31,2.16,2.16,2.16
271.16,2.12,0.00,2.12,0.00,-0.00,0.09,0.31,2.12,2.12,2.12
273.87,2.07,-0.00,2.07,-0.00,0.00,0.09,0.31,2.07,2.07,2.07
276.61,2.01,-0.01,2.01,-0.01,0.01,0.10,0.31,2.02,2.02,2.02
279.38,1.95,-0.02,1.95,-0.02,0.02,0.11,0.31,1.97,1.97,1.97
282.17,1.90,-0.03,1.90,-0.03,0.03,0.11,0.31,1.92,1.92,1.93
284.99,1.84,-0.03,1.84,-0.03,0.03,0.12,0.30,1.87,1.87,1.87
287.84,1.79,-0.04,1.79,-0.04,0.03,0.13,0.30,1.82,1.82,1.82
290.72,1.73,-0.04,1.73,-0.04,0.04,0.13,0.29,1.77,1.77,1.77
293.63,1.68,-0.05,1.68,-0.05,0.05,0.14,0.29,1.73,1.73,1.73
296.57,1.63,-0.05,1.63,-0.05,0.06,0.14,0.28,1.69,1.69,1.69
299.53,1.58,-0.05,1.58,-0.06,0.07,0.15,0.27,1.65,1.65,1.63
302.53,1.53,-0.07,1.53,-0.07,0.08,0.15,0.27,1.61,1.61,1.60
305.55,1.47,-0.10,1.47,-0.10,0.10,0.15,0.26,1.57,1.57,1.57
308.61,1.42,-0.13,1.42,-0.12,0.12,0.16,0.25,1.53,1.53,1.54
311.69,1.36,-0.15,1.36,-0.14,0.14,0.16,0.25,1.50,1.50,1.51
314.81,1.31,-0.16,1.31,-0.16,0.16,0.16,0.24,1.47,1.47,1.46
317.96,1.25,-0.18,1.25,-0.18,0.19,0.17,0.23,1.44,1.44,1.44
321.14,1.20,-0.21,1.20,-0.21,0.21,0.17,0.22,1.41,1.41,1.41
324.35,1.15,-0.23,1.15,-0.23,0.22,0.17,0.22,1.37,1.37,1.38
327.59,1.10,-0.24,1.10,-0.24,0.24,0.17,0.21,1.34,1.34,1.34
330.87,1.05,-0.26,1.05,-0.26,0.25,0.18,0.20,1.30,1.30,1.31
334.18,1.00,-0.27,1.00,-0.27,0.27,0.18,0.19,1.27,1.27,1.27
337.52,0.96,-0.28,0.96,-0.28,0.28,0.18,0.19,1.23,1.23,1.23
340.90,0.91,-0.29,0.91,-0.28,0.28,0.18,0.18,1.19,1.19,1.20
344.30,0.86,-0.29,0.86,-0.29,0.29,0.18,0.17,1.15,1.15,1.15
347.75,0.82,-0.29,0.82,-0.29,0.29,0.18,0.17,1.11,1.11,1.11
351.23,0.77,-0.29,0.77,-0.29,0.30,0.18,0.16,1.07,1.07,1.06
354.74,0.72,-0.30,0.72,-0.30,0.30,0.18,0.15,1.02,1.02,1.02
358.28,0.68,-0.30,0.68,-0.30,0.30,0.18,0.15,0.98,0.98,0.98
361.87,0.63,-0.30,0.63,-0.30,0.30,0.18,0.14,0.93,0.93,0.93
365.49,0.59,-0.30,0.59,-0.30,0.29,0.18,0.14,0.88,0.88,0.88
369.14,0.55,-0.29,0.55,-0.29,0.29,0.18,0.13,0.83,0.83,0.83
372.83,0.50,-0.28,0.50,-0.28,0.28,0.18,0.13,0.78,0.79,0.78
376.56,0.46,-0.27,0.46,-0.27,0.28,0.18,0.12,0.74,0.74,0.74
380.33,0.42,-0.27,0.42,-0.27,0.27,0.17,0.12,0.69,0.69,0.69
384.13,0.38,-0.26,0.38,-0.26,0.26,0.17,0.11,0.64,0.64,0.64
387.97,0.34,-0.25,0.34,-0.25,0.26,0.17,0.11,0.59,0.59,0.59
391.85,0.30,-0.25,0.30,-0.25,0.25,0.17,0.10,0.55,0.55,0.55
395.77,0.25,-0.25,0.25,-0.25,0.25,0.16,0.10,0.50,0.50,0.50
399.73,0.21,-0.24,0.21,-0.24,0.24,0.16,0.10,0.45,0.45,0.45
403.72,0.17,-0.24,0.17,-0.24,0.24,0.16,0.09,0.41,0.41,0.41
407.76,0.13,-0.23,0.13,-0.23,0.23,0.16,0.09,0.36,0.36,0.36
411.84,0.09,-0.23,0.09,-0.23,0.23,0.15,0.08,0.32,0.32,0.32
415.96,0.05,-0.22,0.05,-0.22,0.23,0.15,0.08,0.27,0.27,0.27
420.12,0.00,-0.22,0.00,-0.22,0.22,0.14,0.08,0.22,0.22,0.22
424.32,-0.04,-0.22,-0.04,-0.22,0.22,0.14,0.07,0.18,0.18,0.19
428.56,-0.08,-0.21,-0.08,-0.21,0.21,0.14,0.07,0.13,0.13,0.14
432.85,-0.11,-0.20,-0.11,-0.21,0.20,0.13,0.07,0.09,0.09,0.09
437.18,-0.15,-0.20,-0.15,-0.20,0.20,0.13,0.06,0.05,0.05,0.05
441.55,-0.18,-0.19,-0.18,-0.19,0.19,0.12,0.06,0.01,0.01,0.01
445.96,-0.22,-0.18,-0.22,-0.18,0.18,0.12,0.06,-0.04,-0.04,-0.04
450.42,-0.25,-0.17,-0.26,-0.18,0.18,0.11,0.06,-0.08,-0.08,-0.08
454.93,-0.29,-0.17,-0.29,-0.17,0.17,0.11,0.05,-0.12,-0.12,-0.12
459.48,-0.33,-0.16,-0.33,-0.16,0.16,0.10,0.05,-0.17,-0.17,-0.17
464.07,-0.36,-0.15,-0.36,-0.15,0.15,0.10,0.05,-0.21,-0.21,-0.21
468.71,-0.40,-0.15,-0.40,-0.15,0.15,0.09,0.04,-0.25,-0.25,-0.25
473.40,-0.43,-0.14,-0.43,-0.14,0.14,0.09,0.04,-0.29,-0.29,-0.29
478.13,-0.47,-0.13,-0.47,-0.13,0.13,0.08,0.04,-0.33,-0.33,-0.33
482.91,-0.50,-0.12,-0.50,-0.12,0.12,0.07,0.03,-0.38,-0.38,-0.38
487.74,-0.54,-0.12,-0.54,-0.11,0.11,0.07,0.03,-0.42,-0.42,-0.42
492.62,-0.57,-0.11,-0.57,-0.10,0.10,0.06,0.03,-0.46,-0.46,-0.46
497.55,-0.60,-0.09,-0.60,-0.09,0.09,0.05,0.03,-0.51,-0.51,-0.51
502.52,-0.63,-0.08,-0.63,-0.08,0.08,0.05,0.02,-0.55,-0.55,-0.55
507.55,-0.66,-0.07,-0.66,-0.07,0.07,0.04,0.02,-0.59,-0.59,-0.59
512.62,-0.69,-0.05,-0.69,-0.05,0.05,0.03,0.02,-0.64,-0.64,-0.63
517.75,-0.72,-0.04,-0.72,-0.04,0.04,0.03,0.01,-0.68,-0.68,-0.68
522.93,-0.74,-0.02,-0.74,-0.02,0.02,0.02,0.01,-0.72,-0.72,-0.72
