frequency,raw,error,smoothed,error_smoothed,equalization,parametric_eq,fixed_band_eq,equalized_raw,equalized_smoothed,target
20.00,7.92,2.73,7.90,2.71,-2.53,-2.58,-1.20,5.40,5.37,5.19
20.20,7.98,2.74,8.00,2.75,-2.75,-2.73,-1.24,5.24,5.26,5.24
20.40,8.12,2.79,8.15,2.83,-2.95,-2.88,-1.28,5.17,5.20,5.33
20.61,8.33,2.93,8.34,2.97,-3.13,-3.06,-1.32,5.20,5.21,5.39
20.81,8.60,3.21,8.59,3.18,-3.29,-3.23,-1.35,5.31,5.30,5.39
21.02,8.86,3.43,8.86,3.42,-3.44,-3.42,-1.40,5.43,5.42,5.43
21.23,9.11,3.61,9.10,3.61,-3.56,-3.60,-1.44,5.55,5.54,5.50
21.44,9.31,3.76,9.30,3.75,-3.67,-3.77,-1.48,5.64,5.64,5.55
21.66,9.46,3.84,9.46,3.85,-3.78,-3.93,-1.52,5.67,5.68,5.61
21.87,9.58,3.90,9.58,3.89,-3.86,-4.03,-1.57,5.72,5.71,5.68
22.09,9.66,3.90,9.66,3.90,-3.91,-4.13,-1.62,5.75,5.75,5.76
22.31,9.71,3.88,9.71,3.89,-3.92,-4.14,-1.67,5.79,5.80,5.83
22.54,9.75,3.86,9.75,3.88,-3.91,-4.15,-1.71,5.84,5.84,5.89
22.76,9.78,3.89,9.78,3.88,-3.89,-4.07,-1.77,5.89,5.89,5.89
22.99,9.81,3.87,9.81,3.86,-3.87,-3.99,-1.82,5.94,5.94,5.94
23.22,9.83,3.83,9.83,3.83,-3.85,-3.87,-1.87,5.98,5.98,6.00
23.45,9.84,3.77,9.85,3.79,-3.82,-3.75,-1.92,6.03,6.03,6.08
23.69,9.84,3.75,9.84,3.75,-3.77,-3.62,-1.98,6.07,6.07,6.09
23.92,9.82,3.72,9.81,3.72,-3.70,-3.49,-2.04,6.12,6.12,6.09
24.16,9.76,3.66,9.75,3.66,-3.60,-3.38,-2.09,6.16,6.15,6.09
24.40,9.66,3.56,9.65,3.55,-3.47,-3.27,-2.15,6.18,6.18,6.09
24.65,9.52,3.39,9.52,3.38,-3.32,-3.17,-2.21,6.20,6.20,6.13
24.89,9.36,3.17,9.35,3.18,-3.15,-3.08,-2.27,6.20,6.20,6.19
25.14,9.18,2.98,9.17,2.98,-2.97,-3.01,-2.33,6.20,6.20,6.19
25.39,8.99,2.80,9.00,2.80,-2.81,-2.95,-2.39,6.18,6.19,6.19
25.65,8.86,2.65,8.85,2.63,-2.67,-2.90,-2.45,6.19,6.18,6.20
25.91,8.77,2.50,8.77,2.50,-2.58,-2.85,-2.51,6.19,6.19,6.27
26.16,8.75,2.42,8.77,2.44,-2.55,-2.81,-2.57,6.20,6.22,6.33
26.43,8.84,2.45,8.85,2.47,-2.58,-2.77,-2.63,6.26,6.27,6.39
26.69,9.01,2.61,9.00,2.59,-2.67,-2.75,-2.69,6.34,6.34,6.39
26.96,9.21,2.77,9.21,2.76,-2.79,-2.72,-2.75,6.41,6.42,6.43
27.23,9.43,2.94,9.43,2.96,-2.94,-2.71,-2.80,6.49,6.49,6.49
27.50,9.63,3.14,9.63,3.13,-3.09,-2.69,-2.86,6.55,6.54,6.49
27.77,9.78,3.29,9.78,3.29,-3.21,-2.68,-2.91,6.57,6.57,6.49
28.05,9.88,3.39,9.87,3.38,-3.29,-2.66,-2.96,6.59,6.58,6.49
28.33,9.90,3.40,9.90,3.39,-3.31,-2.66,-3.01,6.59,6.59,6.49
28.62,9.87,3.32,9.87,3.33,-3.27,-2.65,-3.06,6.60,6.60,6.55
28.90,9.78,3.19,9.78,3.21,-3.16,-2.64,-3.10,6.63,6.62,6.59
29.19,9.66,3.07,9.66,3.05,-3.00,-2.64,-3.14,6.66,6.66,6.59
29.48,9.52,2.85,9.52,2.85,-2.81,-2.63,-3.17,6.70,6.70,6.66
29.78,9.37,2.63,9.37,2.64,-2.63,-2.63,-3.20,6.74,6.74,6.74
30.08,9.23,2.42,9.23,2.42,-2.48,-2.62,-3.23,6.76,6.75,6.81
30.38,9.13,2.27,9.14,2.27,-2.38,-2.62,-3.25,6.75,6.76,6.87
30.68,9.11,2.18,9.13,2.19,-2.35,-2.61,-3.27,6.76,6.78,6.94
30.99,9.22,2.21,9.22,2.21,-2.40,-2.61,-3.28,6.82,6.83,7.01
31.30,9.40,2.33,9.41,2.35,-2.49,-2.61,-3.29,6.92,6.93,7.07
31.61,9.65,2.55,9.65,2.56,-2.60,-2.60,-3.30,7.05,7.05,7.09
31.93,9.91,2.81,9.89,2.80,-2.70,-2.59,-3.29,7.20,7.19,7.09
32.24,10.07,2.98,10.07,2.98,-2.77,-2.59,-3.29,7.30,7.30,7.09
32.57,10.16,3.07,10.13,3.03,-2.79,-2.58,-3.28,7.37,7.34,7.09
32.89,10.08,2.97,10.07,2.94,-2.75,-2.57,-3.26,7.33,7.32,7.12
33.22,9.89,2.70,9.89,2.73,-2.64,-2.56,-3.25,7.25,7.24,7.19
33.55,9.65,2.46,9.65,2.45,-2.50,-2.55,-3.22,7.15,7.15,7.19
33.89,9.42,2.19,9.44,2.19,-2.33,-2.54,-3.20,7.09,7.11,7.23
34.23,9.30,2.00,9.31,2.01,-2.16,-2.53,-3.17,7.14,7.15,7.30
34.57,9.26,1.89,9.28,1.91,-2.02,-2.52,-3.14,7.24,7.26,7.37
34.92,9.34,1.90,9.33,1.89,-1.93,-2.51,-3.10,7.41,7.40,7.44
35.27,9.43,1.93,9.42,1.91,-1.90,-2.49,-3.07,7.54,7.52,7.51
35.62,9.52,1.94,9.51,1.95,-1.93,-2.48,-3.03,7.59,7.58,7.58
35.97,9.58,1.99,9.59,2.00,-2.00,-2.46,-2.99,7.58,7.58,7.59
36.33,9.66,2.07,9.67,2.07,-2.11,-2.44,-2.95,7.55,7.56,7.59
36.70,9.77,2.18,9.78,2.19,-2.23,-2.43,-2.91,7.55,7.56,7.59
37.06,9.92,2.33,9.92,2.33,-2.34,-2.41,-2.86,7.58,7.58,7.59
37.43,10.08,2.49,10.07,2.48,-2.44,-2.39,-2.82,7.64,7.63,7.59
37.81,10.20,2.61,10.20,2.61,-2.53,-2.37,-2.78,7.67,7.67,7.59
38.19,10.31,2.71,10.29,2.68,-2.61,-2.35,-2.73,7.70,7.68,7.59
38.57,10.33,2.71,10.33,2.70,-2.67,-2.33,-2.69,7.66,7.66,7.62
38.95,10.34,2.66,10.35,2.68,-2.72,-2.31,-2.65,7.62,7.63,7.68
39.34,10.35,2.65,10.35,2.66,-2.74,-2.29,-2.61,7.61,7.61,7.69
39.74,10.37,2.67,10.37,2.68,-2.74,-2.27,-2.57,7.63,7.63,7.69
40.14,10.39,2.70,10.39,2.70,-2.71,-2.25,-2.53,7.68,7.68,7.69
40.54,10.40,2.71,10.39,2.70,-2.66,-2.23,-2.49,7.74,7.73,7.69
40.94,10.35,2.66,10.35,2.66,-2.58,-2.21,-2.45,7.77,7.77,7.69
41.35,10.26,2.56,10.25,2.56,-2.47,-2.19,-2.42,7.79,7.78,7.69
41.76,10.12,2.42,10.11,2.41,-2.33,-2.17,-2.39,7.78,7.78,7.69
42.18,9.96,2.22,9.96,2.22,-2.18,-2.15,-2.35,7.78,7.78,7.74
42.60,9.81,2.00,9.81,2.01,-2.02,-2.13,-2.32,7.79,7.80,7.81
43.03,9.70,1.82,9.71,1.81,-1.87,-2.11,-2.30,7.83,7.84,7.88
43.46,9.66,1.64,9.66,1.66,-1.75,-2.09,-2.27,7.90,7.90,8.01
43.90,9.65,1.56,9.65,1.58,-1.68,-2.07,-2.24,7.97,7.97,8.09
44.33,9.68,1.59,9.68,1.57,-1.66,-2.06,-2.22,8.02,8.02,8.09
44.78,9.73,1.64,9.73,1.63,-1.69,-2.04,-2.20,8.04,8.04,8.09
45.23,9.79,1.73,9.79,1.74,-1.74,-2.03,-2.18,8.04,8.04,8.06
45.68,9.85,1.85,9.85,1.86,-1.82,-2.01,-2.16,8.03,8.03,8.00
46.13,9.91,1.99,9.91,1.98,-1.90,-2.00,-2.15,8.02,8.01,7.92
46.60,9.96,2.07,9.96,2.06,-1.97,-1.99,-2.13,8.00,7.99,7.89
47.06,10.00,2.10,10.00,2.08,-2.02,-1.99,-2.12,7.97,7.98,7.90
47.53,10.02,2.05,10.02,2.06,-2.06,-1.98,-2.11,7.96,7.96,7.97
48.01,10.02,2.03,10.02,2.04,-2.08,-1.98,-2.10,7.94,7.94,7.99
48.49,10.01,2.03,10.01,2.04,-2.08,-1.97,-2.09,7.93,7.93,7.98
48.97,9.99,2.07,9.99,2.05,-2.07,-1.98,-2.09,7.91,7.91,7.91
49.46,9.96,2.07,9.97,2.07,-2.06,-1.98,-2.08,7.91,7.91,7.89
49.96,9.95,2.06,9.95,2.06,-2.05,-1.98,-2.07,7.90,7.90,7.89
50.46,9.94,2.05,9.94,2.05,-2.04,-1.99,-2.07,7.90,7.90,7.89
50.96,9.94,2.05,9.94,2.05,-2.04,-2.00,-2.07,7.90,7.90,7.89
51.47,9.94,2.05,9.94,2.04,-2.04,-2.02,-2.07,7.90,7.89,7.89
51.99,9.93,2.04,9.93,2.03,-2.05,-2.03,-2.06,7.88,7.88,7.89
52.51,9.92,2.03,9.92,2.04,-2.06,-2.05,-2.06,7.86,7.86,7.89
53.03,9.91,2.05,9.92,2.06,-2.08,-2.07,-2.06,7.83,7.83,7.86
53.56,9.91,2.12,9.91,2.09,-2.12,-2.09,-2.06,7.79,7.80,7.79
54.10,9.91,2.12,9.91,2.13,-2.15,-2.10,-2.05,7.76,7.76,7.79
54.64,9.92,2.17,9.92,2.19,-2.19,-2.12,-2.05,7.73,7.73,7.75
55.18,9.92,2.24,9.92,2.24,-2.22,-2.13,-2.05,7.70,7.70,7.68
55.74,9.91,2.30,9.91,2.28,-2.25,-2.14,-2.04,7.66,7.66,7.61
56.29,9.89,2.30,9.89,2.29,-2.26,-2.15,-2.03,7.63,7.63,7.59
56.86,9.86,2.26,9.86,2.27,-2.25,-2.14,-2.02,7.61,7.61,7.59
57.42,9.82,2.22,9.82,2.23,-2.22,-2.13,-2.01,7.59,7.59,7.59
58.00,9.77,2.18,9.77,2.19,-2.18,-2.12,-2.00,7.59,7.59,7.59
58.58,9.72,2.13,9.72,2.13,-2.13,-2.09,-1.98,7.60,7.60,7.59
59.16,9.67,2.08,9.67,2.06,-2.06,-2.05,-1.96,7.61,7.61,7.59
59.76,9.62,1.97,9.63,1.98,-2.00,-2.01,-1.94,7.63,7.63,7.65
60.35,9.58,1.89,9.58,1.91,-1.93,-1.96,-1.92,7.65,7.65,7.69
60.96,9.54,1.85,9.54,1.85,-1.86,-1.90,-1.89,7.68,7.68,7.69
61.57,9.50,1.81,9.50,1.81,-1.80,-1.83,-1.86,7.71,7.71,7.69
62.18,9.46,1.77,9.46,1.76,-1.74,-1.76,-1.83,7.73,7.72,7.69
62.80,9.42,1.71,9.42,1.70,-1.69,-1.69,-1.79,7.73,7.73,7.70
63.43,9.38,1.61,9.38,1.63,-1.65,-1.62,-1.75,7.73,7.73,7.77
64.07,9.35,1.56,9.35,1.57,-1.62,-1.55,-1.70,7.73,7.74,7.79
64.71,9.34,1.55,9.34,1.54,-1.59,-1.48,-1.65,7.75,7.75,7.79
65.35,9.33,1.54,9.33,1.54,-1.56,-1.41,-1.60,7.77,7.77,7.79
66.01,9.33,1.54,9.33,1.54,-1.52,-1.34,-1.54,7.81,7.81,7.79
66.67,9.31,1.52,9.31,1.52,-1.47,-1.28,-1.48,7.84,7.84,7.79
67.33,9.28,1.49,9.28,1.47,-1.41,-1.22,-1.42,7.87,7.87,7.79
68.01,9.24,1.39,9.24,1.39,-1.34,-1.17,-1.36,7.90,7.90,7.85
68.69,9.19,1.26,9.19,1.27,-1.25,-1.12,-1.29,7.94,7.94,7.92
69.37,9.13,1.14,9.13,1.13,-1.15,-1.08,-1.22,7.98,7.98,7.99
70.07,9.06,1.00,9.07,1.01,-1.03,-1.04,-1.14,8.03,8.03,8.06
70.77,9.00,0.91,9.00,0.92,-0.93,-1.00,-1.07,8.07,8.07,8.09
71.48,8.93,0.84,8.93,0.83,-0.84,-0.97,-0.99,8.09,8.09,8.09
72.19,8.86,0.77,8.86,0.75,-0.78,-0.94,-0.91,8.08,8.07,8.09
72.91,8.78,0.69,8.78,0.69,-0.75,-0.92,-0.82,8.03,8.03,8.09
73.64,8.71,0.64,8.71,0.67,-0.74,-0.90,-0.74,7.96,7.97,8.07
74.38,8.64,0.71,8.65,0.72,-0.75,-0.88,-0.65,7.90,7.90,7.93
75.12,8.59,0.80,8.60,0.79,-0.75,-0.86,-0.56,7.84,7.84,7.80
75.87,8.56,0.87,8.56,0.84,-0.76,-0.85,-0.47,7.80,7.79,7.69
76.63,8.52,0.83,8.52,0.84,-0.77,-0.83,-0.38,7.75,7.75,7.69
77.40,8.49,0.80,8.49,0.80,-0.77,-0.80,-0.29,7.72,7.71,7.69
78.17,8.44,0.75,8.44,0.75,-0.76,-0.78,-0.20,7.68,7.68,7.69
78.95,8.38,0.69,8.38,0.71,-0.74,-0.74,-0.10,7.64,7.64,7.69
79.74,8.31,0.68,8.31,0.67,-0.71,-0.69,-0.01,7.60,7.60,7.63
80.54,8.23,0.64,8.24,0.63,-0.66,-0.63,0.09,7.58,7.58,7.59
81.35,8.15,0.56,8.15,0.59,-0.59,-0.57,0.19,7.56,7.56,7.59
82.16,8.07,0.54,8.07,0.54,-0.52,-0.48,0.28,7.55,7.55,7.53
82.98,7.98,0.48,7.98,0.48,-0.42,-0.38,0.38,7.55,7.56,7.49
83.81,7.89,0.39,7.89,0.38,-0.31,-0.27,0.48,7.58,7.58,7.49
84.65,7.79,0.22,7.79,0.21,-0.18,-0.15,0.58,7.61,7.61,7.56
85.50,7.68,0.01,7.68,0.01,-0.03,-0.02,0.68,7.66,7.66,7.68
86.35,7.57,-0.22,7.57,-0.18,0.14,0.13,0.79,7.71,7.71,7.79
87.22,7.46,-0.33,7.46,-0.33,0.30,0.28,0.89,7.76,7.76,7.79
88.09,7.34,-0.45,7.34,-0.49,0.47,0.43,0.99,7.81,7.81,7.79
88.97,7.22,-0.61,7.22,-0.65,0.63,0.59,1.10,7.85,7.85,7.83
89.86,7.10,-0.87,7.10,-0.81,0.79,0.75,1.20,7.89,7.89,7.97
90.76,6.98,-0.96,6.98,-0.95,0.93,0.91,1.31,7.91,7.91,7.93
91.66,6.85,-1.04,6.85,-1.07,1.07,1.07,1.42,7.92,7.92,7.89
92.58,6.73,-1.17,6.73,-1.19,1.21,1.23,1.53,7.94,7.94,7.89
93.51,6.60,-1.36,6.60,-1.35,1.36,1.39,1.64,7.96,7.96,7.95
94.44,6.46,-1.53,6.46,-1.51,1.52,1.54,1.75,7.99,7.99,7.99
95.39,6.32,-1.67,6.32,-1.67,1.69,1.70,1.86,8.01,8.01,7.99
96.34,6.18,-1.82,6.17,-1.84,1.86,1.85,1.97,8.04,8.04,7.99
97.30,6.02,-2.01,6.02,-2.02,2.04,2.00,2.08,8.06,8.06,8.03
98.28,5.85,-2.24,5.85,-2.22,2.21,2.14,2.19,8.07,8.07,8.09
99.26,5.68,-2.41,5.69,-2.41,2.38,2.28,2.30,8.06,8.06,8.09
100.25,5.52,-2.57,5.52,-2.57,2.53,2.42,2.41,8.05,8.05,8.09
101.25,5.37,-2.71,5.37,-2.70,2.67,2.56,2.52,8.04,8.04,8.08
102.27,5.22,-2.81,5.22,-2.80,2.79,2.69,2.63,8.01,8.01,8.03
103.29,5.08,-2.88,5.08,-2.88,2.90,2.82,2.74,7.98,7.98,7.96
104.32,4.95,-2.94,4.95,-2.97,2.99,2.94,2.85,7.94,7.94,7.89
105.37,4.82,-3.07,4.82,-3.06,3.06,3.06,2.96,7.88,7.88,7.89
106.42,4.69,-3.16,4.69,-3.15,3.13,3.17,3.06,7.82,7.82,7.85
107.48,4.56,-3.21,4.56,-3.22,3.20,3.28,3.16,7.76,7.76,7.77
108.56,4.44,-3.28,4.44,-3.26,3.27,3.38,3.26,7.70,7.70,7.71
109.64,4.32,-3.31,4.32,-3.33,3.34,3.48,3.36,7.66,7.66,7.63
110.74,4.19,-3.40,4.19,-3.40,3.43,3.57,3.45,7.63,7.62,7.59
111.85,4.07,-3.52,4.07,-3.48,3.52,3.66,3.54,7.59,7.59,7.59
112.97,3.95,-3.55,3.95,-3.60,3.62,3.73,3.62,7.57,7.57,7.50
114.10,3.83,-3.72,3.83,-3.72,3.73,3.81,3.70,7.56,7.56,7.55
115.24,3.72,-3.87,3.73,-3.84,3.84,3.87,3.77,7.56,7.56,7.59
116.39,3.63,-3.96,3.63,-3.97,3.95,3.93,3.84,7.58,7.58,7.59
117.55,3.54,-4.05,3.55,-4.05,4.04,3.97,3.90,7.59,7.59,7.59
118.73,3.47,-4.12,3.47,-4.12,4.12,4.01,3.96,7.59,7.59,7.59
119.92,3.41,-4.19,3.40,-4.20,4.16,4.04,4.00,7.57,7.57,7.59
121.12,3.35,-4.25,3.35,-4.24,4.18,4.07,4.04,7.53,7.53,7.59
122.33,3.30,-4.26,3.30,-4.23,4.18,4.08,4.06,7.48,7.48,7.56
123.55,3.26,-4.18,3.26,-4.18,4.16,4.09,4.09,7.42,7.42,7.44
124.79,3.23,-4.09,3.23,-4.10,4.13,4.09,4.09,7.36,7.36,7.31
126.03,3.20,-4.04,3.20,-4.04,4.10,4.09,4.10,7.30,7.30,7.24
127.29,3.19,-4.01,3.19,-4.01,4.07,4.08,4.09,7.26,7.26,7.19
128.57,3.17,-4.02,3.17,-4.02,4.06,4.07,4.08,7.23,7.23,7.19
129.85,3.16,-4.03,3.16,-4.03,4.05,4.05,4.06,7.21,7.21,7.19
131.15,3.14,-4.05,3.14,-4.05,4.05,4.02,4.03,7.20,7.20,7.19
132.46,3.13,-4.06,3.13,-4.06,4.06,3.99,3.99,7.19,7.19,7.19
133.79,3.13,-4.07,3.13,-4.07,4.05,3.96,3.94,7.18,7.18,7.19
135.12,3.13,-4.06,3.13,-4.07,4.02,3.93,3.89,7.16,7.16,7.19
136.48,3.15,-4.05,3.15,-4.04,3.97,3.89,3.83,7.12,7.12,7.19
137.84,3.17,-3.98,3.17,-3.97,3.90,3.85,3.76,7.07,7.07,7.15
139.22,3.20,-3.87,3.20,-3.85,3.82,3.81,3.70,7.02,7.02,7.07
140.61,3.23,-3.70,3.23,-3.71,3.75,3.76,3.62,6.98,6.98,6.93
142.02,3.27,-3.58,3.27,-3.58,3.67,3.71,3.54,6.94,6.94,6.84
143.44,3.30,-3.49,3.30,-3.50,3.60,3.66,3.46,6.90,6.90,6.79
144.87,3.33,-3.46,3.33,-3.48,3.53,3.61,3.37,6.86,6.86,6.79
146.32,3.36,-3.50,3.36,-3.49,3.47,3.55,3.28,6.83,6.83,6.86
147.78,3.39,-3.50,3.39,-3.48,3.42,3.50,3.19,6.81,6.81,6.89
149.26,3.43,-3.45,3.43,-3.44,3.38,3.43,3.10,6.80,6.80,6.88
150.75,3.46,-3.35,3.46,-3.36,3.33,3.37,3.01,6.79,6.79,6.80
152.26,3.49,-3.26,3.49,-3.27,3.28,3.30,2.91,6.77,6.77,6.75
153.78,3.53,-3.17,3.53,-3.18,3.21,3.23,2.81,6.74,6.74,6.70
155.32,3.57,-3.12,3.57,-3.10,3.12,3.15,2.72,6.70,6.70,6.69
156.88,3.62,-3.03,3.62,-3.03,3.03,3.07,2.62,6.65,6.65,6.65
158.44,3.67,-2.92,3.67,-2.95,2.93,2.98,2.52,6.60,6.60,6.59
160.03,3.72,-2.87,3.72,-2.85,2.83,2.89,2.43,6.55,6.55,6.59
161.63,3.78,-2.76,3.78,-2.75,2.73,2.80,2.33,6.51,6.51,6.54
163.24,3.84,-2.64,3.84,-2.63,2.64,2.70,2.24,6.48,6.48,6.48
164.88,3.91,-2.49,3.91,-2.51,2.55,2.60,2.14,6.46,6.46,6.40
166.53,3.98,-2.42,3.98,-2.42,2.46,2.50,2.05,6.44,6.44,6.39
168.19,4.04,-2.35,4.04,-2.35,2.37,2.39,1.96,6.41,6.41,6.39
169.87,4.11,-2.28,4.11,-2.29,2.27,2.29,1.87,6.38,6.38,6.39
171.57,4.17,-2.22,4.17,-2.21,2.17,2.18,1.78,6.34,6.34,6.39
173.29,4.23,-2.12,4.23,-2.11,2.07,2.08,1.69,6.30,6.30,6.35
175.02,4.30,-2.00,4.30,-1.99,1.97,1.97,1.60,6.26,6.26,6.29
176.77,4.36,-1.84,4.36,-1.85,1.86,1.87,1.51,6.22,6.22,6.20
178.54,4.42,-1.72,4.42,-1.73,1.75,1.77,1.43,6.17,6.17,6.14
180.32,4.48,-1.61,4.48,-1.63,1.64,1.66,1.34,6.13,6.13,6.09
182.13,4.54,-1.56,4.54,-1.53,1.55,1.57,1.26,6.08,6.08,6.09
183.95,4.59,-1.46,4.59,-1.45,1.47,1.47,1.18,6.05,6.05,6.04
185.79,4.64,-1.35,4.64,-1.37,1.39,1.37,1.10,6.03,6.03,5.99
187.65,4.69,-1.30,4.69,-1.29,1.32,1.28,1.02,6.02,6.02,5.99
189.52,4.75,-1.25,4.75,-1.26,1.25,1.19,0.94,6.00,6.00,5.99
191.42,4.80,-1.21,4.80,-1.23,1.18,1.10,0.86,5.97,5.97,6.01
193.33,4.85,-1.22,4.85,-1.16,1.10,1.02,0.79,5.95,5.95,6.07
195.27,4.90,-1.06,4.90,-1.05,1.03,0.93,0.71,5.93,5.93,5.97
197.22,4.95,-0.90,4.95,-0.93,0.95,0.85,0.64,5.91,5.90,5.85
199.19,5.00,-0.79,5.00,-0.81,0.87,0.77,0.57,5.87,5.87,5.79
201.18,5.04,-0.75,5.04,-0.75,0.79,0.70,0.50,5.83,5.83,5.79
203.19,5.08,-0.71,5.08,-0.71,0.71,0.62,0.42,5.79,5.79,5.79
205.23,5.11,-0.67,5.11,-0.65,0.62,0.55,0.36,5.73,5.73,5.78
207.28,5.15,-0.57,5.15,-0.57,0.54,0.48,0.29,5.68,5.68,5.72
209.35,5.18,-0.47,5.18,-0.48,0.45,0.41,0.22,5.64,5.64,5.65
211.44,5.22,-0.37,5.22,-0.39,0.38,0.35,0.16,5.59,5.59,5.59
213.56,5.25,-0.34,5.25,-0.29,0.30,0.28,0.09,5.55,5.55,5.59
215.69,5.29,-0.19,5.29,-0.20,0.22,0.22,0.03,5.51,5.51,5.48
217.85,5.32,-0.07,5.32,-0.11,0.15,0.16,-0.03,5.46,5.46,5.39
220.03,5.35,-0.05,5.35,-0.04,0.08,0.10,-0.09,5.43,5.43,5.39
222.23,5.37,-0.02,5.38,-0.02,0.02,0.04,-0.15,5.39,5.39,5.39
224.45,5.40,0.01,5.40,0.01,-0.03,-0.02,-0.20,5.37,5.37,5.39
226.70,5.43,0.04,5.43,0.06,-0.08,-0.08,-0.26,5.35,5.35,5.39
228.96,5.46,0.13,5.45,0.11,-0.13,-0.13,-0.31,5.32,5.32,5.33
231.25,5.48,0.19,5.48,0.17,-0.18,-0.19,-0.36,5.30,5.30,5.29
233.57,5.50,0.21,5.50,0.23,-0.23,-0.24,-0.41,5.28,5.28,5.29
235.90,5.52,0.29,5.52,0.28,-0.28,-0.29,-0.46,5.24,5.24,5.23
238.26,5.54,0.35,5.54,0.34,-0.33,-0.34,-0.50,5.21,5.21,5.19
240.64,5.56,0.38,5.56,0.40,-0.38,-0.39,-0.54,5.17,5.17,5.18
243.05,5.57,0.46,5.57,0.44,-0.44,-0.44,-0.59,5.13,5.13,5.12
245.48,5.59,0.50,5.59,0.49,-0.50,-0.49,-0.62,5.09,5.09,5.09
247.93,5.60,0.53,5.60,0.55,-0.56,-0.54,-0.66,5.04,5.04,5.07
250.41,5.61,0.61,5.61,0.60,-0.63,-0.59,-0.70,4.98,4.98,5.01
252.92,5.62,0.68,5.62,0.68,-0.70,-0.64,-0.73,4.92,4.92,4.94
255.45,5.63,0.76,5.63,0.77,-0.77,-0.68,-0.76,4.87,4.87,4.88
258.00,5.64,0.85,5.64,0.85,-0.82,-0.73,-0.79,4.82,4.82,4.79
260.58,5.65,0.92,5.65,0.92,-0.87,-0.77,-0.82,4.78,4.78,4.73
263.19,5.66,0.96,5.66,0.96,-0.91,-0.82,-0.84,4.75,4.75,4.69
265.82,5.66,0.97,5.66,0.97,-0.95,-0.86,-0.87,4.71,4.71,4.69
268.48,5.66,0.97,5.66,0.97,-0.98,-0.91,-0.89,4.68,4.68,4.69
271.16,5.66,0.97,5.66,0.97,-1.01,-0.95,-0.91,4.66,4.66,4.69
273.87,5.66,0.97,5.66,0.99,-1.03,-0.99,-0.93,4.63,4.63,4.69
276.61,5.66,1.04,5.66,1.03,-1.06,-1.04,-0.95,4.60,4.60,4.63
279.38,5.66,1.10,5.66,1.10,-1.10,-1.08,-0.97,4.56,4.56,4.56
282.17,5.65,1.17,5.66,1.17,-1.15,-1.12,-0.99,4.51,4.51,4.49
284.99,5.65,1.23,5.65,1.21,-1.19,-1.16,-1.00,4.46,4.46,4.42
287.84,5.65,1.25,5.65,1.25,-1.24,-1.20,-1.02,4.40,4.40,4.39
290.72,5.64,1.27,5.64,1.29,-1.29,-1.24,-1.04,4.35,4.35,4.37
293.63,5.63,1.33,5.63,1.33,-1.33,-1.28,-1.05,4.30,4.30,4.30
296.57,5.62,1.40,5.62,1.37,-1.37,-1.32,-1.07,4.25,4.25,4.23
299.53,5.61,1.42,5.61,1.41,-1.41,-1.36,-1.08,4.20,4.20,4.19
302.53,5.60,1.41,5.60,1.43,-1.44,-1.39,-1.10,4.16,4.16,4.19
305.55,5.59,1.46,5.59,1.47,-1.47,-1.43,-1.12,4.11,4.11,4.13
308.61,5.57,1.51,5.57,1.51,-1.50,-1.47,-1.13,4.07,4.07,4.06
311.69,5.56,1.56,5.56,1.54,-1.52,-1.50,-1.15,4.04,4.04,4.00
314.81,5.54,1.55,5.54,1.57,-1.54,-1.54,-1.17,4.01,4.01,3.99
317.96,5.52,1.57,5.52,1.58,-1.56,-1.58,-1.19,3.96,3.96,3.95
321.14,5.50,1.61,5.50,1.59,-1.59,-1.61,-1.21,3.91,3.91,3.89
324.35,5.48,1.59,5.48,1.60,-1.64,-1.64,-1.23,3.85,3.85,3.89
327.59,5.46,1.62,5.46,1.63,-1.69,-1.68,-1.25,3.77,3.77,3.84
330.87,5.44,1.68,5.44,1.69,-1.75,-1.71,-1.27,3.69,3.69,3.76
334.18,5.42,1.79,5.42,1.79,-1.81,-1.74,-1.29,3.61,3.61,3.63
337.52,5.40,1.91,5.40,1.90,-1.87,-1.77,-1.32,3.53,3.53,3.49
340.90,5.38,2.00,5.38,1.99,-1.92,-1.80,-1.34,3.45,3.45,3.37
344.30,5.35,2.05,5.35,2.04,-1.97,-1.83,-1.37,3.38,3.38,3.31
347.75,5.33,2.04,5.33,2.04,-2.00,-1.86,-1.39,3.33,3.33,3.29
351.23,5.30,2.01,5.30,2.01,-2.02,-1.89,-1.42,3.28,3.28,3.29
354.74,5.28,1.99,5.28,1.98,-2.02,-1.91,-1.45,3.26,3.26,3.29
358.28,5.25,1.96,5.26,1.98,-2.01,-1.94,-1.48,3.25,3.25,3.29
361.87,5.23,1.97,5.23,1.98,-1.99,-1.96,-1.52,3.24,3.24,3.25
365.49,5.20,2.01,5.20,1.99,-1.97,-1.99,-1.55,3.24,3.24,3.19
369.14,5.17,1.98,5.17,1.98,-1.96,-2.01,-1.59,3.22,3.21,3.19
372.83,5.14,1.95,5.14,1.95,-1.96,-2.03,-1.62,3.18,3.18,3.19
376.56,5.11,1.92,5.11,1.94,-1.97,-2.05,-1.66,3.13,3.13,3.18
380.33,5.07,1.95,5.07,1.95,-1.99,-2.07,-1.70,3.08,3.08,3.12
384.13,5.04,1.99,5.04,1.99,-2.01,-2.09,-1.74,3.03,3.03,3.05
387.97,5.01,2.03,5.01,2.03,-2.03,-2.10,-1.78,2.98,2.98,2.98
391.85,4.97,2.06,4.98,2.07,-2.05,-2.12,-1.82,2.93,2.93,2.91
395.77,4.94,2.10,4.94,2.10,-2.06,-2.13,-1.86,2.88,2.88,2.84
399.73,4.91,2.12,4.91,2.10,-2.06,-2.14,-1.90,2.85,2.84,2.79
403.72,4.87,2.08,4.87,2.09,-2.05,-2.16,-1.94,2.82,2.82,2.79
407.76,4.84,2.05,4.84,2.05,-2.03,-2.16,-1.99,2.80,2.80,2.79
411.84,4.80,2.01,4.80,2.01,-2.01,-2.17,-2.03,2.79,2.79,2.79
415.96,4.76,1.97,4.76,1.97,-1.99,-2.18,-2.07,2.77,2.77,2.79
420.12,4.73,1.93,4.73,1.94,-1.98,-2.19,-2.11,2.74,2.74,2.79
424.32,4.69,1.93,4.69,1.94,-1.99,-2.19,-2.15,2.70,2.70,2.75
428.56,4.65,1.96,4.65,1.96,-2.00,-2.19,-2.20,2.64,2.64,2.68
432.85,4.61,1.99,4.61,2.01,-2.03,-2.19,-2.23,2.58,2.58,2.61
437.18,4.56,2.06,4.56,2.07,-2.05,-2.19,-2.27,2.51,2.51,2.50
441.55,4.52,2.14,4.52,2.13,-2.08,-2.19,-2.31,2.44,2.44,2.38
445.96,4.48,2.17,4.48,2.16,-2.10,-2.19,-2.35,2.38,2.38,2.31
450.42,4.44,2.15,4.44,2.15,-2.11,-2.18,-2.38,2.33,2.33,2.29
454.93,4.40,2.11,4.40,2.12,-2.11,-2.18,-2.41,2.29,2.29,2.29
459.48,4.36,2.07,4.36,2.09,-2.11,-2.17,-2.44,2.25,2.25,2.29
464.07,4.32,2.08,4.32,2.07,-2.10,-2.16,-2.46,2.22,2.22,2.23
468.71,4.27,2.08,4.27,2.06,-2.09,-2.15,-2.48,2.19,2.19,2.19
473.40,4.23,2.04,4.23,2.06,-2.08,-2.14,-2.50,2.15,2.15,2.19
478.13,4.18,2.05,4.18,2.05,-2.07,-2.12,-2.51,2.11,2.11,2.13
482.91,4.14,2.07,4.13,2.07,-2.07,-2.11,-2.52,2.07,2.07,2.06
487.74,4.09,2.09,4.09,2.09,-2.06,-2.09,-2.53,2.02,2.02,2.00
492.62,4.04,2.11,4.04,2.10,-2.06,-2.08,-2.53,1.98,1.98,1.93
497.55,3.98,2.09,3.98,2.08,-2.05,-2.06,-2.53,1.93,1.93,1.89
502.52,3.93,2.04,3.93,2.04,-2.04,-2.04,-2.52,1.89,1.89,1.89
507.55,3.88,1.98,3.88,2.00,-2.04,-2.02,-2.51,1.84,1.84,1.89
512.62,3.82,1.98,3.82,1.98,-2.03,-2.00,-2.49,1.80,1.80,1.85
517.75,3.77,1.99,3.77,1.99,-2.01,-1.97,-2.47,1.76,1.76,1.78
522.93,3.71,2.01,3.71,2.01,-1.99,-1.95,-2.44,1.72,1.72,1.71
528.16,3.66,2.02,3.66,2.01,-1.98,-1.92,-2.41,1.68,1.68,1.64
533.44,3.60,2.01,3.60,2.00,-1.96,-1.90,-2.38,1.64,1.64,1.59
538.77,3.55,1.95,3.55,1.95,-1.95,-1.87,-2.34,1.60,1.60,1.59
544.16,3.49,1.90,3.49,1.92,-1.92,-1.84,-2.30,1.57,1.57,1.59
549.60,3.43,1.87,3.43,1.88,-1.89,-1.81,-2.26,1.54,1.54,1.56
