frequency,raw,error,smoothed,error_smoothed,equalization,parametric_eq,fixed_band_eq,equalized_raw,equalized_smoothed,target
20.00,-0.24,-8.00,-0.24,-8.01,6.00,5.89,2.69,5.76,5.76,7.77
20.20,-0.18,-7.98,-0.18,-7.97,6.00,5.89,2.76,5.82,5.82,7.80
20.40,-0.13,-7.93,-0.13,-7.93,6.00,5.90,2.84,5.87,5.87,7.80
20.61,-0.08,-7.88,-0.08,-7.91,6.00,5.91,2.92,5.92,5.92,7.80
20.81,-0.03,-7.90,-0.03,-7.88,6.00,5.91,3.00,5.97,5.97,7.87
21.02,0.01,-7.89,0.01,-7.88,6.00,5.92,3.09,6.01,6.01,7.90
21.23,0.05,-7.86,0.05,-7.88,6.00,5.92,3.18,6.05,6.05,7.91
21.44,0.08,-7.88,0.08,-7.88,6.00,5.93,3.27,6.08,6.08,7.96
21.66,0.12,-7.90,0.12,-7.90,6.00,5.94,3.36,6.12,6.12,8.02
21.87,0.15,-7.94,0.15,-7.94,6.00,5.94,3.46,6.15,6.15,8.09
22.09,0.19,-7.98,0.19,-7.98,6.00,5.95,3.55,6.19,6.19,8.16
22.31,0.23,-8.01,0.23,-8.01,6.00,5.95,3.65,6.23,6.23,8.24
22.54,0.27,-8.04,0.27,-8.04,6.00,5.96,3.76,6.27,6.27,8.31
22.76,0.31,-8.08,0.31,-8.07,6.00,5.96,3.86,6.31,6.31,8.39
22.99,0.35,-8.09,0.35,-8.09,6.00,5.97,3.97,6.35,6.35,8.45
23.22,0.39,-8.11,0.39,-8.12,6.00,5.97,4.08,6.39,6.39,8.51
23.45,0.43,-8.16,0.43,-8.16,6.00,5.97,4.20,6.43,6.43,8.58
23.69,0.46,-8.20,0.46,-8.20,6.00,5.98,4.31,6.46,6.46,8.66
23.92,0.49,-8.24,0.49,-8.23,6.00,5.98,4.43,6.49,6.49,8.73
24.16,0.53,-8.27,0.53,-8.25,6.00,5.99,4.55,6.53,6.53,8.79
24.40,0.56,-8.24,0.56,-8.26,6.00,5.99,4.67,6.56,6.56,8.80
24.65,0.59,-8.25,0.59,-8.26,6.00,5.99,4.80,6.59,6.59,8.84
24.89,0.62,-8.28,0.62,-8.26,6.00,6.00,4.92,6.62,6.62,8.90
25.14,0.65,-8.25,0.65,-8.25,6.00,6.00,5.05,6.65,6.65,8.90
25.39,0.68,-8.22,0.68,-8.23,6.00,6.00,5.18,6.68,6.68,8.90
25.65,0.70,-8.20,0.70,-8.20,6.00,6.01,5.31,6.70,6.70,8.90
25.91,0.73,-8.17,0.73,-8.17,6.00,6.01,5.44,6.73,6.73,8.90
26.16,0.75,-8.15,0.75,-8.15,6.00,6.01,5.57,6.75,6.75,8.90
26.43,0.77,-8.13,0.77,-8.13,6.00,6.02,5.70,6.77,6.77,8.90
26.69,0.80,-8.10,0.80,-8.09,6.00,6.02,5.83,6.80,6.80,8.90
26.96,0.82,-8.04,0.82,-8.04,6.00,6.02,5.96,6.82,6.82,8.86
27.23,0.85,-7.95,0.85,-7.97,6.00,6.02,6.08,6.85,6.85,8.80
27.50,0.88,-7.92,0.88,-7.90,6.00,6.03,6.21,6.88,6.88,8.80
27.77,0.91,-7.84,0.91,-7.83,6.00,6.03,6.33,6.91,6.91,8.74
28.05,0.94,-7.76,0.94,-7.78,6.00,6.03,6.44,6.94,6.94,8.70
28.33,0.97,-7.73,0.97,-7.73,6.00,6.03,6.55,6.97,6.97,8.70
28.62,0.99,-7.71,0.99,-7.70,6.00,6.04,6.66,6.99,6.99,8.70
28.90,1.02,-7.68,1.02,-7.68,6.00,6.04,6.76,7.02,7.02,8.70
29.19,1.04,-7.66,1.04,-7.66,6.00,6.04,6.85,7.04,7.04,8.70
29.48,1.06,-7.64,1.06,-7.65,6.00,6.04,6.93,7.06,7.06,8.70
29.78,1.09,-7.66,1.09,-7.66,6.00,6.05,7.01,7.09,7.09,8.74
30.08,1.12,-7.68,1.12,-7.66,6.00,6.05,7.08,7.12,7.12,8.80
30.38,1.15,-7.65,1.15,-7.67,6.00,6.05,7.14,7.15,7.15,8.80
30.68,1.18,-7.67,1.18,-7.67,6.00,6.06,7.19,7.18,7.18,8.84
30.99,1.21,-7.69,1.21,-7.67,6.00,6.06,7.23,7.21,7.21,8.90
31.30,1.24,-7.66,1.24,-7.66,6.00,6.06,7.25,7.24,7.24,8.90
31.61,1.27,-7.63,1.27,-7.63,6.00,6.07,7.28,7.27,7.27,8.90
31.93,1.29,-7.61,1.29,-7.61,6.00,6.07,7.28,7.29,7.29,8.90
32.24,1.31,-7.59,1.31,-7.61,6.00,6.07,7.29,7.31,7.31,8.90
32.57,1.33,-7.62,1.33,-7.61,6.00,6.07,7.27,7.33,7.33,8.95
32.89,1.36,-7.64,1.36,-7.62,6.00,6.07,7.26,7.36,7.36,9.00
33.22,1.38,-7.63,1.38,-7.65,6.00,6.07,7.23,7.38,7.38,9.00
33.55,1.40,-7.67,1.40,-7.68,6.00,6.07,7.20,7.40,7.40,9.07
33.89,1.43,-7.71,1.43,-7.70,6.00,6.07,7.16,7.43,7.43,9.14
34.23,1.45,-7.75,1.45,-7.73,6.00,6.06,7.11,7.45,7.45,9.20
34.57,1.47,-7.73,1.47,-7.75,6.00,6.06,7.06,7.47,7.47,9.20
34.92,1.49,-7.75,1.49,-7.76,6.00,6.06,7.00,7.49,7.49,9.24
35.27,1.51,-7.79,1.51,-7.77,6.00,6.05,6.94,7.51,7.51,9.30
35.62,1.53,-7.77,1.53,-7.78,6.00,6.05,6.87,7.53,7.53,9.30
35.97,1.55,-7.75,1.55,-7.75,6.00,6.05,6.81,7.55,7.55,9.30
36.33,1.57,-7.71,1.57,-7.70,6.00,6.04,6.74,7.57,7.57,9.28
36.70,1.58,-7.63,1.58,-7.65,6.00,6.04,6.67,7.58,7.58,9.22
37.06,1.60,-7.60,1.60,-7.60,6.00,6.04,6.60,7.60,7.60,9.20
37.43,1.62,-7.56,1.62,-7.54,6.00,6.03,6.53,7.62,7.62,9.18
37.81,1.63,-7.48,1.63,-7.50,6.00,6.03,6.46,7.63,7.63,9.11
38.19,1.65,-7.45,1.65,-7.44,6.00,6.03,6.39,7.65,7.65,9.10
38.57,1.67,-7.41,1.67,-7.39,6.00,6.03,6.32,7.67,7.67,9.07
38.95,1.68,-7.33,1.68,-7.35,6.00,6.03,6.26,7.68,7.68,9.01
39.34,1.70,-7.30,1.70,-7.29,6.00,6.02,6.20,7.70,7.70,9.00
39.74,1.71,-7.25,1.71,-7.24,6.00,6.02,6.14,7.71,7.71,8.96
40.14,1.73,-7.17,1.73,-7.20,6.00,6.02,6.09,7.73,7.73,8.90
40.54,1.74,-7.16,1.74,-7.14,6.00,6.02,6.03,7.74,7.74,8.90
40.94,1.76,-7.10,1.76,-7.09,6.00,6.02,5.98,7.76,7.76,8.86
41.35,1.77,-7.03,1.77,-7.05,6.00,6.01,5.94,7.77,7.77,8.80
41.76,1.79,-7.01,1.79,-7.01,6.00,6.01,5.90,7.79,7.79,8.80
42.18,1.80,-7.00,1.80,-6.99,6.00,6.01,5.86,7.80,7.80,8.80
42.60,1.82,-7.00,1.82,-7.01,6.00,6.01,5.83,7.82,7.82,8.82
43.03,1.83,-7.06,1.83,-7.08,6.00,6.01,5.80,7.83,7.83,8.89
43.46,1.85,-7.17,1.85,-7.17,6.00,6.01,5.78,7.85,7.85,9.02
43.90,1.86,-7.26,1.86,-7.25,6.00,6.01,5.76,7.86,7.86,9.13
44.33,1.88,-7.31,1.88,-7.30,6.00,6.01,5.74,7.88,7.88,9.19
44.78,1.90,-7.30,1.90,-7.29,6.00,6.00,5.73,7.90,7.90,9.20
45.23,1.91,-7.25,1.91,-7.25,6.00,6.00,5.72,7.91,7.91,9.17
45.68,1.93,-7.17,1.93,-7.20,6.00,6.00,5.72,7.93,7.93,9.10
46.13,1.94,-7.16,1.94,-7.13,6.00,6.00,5.72,7.94,7.94,9.10
46.60,1.96,-7.10,1.96,-7.09,6.00,6.00,5.73,7.96,7.96,9.06
47.06,1.97,-7.04,1.97,-7.08,6.00,6.00,5.74,7.97,7.97,9.01
47.53,1.98,-7.10,1.98,-7.08,6.00,6.00,5.75,7.98,7.98,9.08
48.01,1.99,-7.11,1.99,-7.10,6.00,6.00,5.77,7.99,7.99,9.10
48.49,2.00,-7.10,2.00,-7.11,6.00,6.00,5.79,8.00,8.00,9.10
48.97,2.00,-7.10,2.00,-7.09,6.00,6.00,5.82,8.00,8.00,9.10
49.46,2.01,-7.09,2.01,-7.10,6.00,6.00,5.85,8.01,8.01,9.10
49.96,2.02,-7.10,2.02,-7.12,6.00,6.00,5.88,8.02,8.02,9.12
50.46,2.03,-7.16,2.03,-7.13,6.00,6.00,5.91,8.03,8.03,9.19
50.96,2.05,-7.15,2.05,-7.15,6.00,6.00,5.95,8.05,8.05,9.20
51.47,2.08,-7.15,2.08,-7.17,6.00,6.00,5.99,8.08,8.08,9.22
51.99,2.11,-7.19,2.11,-7.17,6.00,6.00,6.03,8.11,8.11,9.30
52.51,2.14,-7.16,2.14,-7.15,6.00,6.00,6.07,8.14,8.14,9.30
53.03,2.18,-7.09,2.18,-7.09,6.00,6.01,6.11,8.18,8.18,9.27
53.56,2.21,-6.99,2.21,-6.99,6.00,6.01,6.16,8.21,8.21,9.19
54.10,2.22,-6.90,2.22,-6.91,6.00,6.01,6.20,8.22,8.22,9.13
54.64,2.22,-6.83,2.22,-6.83,6.00,6.01,6.24,8.22,8.22,9.06
55.18,2.20,-6.79,2.20,-6.78,6.00,6.01,6.28,8.20,8.20,8.99
55.74,2.18,-6.74,2.19,-6.74,6.00,6.01,6.32,8.18,8.19,8.92
56.29,2.18,-6.72,2.18,-6.73,6.00,6.02,6.36,8.18,8.18,8.90
56.86,2.18,-6.74,2.19,-6.75,6.00,6.02,6.40,8.18,8.19,8.92
57.42,2.20,-6.79,2.20,-6.77,6.00,6.02,6.43,8.20,8.20,8.99
58.00,2.22,-6.78,2.22,-6.77,6.00,6.02,6.46,8.22,8.22,9.00
58.58,2.23,-6.75,2.23,-6.74,6.00,6.02,6.48,8.23,8.23,8.98
59.16,2.24,-6.66,2.24,-6.66,6.00,6.02,6.50,8.24,8.24,8.90
59.76,2.25,-6.58,2.25,-6.60,6.00,6.02,6.51,8.25,8.25,8.84
60.35,2.26,-6.54,2.26,-6.55,6.00,6.03,6.52,8.26,8.26,8.80
60.96,2.26,-6.53,2.27,-6.53,6.00,6.03,6.52,8.26,8.27,8.80
61.57,2.27,-6.53,2.27,-6.51,6.00,6.03,6.52,8.27,8.27,8.80
62.18,2.28,-6.48,2.28,-6.48,6.00,6.03,6.51,8.28,8.28,8.76
62.80,2.28,-6.42,2.28,-6.44,6.00,6.03,6.49,8.28,8.28,8.70
63.43,2.29,-6.41,2.29,-6.41,6.00,6.03,6.47,8.29,8.29,8.70
64.07,2.29,-6.41,2.29,-6.40,6.00,6.02,6.44,8.29,8.29,8.70
64.71,2.30,-6.40,2.30,-6.40,6.00,6.02,6.40,8.30,8.30,8.70
65.35,2.31,-6.39,2.31,-6.41,6.00,6.02,6.35,8.31,8.31,8.70
66.01,2.32,-6.43,2.32,-6.43,6.00,6.01,6.30,8.32,8.32,8.75
66.67,2.33,-6.47,2.33,-6.45,6.00,6.01,6.25,8.33,8.33,8.80
67.33,2.34,-6.46,2.34,-6.46,6.00,6.00,6.19,8.34,8.34,8.80
68.01,2.35,-6.45,2.35,-6.44,6.00,5.99,6.12,8.35,8.35,8.80
68.69,2.36,-6.41,2.36,-6.40,6.00,5.98,6.06,8.36,8.36,8.77
69.37,2.37,-6.33,2.37,-6.36,6.00,5.97,5.98,8.37,8.37,8.70
70.07,2.38,-6.32,2.37,-6.33,6.00,5.96,5.91,8.38,8.38,8.70
70.77,2.38,-6.32,2.38,-6.32,6.01,5.95,5.83,8.39,8.39,8.70
71.48,2.39,-6.31,2.39,-6.32,6.01,5.93,5.75,8.39,8.39,8.70
72.19,2.39,-6.31,2.39,-6.30,6.01,5.91,5.67,8.40,8.40,8.70
72.91,2.40,-6.26,2.40,-6.24,6.00,5.89,5.58,8.40,8.40,8.66
73.64,2.40,-6.17,2.40,-6.15,5.99,5.87,5.50,8.39,8.39,8.57
74.38,2.41,-6.03,2.41,-6.07,5.98,5.85,5.42,8.39,8.39,8.44
75.12,2.42,-5.98,2.42,-5.98,5.97,5.83,5.33,8.39,8.39,8.40
75.87,2.43,-5.96,2.43,-5.93,5.95,5.80,5.25,8.38,8.38,8.38
76.63,2.43,-5.88,2.43,-5.90,5.93,5.77,5.17,8.36,8.36,8.31
77.40,2.44,-5.86,2.44,-5.87,5.89,5.74,5.09,8.33,8.33,8.30
78.17,2.45,-5.85,2.45,-5.85,5.85,5.71,5.01,8.29,8.29,8.30
78.95,2.45,-5.85,2.45,-5.83,5.79,5.67,4.94,8.24,8.24,8.30
79.74,2.46,-5.78,2.46,-5.77,5.72,5.64,4.86,8.18,8.18,8.24
80.54,2.46,-5.68,2.46,-5.68,5.65,5.60,4.79,8.11,8.11,8.14
81.35,2.46,-5.54,2.46,-5.57,5.57,5.56,4.72,8.03,8.03,8.01
82.16,2.47,-5.47,2.47,-5.47,5.49,5.51,4.66,7.96,7.96,7.94
82.98,2.47,-5.39,2.47,-5.38,5.41,5.47,4.59,7.89,7.89,7.87
83.81,2.48,-5.32,2.48,-5.31,5.35,5.43,4.54,7.83,7.83,7.80
84.65,2.49,-5.24,2.49,-5.25,5.29,5.38,4.48,7.77,7.77,7.73
85.50,2.49,-5.21,2.49,-5.22,5.24,5.33,4.42,7.73,7.73,7.70
86.35,2.50,-5.20,2.50,-5.20,5.20,5.29,4.37,7.69,7.69,7.70
87.22,2.50,-5.20,2.50,-5.21,5.16,5.24,4.33,7.67,7.67,7.70
88.09,2.51,-5.19,2.51,-5.18,5.14,5.19,4.28,7.64,7.64,7.70
88.97,2.51,-5.15,2.51,-5.12,5.11,5.13,4.24,7.62,7.62,7.66
89.86,2.51,-5.01,2.52,-5.05,5.07,5.08,4.20,7.59,7.59,7.52
90.76,2.52,-4.98,2.52,-5.00,5.03,5.03,4.17,7.55,7.55,7.50
91.66,2.52,-4.98,2.52,-4.97,4.97,4.98,4.14,7.50,7.50,7.50
92.58,2.53,-4.97,2.53,-4.96,4.91,4.92,4.11,7.44,7.44,7.50
93.51,2.53,-4.91,2.53,-4.90,4.85,4.87,4.08,7.38,7.38,7.44
94.44,2.53,-4.81,2.53,-4.80,4.78,4.81,4.06,7.31,7.31,7.34
95.39,2.53,-4.67,2.53,-4.69,4.72,4.76,4.04,7.25,7.25,7.20
96.34,2.53,-4.60,2.53,-4.62,4.66,4.70,4.03,7.19,7.19,7.13
97.30,2.53,-4.57,2.53,-4.57,4.59,4.65,4.01,7.12,7.12,7.10
98.28,2.53,-4.56,2.53,-4.54,4.53,4.59,4.00,7.06,7.06,7.09
99.26,2.53,-4.49,2.53,-4.48,4.47,4.53,3.99,7.00,7.00,7.02
100.25,2.54,-4.42,2.54,-4.43,4.42,4.48,3.98,6.96,6.96,6.95
101.25,2.54,-4.36,2.54,-4.38,4.38,4.42,3.98,6.93,6.93,6.90
102.27,2.55,-4.35,2.55,-4.33,4.34,4.37,3.97,6.89,6.89,6.90
103.29,2.56,-4.31,2.56,-4.30,4.30,4.31,3.97,6.86,6.86,6.87
104.32,2.56,-4.24,2.56,-4.27,4.26,4.25,3.97,6.82,6.82,6.80
105.37,2.57,-4.23,2.57,-4.22,4.21,4.20,3.97,6.78,6.78,6.80
106.42,2.57,-4.19,2.57,-4.17,4.17,4.14,3.97,6.74,6.74,6.76
107.48,2.57,-4.11,2.57,-4.12,4.13,4.09,3.97,6.69,6.69,6.68
108.56,2.57,-4.05,2.57,-4.07,4.08,4.03,3.97,6.65,6.65,6.62
109.64,2.57,-4.03,2.57,-4.03,4.02,3.98,3.97,6.59,6.59,6.60
110.74,2.57,-3.99,2.57,-3.98,3.96,3.92,3.97,6.53,6.53,6.56
111.85,2.58,-3.93,2.58,-3.92,3.90,3.86,3.97,6.47,6.47,6.51
112.97,2.58,-3.82,2.58,-3.84,3.83,3.81,3.96,6.41,6.41,6.40
114.10,2.58,-3.76,2.58,-3.77,3.77,3.75,3.96,6.36,6.36,6.34
115.24,2.59,-3.70,2.59,-3.69,3.72,3.70,3.95,6.30,6.30,6.29
116.39,2.59,-3.64,2.59,-3.63,3.66,3.64,3.94,6.25,6.25,6.23
117.55,2.59,-3.55,2.59,-3.57,3.60,3.59,3.93,6.19,6.19,6.14
118.73,2.59,-3.51,2.59,-3.53,3.52,3.53,3.91,6.11,6.11,6.10
119.92,2.59,-3.51,2.59,-3.49,3.44,3.48,3.89,6.03,6.03,6.10
121.12,2.59,-3.45,2.59,-3.45,3.36,3.42,3.87,5.95,5.95,6.04
122.33,2.59,-3.37,2.59,-3.36,3.28,3.37,3.84,5.88,5.88,5.97
123.55,2.59,-3.25,2.59,-3.22,3.23,3.31,3.82,5.82,5.82,5.84
124.79,2.59,-3.06,2.59,-3.10,3.20,3.26,3.78,5.78,5.78,5.64
126.03,2.58,-3.02,2.58,-3.04,3.18,3.21,3.74,5.77,5.77,5.60
127.29,2.58,-3.05,2.58,-3.07,3.19,3.15,3.70,5.76,5.76,5.63
128.57,2.57,-3.19,2.57,-3.17,3.20,3.10,3.65,5.77,5.77,5.76
129.85,2.56,-3.28,2.56,-3.27,3.22,3.04,3.60,5.78,5.78,5.84
131.15,2.55,-3.35,2.55,-3.34,3.23,2.99,3.54,5.78,5.78,5.90
132.46,2.54,-3.36,2.54,-3.34,3.23,2.93,3.48,5.77,5.77,5.90
133.79,2.53,-3.29,2.53,-3.28,3.20,2.88,3.42,5.74,5.74,5.82
135.12,2.52,-3.17,2.52,-3.17,3.15,2.82,3.35,5.67,5.67,5.69
136.48,2.51,-3.04,2.51,-3.04,3.06,2.77,3.29,5.58,5.58,5.55
137.84,2.51,-2.91,2.51,-2.91,2.96,2.71,3.21,5.47,5.47,5.42
139.22,2.50,-2.79,2.50,-2.80,2.86,2.66,3.14,5.36,5.37,5.29
140.61,2.51,-2.71,2.51,-2.70,2.76,2.60,3.06,5.27,5.27,5.22
142.02,2.51,-2.64,2.51,-2.64,2.67,2.55,2.98,5.18,5.18,5.15
143.44,2.52,-2.58,2.52,-2.60,2.59,2.49,2.90,5.11,5.11,5.10
144.87,2.53,-2.57,2.53,-2.55,2.51,2.44,2.82,5.04,5.04,5.10
146.32,2.54,-2.50,2.54,-2.48,2.43,2.38,2.73,4.97,4.97,5.03
147.78,2.54,-2.38,2.54,-2.38,2.35,2.33,2.65,4.89,4.89,4.92
149.26,2.55,-2.24,2.55,-2.26,2.27,2.27,2.56,4.81,4.81,4.79
150.75,2.55,-2.16,2.55,-2.15,2.18,2.21,2.47,4.73,4.73,4.71
152.26,2.55,-2.07,2.55,-2.06,2.09,2.16,2.38,4.63,4.63,4.62
153.78,2.55,-1.97,2.55,-1.97,1.99,2.10,2.30,4.54,4.54,4.51
155.32,2.55,-1.89,2.55,-1.91,1.91,2.04,2.21,4.45,4.45,4.43
156.88,2.54,-1.85,2.54,-1.84,1.83,1.99,2.12,4.38,4.38,4.40
158.44,2.54,-1.81,2.54,-1.77,1.77,1.93,2.03,4.31,4.31,4.36
160.03,2.54,-1.66,2.54,-1.69,1.71,1.87,1.94,4.25,4.25,4.20
161.63,2.54,-1.61,2.54,-1.62,1.65,1.82,1.86,4.19,4.19,4.15
163.24,2.53,-1.57,2.53,-1.57,1.58,1.76,1.77,4.12,4.12,4.10
164.88,2.53,-1.57,2.53,-1.54,1.51,1.70,1.68,4.04,4.04,4.10
166.53,2.51,-1.48,2.51,-1.49,1.43,1.64,1.60,3.95,3.95,4.00
168.19,2.50,-1.39,2.50,-1.40,1.36,1.58,1.51,3.86,3.86,3.89
169.87,2.49,-1.32,2.49,-1.29,1.29,1.52,1.43,3.78,3.78,3.81
171.57,2.47,-1.17,2.48,-1.18,1.22,1.47,1.35,3.70,3.70,3.64
173.29,2.46,-1.09,2.46,-1.11,1.16,1.41,1.26,3.63,3.63,3.56
175.02,2.45,-1.05,2.45,-1.06,1.11,1.35,1.18,3.56,3.56,3.50
176.77,2.44,-1.06,2.44,-1.03,1.05,1.29,1.10,3.49,3.49,3.50
178.54,2.44,-1.01,2.44,-1.02,0.99,1.23,1.02,3.43,3.43,3.45
180.32,2.43,-0.97,2.43,-0.99,0.94,1.17,0.94,3.37,3.37,3.40
182.13,2.43,-0.97,2.43,-0.93,0.89,1.11,0.86,3.32,3.32,3.40
183.95,2.44,-0.87,2.43,-0.86,0.83,1.05,0.79,3.27,3.27,3.30
185.79,2.44,-0.74,2.44,-0.76,0.78,0.99,0.71,3.21,3.21,3.17
187.65,2.44,-0.67,2.44,-0.67,0.72,0.93,0.63,3.16,3.16,3.11
189.52,2.44,-0.60,2.44,-0.61,0.65,0.87,0.56,3.09,3.09,3.05
191.42,2.45,-0.55,2.45,-0.57,0.58,0.81,0.48,3.02,3.02,3.00
193.33,2.45,-0.55,2.45,-0.53,0.50,0.74,0.41,2.95,2.95,3.00
195.27,2.45,-0.48,2.45,-0.49,0.43,0.68,0.33,2.88,2.88,2.94
197.22,2.45,-0.41,2.45,-0.41,0.37,0.62,0.26,2.82,2.82,2.86
199.19,2.45,-0.34,2.45,-0.31,0.32,0.56,0.19,2.77,2.77,2.79
201.18,2.45,-0.21,2.45,-0.23,0.27,0.50,0.12,2.72,2.72,2.65
203.19,2.44,-0.16,2.44,-0.18,0.23,0.44,0.05,2.67,2.67,2.60
205.23,2.44,-0.16,2.44,-0.15,0.19,0.38,-0.02,2.62,2.62,2.60
207.28,2.43,-0.17,2.43,-0.17,0.16,0.32,-0.09,2.59,2.59,2.60
209.35,2.43,-0.17,2.42,-0.17,0.15,0.26,-0.15,2.57,2.57,2.60
211.44,2.42,-0.17,2.42,-0.15,0.14,0.20,-0.22,2.56,2.56,2.58
213.56,2.41,-0.11,2.41,-0.13,0.14,0.14,-0.28,2.55,2.55,2.51
215.69,2.40,-0.10,2.40,-0.12,0.13,0.08,-0.34,2.52,2.52,2.50
217.85,2.38,-0.12,2.38,-0.11,0.10,0.02,-0.40,2.49,2.49,2.50
220.03,2.37,-0.12,2.37,-0.12,0.06,-0.04,-0.46,2.44,2.44,2.50
222.23,2.37,-0.08,2.37,-0.07,0.01,-0.10,-0.52,2.38,2.38,2.44
224.45,2.36,-0.01,2.36,0.01,-0.04,-0.16,-0.57,2.32,2.32,2.37
226.70,2.35,0.13,2.35,0.11,-0.08,-0.21,-0.62,2.27,2.27,2.22
228.96,2.34,0.21,2.34,0.19,-0.13,-0.27,-0.67,2.21,2.21,2.13
231.25,2.34,0.24,2.34,0.23,-0.17,-0.32,-0.72,2.16,2.16,2.10
233.57,2.33,0.23,2.33,0.23,-0.21,-0.38,-0.76,2.12,2.12,2.10
235.90,2.32,0.23,2.32,0.24,-0.25,-0.43,-0.80,2.08,2.08,2.10
238.26,2.32,0.26,2.32,0.26,-0.28,-0.48,-0.84,2.04,2.04,2.06
240.64,2.31,0.31,2.31,0.28,-0.31,-0.53,-0.88,2.00,2.00,2.00
243.05,2.30,0.30,2.30,0.31,-0.34,-0.58,-0.91,1.96,1.96,2.00
245.48,2.29,0.34,2.29,0.36,-0.38,-0.63,-0.94,1.90,1.90,1.95
247.93,2.27,0.42,2.27,0.42,-0.44,-0.68,-0.97,1.83,1.83,1.85
250.41,2.26,0.53,2.26,0.51,-0.51,-0.72,-0.99,1.75,1.75,1.73
252.92,2.24,0.59,2.24,0.59,-0.57,-0.76,-1.01,1.67,1.67,1.65
255.45,2.23,0.64,2.23,0.65,-0.64,-0.81,-1.03,1.59,1.59,1.58
258.00,2.21,0.71,2.21,0.70,-0.69,-0.84,-1.04,1.52,1.52,1.50
260.58,2.19,0.76,2.19,0.76,-0.74,-0.88,-1.05,1.45,1.45,1.44
263.19,2.17,0.80,2.17,0.81,-0.79,-0.92,-1.06,1.39,1.39,1.37
265.82,2.15,0.85,2.15,0.83,-0.82,-0.95,-1.07,1.33,1.33,1.30
268.48,2.14,0.84,2.14,0.84,-0.86,-0.98,-1.07,1.28,1.28,1.30
271.16,2.12,0.85,2.12,0.86,-0.88,-1.01,-1.07,1.23,1.23,1.27
273.87,2.10,0.89,2.09,0.89,-0.91,-1.04,-1.07,1.18,1.18,1.20
276.61,2.07,0.94,2.07,0.94,-0.94,-1.06,-1.07,1.14,1.13,1.13
279.38,2.05,0.98,2.05,0.98,-0.96,-1.09,-1.06,1.08,1.09,1.07
282.17,2.02,1.02,2.02,1.00,-0.99,-1.11,-1.05,1.03,1.03,1.00
284.99,2.00,1.00,2.00,1.01,-1.01,-1.12,-1.04,0.98,0.98,1.00
287.84,1.97,1.02,1.97,1.04,-1.04,-1.14,-1.03,0.93,0.93,0.95
290.72,1.95,1.07,1.95,1.06,-1.07,-1.15,-1.02,0.88,0.88,0.88
293.63,1.92,1.12,1.92,1.09,-1.09,-1.17,-1.01,0.83,0.83,0.81
296.57,1.90,1.10,1.90,1.11,-1.12,-1.17,-1.00,0.79,0.79,0.80
299.53,1.88,1.11,1.88,1.13,-1.14,-1.18,-0.98,0.74,0.74,0.77
302.53,1.86,1.15,1.86,1.16,-1.16,-1.19,-0.97,0.70,0.70,0.71
305.55,1.84,1.20,1.84,1.19,-1.18,-1.19,-0.96,0.66,0.66,0.64
308.61,1.82,1.22,1.82,1.20,-1.19,-1.19,-0.94,0.63,0.63,0.60
311.69,1.80,1.20,1.80,1.20,-1.19,-1.19,-0.93,0.60,0.60,0.60
314.81,1.77,1.18,1.77,1.19,-1.19,-1.19,-0.91,0.58,0.58,0.60
317.96,1.75,1.19,1.75,1.20,-1.19,-1.18,-0.90,0.56,0.56,0.56
321.14,1.72,1.22,1.72,1.20,-1.18,-1.18,-0.88,0.54,0.54,0.50
324.35,1.70,1.20,1.70,1.19,-1.19,-1.17,-0.87,0.51,0.51,0.50
327.59,1.67,1.17,1.67,1.17,-1.21,-1.16,-0.86,0.46,0.46,0.50
330.87,1.64,1.16,1.64,1.17,-1.24,-1.15,-0.84,0.40,0.40,0.48
334.18,1.61,1.19,1.61,1.21,-1.26,-1.14,-0.83,0.34,0.34,0.42
337.52,1.58,1.28,1.58,1.28,-1.29,-1.13,-0.82,0.29,0.29,0.30
340.90,1.55,1.37,1.55,1.35,-1.31,-1.12,-0.81,0.24,0.24,0.18
344.30,1.52,1.40,1.52,1.39,-1.32,-1.10,-0.80,0.20,0.20,0.11
347.75,1.48,1.38,1.48,1.38,-1.32,-1.09,-0.79,0.17,0.17,0.10
351.23,1.45,1.33,1.45,1.32,-1.30,-1.07,-0.78,0.15,0.15,0.12
354.74,1.42,1.22,1.42,1.25,-1.26,-1.05,-0.77,0.16,0.16,0.19
358.28,1.38,1.18,1.38,1.19,-1.20,-1.03,-0.76,0.18,0.18,0.20
361.87,1.35,1.15,1.35,1.14,-1.14,-1.02,-0.76,0.21,0.21,0.20
365.49,1.31,1.10,1.31,1.08,-1.08,-1.00,-0.75,0.23,0.23,0.21
369.14,1.28,1.01,1.28,1.01,-1.04,-0.98,-0.74,0.24,0.24,0.27
372.83,1.24,0.94,1.24,0.96,-1.02,-0.96,-0.74,0.23,0.23,0.30
376.56,1.20,0.92,1.20,0.96,-1.00,-0.94,-0.73,0.20,0.20,0.28
380.33,1.17,1.01,1.17,0.98,-0.99,-0.92,-0.73,0.17,0.17,0.16
384.13,1.13,1.03,1.13,1.01,-0.98,-0.90,-0.73,0.14,0.14,0.10
387.97,1.09,1.00,1.09,1.03,-0.97,-0.88,-0.72,0.11,0.11,0.08
391.85,1.05,1.03,1.05,1.02,-0.97,-0.86,-0.72,0.08,0.08,0.02
395.77,1.01,1.01,1.01,0.98,-0.96,-0.84,-0.72,0.05,0.05,-0.00
399.73,0.97,0.94,0.97,0.93,-0.95,-0.82,-0.72,0.02,0.02,0.03
403.72,0.93,0.84,0.93,0.88,-0.93,-0.80,-0.72,0.00,-0.00,0.10
407.76,0.90,0.86,0.90,0.87,-0.91,-0.78,-0.72,-0.01,-0.01,0.04
411.84,0.86,0.89,0.86,0.88,-0.88,-0.76,-0.72,-0.03,-0.03,-0.03
415.96,0.82,0.92,0.82,0.90,-0.86,-0.74,-0.72,-0.04,-0.04,-0.10
420.12,0.78,0.88,0.78,0.88,-0.84,-0.72,-0.72,-0.07,-0.07,-0.10
424.32,0.74,0.84,0.74,0.84,-0.83,-0.70,-0.72,-0.09,-0.09,-0.10
428.56,0.70,0.80,0.70,0.80,-0.82,-0.68,-0.72,-0.12,-0.12,-0.10
432.85,0.66,0.76,0.66,0.78,-0.81,-0.66,-0.72,-0.14,-0.14,-0.10
437.18,0.63,0.77,0.62,0.77,-0.78,-0.64,-0.72,-0.16,-0.16,-0.15
441.55,0.59,0.79,0.59,0.77,-0.76,-0.62,-0.72,-0.17,-0.17,-0.20
445.96,0.55,0.75,0.55,0.75,-0.73,-0.60,-0.72,-0.18,-0.18,-0.20
450.42,0.52,0.72,0.52,0.72,-0.70,-0.58,-0.72,-0.18,-0.18,-0.20
454.93,0.48,0.68,0.48,0.68,-0.67,-0.56,-0.72,-0.19,-0.19,-0.20
459.48,0.45,0.65,0.45,0.65,-0.65,-0.55,-0.72,-0.20,-0.20,-0.20
464.07,0.41,0.61,0.41,0.61,-0.63,-0.53,-0.72,-0.21,-0.21,-0.20
468.71,0.38,0.58,0.38,0.58,-0.61,-0.51,-0.71,-0.23,-0.23,-0.20
473.40,0.35,0.55,0.35,0.57,-0.59,-0.50,-0.71,-0.25,-0.25,-0.20
478.13,0.31,0.57,0.31,0.56,-0.58,-0.48,-0.70,-0.26,-0.26,-0.26
482.91,0.28,0.58,0.28,0.57,-0.56,-0.46,-0.70,-0.28,-0.28,-0.30
487.74,0.25,0.55,0.25,0.58,-0.55,-0.45,-0.69,-0.29,-0.29,-0.30
492.62,0.22,0.59,0.22,0.57,-0.53,-0.43,-0.68,-0.31,-0.31,-0.37
497.55,0.20,0.56,0.20,0.54,-0.52,-0.42,-0.67,-0.32,-0.32,-0.36
502.52,0.17,0.47,0.17,0.50,-0.51,-0.40,-0.66,-0.34,-0.34,-0.30
507.55,0.15,0.45,0.15,0.44,-0.49,-0.39,-0.65,-0.35,-0.35,-0.30
512.62,0.12,0.42,0.12,0.42,-0.47,-0.37,-0.64,-0.35,-0.35,-0.30
517.75,0.10,0.41,0.10,0.44,-0.45,-0.36,-0.63,-0.35,-0.35,-0.31
522.93,0.08,0.46,0.08,0.45,-0.42,-0.34,-0.61,-0.34,-0.34,-0.39
528.16,0.06,0.46,0.06,0.45,-0.39,-0.33,-0.60,-0.33,-0.33,-0.40
533.44,0.04,0.42,0.04,0.41,-0.36,-0.32,-0.58,-0.32,-0.32,-0.38
538.77,0.02,0.34,0.02,0.33,-0.34,-0.31,-0.56,-0.31,-0.31,-0.32
544.16,0.01,0.25,0.01,0.28,-0.31,-0.29,-0.54,-0.30,-0.30,-0.24
549.60,-0.01,0.23,-0.01,0.24,-0.28,-0.28,-0.52,-0.29,-0.29,-0.23
555.10,-0.02,0.28,-0.02,0.22,-0.25,-0.27,-0.50,-0.27,-0.27,-0.30
