frequency,raw,error,smoothed,error_smoothed,equalization,parametric_eq,fixed_band_eq,equalized_raw,equalized_smoothed,target
20.00,1.82,-5.23,1.82,-5.23,5.24,4.86,1.75,7.06,7.06,7.05
20.20,1.88,-5.18,1.88,-5.18,5.18,4.87,1.80,7.06,7.06,7.06
20.40,1.94,-5.13,1.94,-5.13,5.13,4.87,1.86,7.06,7.06,7.07
20.61,2.00,-5.08,2.00,-5.08,5.07,4.86,1.91,7.07,7.07,7.08
20.81,2.06,-5.03,2.06,-5.03,5.02,4.86,1.97,7.08,7.08,7.08
21.02,2.12,-4.97,2.12,-4.97,4.97,4.85,2.03,7.08,7.08,7.09
21.23,2.17,-4.92,2.17,-4.92,4.92,4.84,2.09,7.09,7.09,7.09
21.44,2.23,-4.87,2.23,-4.87,4.87,4.82,2.15,7.10,7.10,7.10
21.66,2.29,-4.82,2.29,-4.82,4.82,4.81,2.21,7.11,7.11,7.11
21.87,2.35,-4.77,2.35,-4.77,4.77,4.79,2.28,7.12,7.12,7.12
22.09,2.40,-4.73,2.40,-4.73,4.73,4.77,2.34,7.13,7.13,7.13
22.31,2.46,-4.68,2.46,-4.68,4.69,4.75,2.41,7.14,7.14,7.14
22.54,2.51,-4.64,2.51,-4.64,4.64,4.73,2.48,7.15,7.15,7.15
22.76,2.56,-4.60,2.56,-4.60,4.60,4.70,2.56,7.16,7.16,7.17
22.99,2.61,-4.56,2.61,-4.56,4.56,4.67,2.63,7.17,7.17,7.18
23.22,2.66,-4.52,2.66,-4.52,4.52,4.64,2.71,7.18,7.18,7.19
23.45,2.71,-4.48,2.71,-4.48,4.48,4.61,2.78,7.19,7.19,7.20
23.69,2.77,-4.44,2.77,-4.44,4.44,4.57,2.86,7.20,7.20,7.20
23.92,2.82,-4.39,2.82,-4.39,4.39,4.54,2.94,7.21,7.21,7.21
24.16,2.87,-4.35,2.87,-4.35,4.35,4.50,3.02,7.22,7.22,7.22
24.40,2.92,-4.30,2.92,-4.30,4.31,4.46,3.11,7.22,7.22,7.22
24.65,2.97,-4.26,2.97,-4.26,4.26,4.42,3.19,7.23,7.23,7.23
24.89,3.02,-4.22,3.02,-4.22,4.22,4.38,3.28,7.24,7.24,7.24
25.14,3.07,-4.18,3.07,-4.18,4.18,4.34,3.36,7.25,7.25,7.25
25.39,3.12,-4.14,3.12,-4.14,4.14,4.30,3.45,7.26,7.25,7.25
25.65,3.17,-4.10,3.17,-4.10,4.10,4.26,3.53,7.26,7.26,7.26
25.91,3.21,-4.06,3.21,-4.06,4.05,4.21,3.62,7.27,7.27,7.27
26.16,3.26,-4.01,3.26,-4.01,4.01,4.17,3.71,7.27,7.27,7.28
26.43,3.31,-3.97,3.31,-3.97,3.97,4.12,3.79,7.27,7.27,7.28
26.69,3.36,-3.92,3.36,-3.92,3.92,4.08,3.88,7.28,7.28,7.28
26.96,3.41,-3.88,3.41,-3.88,3.87,4.03,3.96,7.28,7.28,7.28
27.23,3.45,-3.83,3.45,-3.83,3.83,3.98,4.04,7.28,7.28,7.28
27.50,3.50,-3.79,3.50,-3.79,3.79,3.94,4.12,7.29,7.29,7.29
27.77,3.55,-3.74,3.55,-3.74,3.75,3.89,4.19,7.30,7.30,7.29
28.05,3.59,-3.71,3.59,-3.71,3.71,3.84,4.26,7.31,7.31,7.30
28.33,3.64,-3.68,3.64,-3.68,3.68,3.80,4.33,7.32,7.32,7.31
28.62,3.68,-3.65,3.68,-3.65,3.65,3.75,4.39,7.33,7.33,7.33
28.90,3.72,-3.62,3.72,-3.62,3.62,3.70,4.45,7.35,7.35,7.35
29.19,3.76,-3.60,3.76,-3.60,3.60,3.66,4.50,7.36,7.36,7.36
29.48,3.80,-3.57,3.80,-3.57,3.57,3.61,4.55,7.37,7.37,7.38
29.78,3.84,-3.54,3.84,-3.54,3.54,3.56,4.59,7.38,7.38,7.38
30.08,3.88,-3.51,3.88,-3.51,3.50,3.52,4.62,7.38,7.38,7.39
30.38,3.92,-3.47,3.92,-3.47,3.47,3.47,4.65,7.38,7.38,7.39
30.68,3.96,-3.43,3.96,-3.43,3.43,3.43,4.67,7.38,7.38,7.39
30.99,3.99,-3.38,3.99,-3.38,3.39,3.38,4.68,7.38,7.38,7.38
31.30,4.03,-3.34,4.03,-3.34,3.35,3.34,4.69,7.38,7.38,7.37
31.61,4.07,-3.30,4.07,-3.30,3.31,3.30,4.68,7.38,7.38,7.37
31.93,4.11,-3.27,4.11,-3.27,3.27,3.25,4.67,7.38,7.38,7.37
32.24,4.15,-3.24,4.15,-3.24,3.24,3.21,4.66,7.38,7.38,7.38
32.57,4.18,-3.21,4.18,-3.21,3.20,3.17,4.63,7.39,7.39,7.39
32.89,4.22,-3.18,4.22,-3.18,3.17,3.13,4.60,7.39,7.39,7.40
33.22,4.25,-3.14,4.25,-3.14,3.13,3.09,4.56,7.39,7.39,7.40
33.55,4.29,-3.10,4.29,-3.10,3.10,3.05,4.51,7.39,7.39,7.39
33.89,4.32,-3.06,4.32,-3.06,3.06,3.01,4.46,7.38,7.38,7.38
34.23,4.36,-3.02,4.36,-3.02,3.02,2.97,4.41,7.38,7.38,7.38
34.57,4.39,-2.98,4.39,-2.98,2.99,2.93,4.35,7.38,7.38,7.37
34.92,4.42,-2.95,4.42,-2.95,2.95,2.89,4.28,7.37,7.37,7.37
35.27,4.45,-2.92,4.45,-2.92,2.92,2.86,4.21,7.37,7.37,7.37
35.62,4.48,-2.89,4.48,-2.89,2.89,2.82,4.14,7.37,7.37,7.37
35.97,4.51,-2.86,4.51,-2.86,2.86,2.79,4.07,7.37,7.37,7.37
36.33,4.54,-2.83,4.54,-2.83,2.83,2.75,3.99,7.38,7.38,7.38
36.70,4.57,-2.81,4.57,-2.81,2.81,2.72,3.91,7.38,7.38,7.38
37.06,4.60,-2.78,4.60,-2.78,2.78,2.69,3.83,7.38,7.38,7.38
37.43,4.63,-2.76,4.63,-2.76,2.75,2.65,3.75,7.38,7.38,7.39
37.81,4.66,-2.73,4.66,-2.73,2.73,2.62,3.67,7.38,7.38,7.39
38.19,4.68,-2.70,4.68,-2.70,2.70,2.59,3.58,7.38,7.38,7.39
38.57,4.71,-2.67,4.71,-2.67,2.66,2.56,3.50,7.37,7.37,7.38
38.95,4.74,-2.63,4.74,-2.63,2.63,2.53,3.42,7.37,7.37,7.37
39.34,4.76,-2.60,4.76,-2.60,2.60,2.50,3.34,7.36,7.36,7.36
39.74,4.79,-2.57,4.79,-2.57,2.57,2.48,3.26,7.36,7.36,7.35
40.14,4.81,-2.54,4.81,-2.54,2.54,2.45,3.18,7.35,7.35,7.35
40.54,4.83,-2.51,4.83,-2.51,2.51,2.42,3.10,7.35,7.35,7.35
40.94,4.85,-2.49,4.85,-2.49,2.49,2.40,3.02,7.34,7.34,7.34
41.35,4.88,-2.46,4.88,-2.46,2.46,2.37,2.94,7.34,7.34,7.34
41.76,4.90,-2.44,4.90,-2.44,2.44,2.35,2.87,7.34,7.34,7.33
42.18,4.92,-2.42,4.92,-2.42,2.41,2.33,2.80,7.33,7.33,7.33
42.60,4.94,-2.40,4.94,-2.39,2.39,2.30,2.73,7.33,7.33,7.33
43.03,4.96,-2.37,4.96,-2.37,2.37,2.28,2.66,7.32,7.32,7.33
43.46,4.98,-2.34,4.98,-2.34,2.34,2.26,2.59,7.32,7.32,7.32
43.90,4.99,-2.31,4.99,-2.32,2.32,2.24,2.52,7.31,7.31,7.31
44.33,5.01,-2.29,5.01,-2.29,2.29,2.22,2.46,7.30,7.30,7.30
44.78,5.03,-2.27,5.03,-2.27,2.27,2.20,2.40,7.30,7.30,7.29
45.23,5.04,-2.25,5.04,-2.25,2.25,2.18,2.34,7.29,7.29,7.29
45.68,5.05,-2.23,5.06,-2.23,2.22,2.16,2.28,7.28,7.28,7.28
46.13,5.07,-2.21,5.07,-2.21,2.20,2.15,2.22,7.27,7.27,7.27
46.60,5.08,-2.18,5.08,-2.18,2.18,2.13,2.17,7.26,7.26,7.26
47.06,5.09,-2.16,5.09,-2.16,2.16,2.11,2.12,7.25,7.25,7.25
47.53,5.10,-2.14,5.10,-2.14,2.14,2.10,2.06,7.24,7.24,7.24
48.01,5.11,-2.12,5.11,-2.12,2.12,2.08,2.02,7.23,7.23,7.23
48.49,5.12,-2.10,5.12,-2.10,2.10,2.07,1.97,7.22,7.22,7.22
48.97,5.12,-2.08,5.12,-2.08,2.09,2.06,1.92,7.21,7.21,7.21
49.46,5.13,-2.07,5.13,-2.07,2.08,2.04,1.88,7.21,7.21,7.20
49.96,5.14,-2.06,5.14,-2.06,2.07,2.03,1.84,7.20,7.20,7.20
50.46,5.15,-2.06,5.15,-2.06,2.06,2.02,1.80,7.20,7.20,7.20
50.96,5.15,-2.05,5.15,-2.05,2.05,2.01,1.76,7.20,7.20,7.20
51.47,5.15,-2.04,5.15,-2.04,2.04,2.00,1.72,7.19,7.19,7.20
51.99,5.16,-2.03,5.16,-2.03,2.03,1.99,1.69,7.19,7.19,7.19
52.51,5.16,-2.02,5.16,-2.02,2.02,1.98,1.65,7.19,7.19,7.18
53.03,5.17,-2.01,5.17,-2.01,2.01,1.97,1.62,7.18,7.18,7.18
53.56,5.17,-2.00,5.17,-2.00,2.00,1.96,1.59,7.17,7.17,7.18
54.10,5.18,-1.99,5.18,-1.99,1.99,1.95,1.56,7.16,7.16,7.17
54.64,5.18,-1.97,5.18,-1.97,1.97,1.94,1.53,7.15,7.15,7.15
55.18,5.18,-1.96,5.18,-1.96,1.96,1.94,1.51,7.14,7.14,7.14
55.74,5.18,-1.95,5.18,-1.95,1.95,1.93,1.48,7.13,7.13,7.13
56.29,5.18,-1.93,5.18,-1.93,1.93,1.92,1.46,7.11,7.11,7.11
56.86,5.17,-1.92,5.17,-1.92,1.92,1.92,1.44,7.09,7.09,7.09
57.42,5.17,-1.91,5.17,-1.91,1.91,1.91,1.42,7.08,7.08,7.08
58.00,5.16,-1.89,5.16,-1.90,1.89,1.91,1.40,7.06,7.06,7.06
58.58,5.16,-1.88,5.16,-1.88,1.88,1.90,1.39,7.04,7.04,7.04
59.16,5.15,-1.87,5.15,-1.87,1.87,1.90,1.37,7.03,7.03,7.02
59.76,5.15,-1.86,5.15,-1.86,1.86,1.90,1.36,7.01,7.01,7.01
60.35,5.14,-1.85,5.14,-1.85,1.85,1.89,1.35,6.99,6.99,6.99
60.96,5.13,-1.84,5.13,-1.84,1.84,1.89,1.34,6.97,6.97,6.97
61.57,5.12,-1.84,5.12,-1.84,1.84,1.89,1.33,6.95,6.95,6.96
62.18,5.11,-1.83,5.11,-1.83,1.83,1.89,1.32,6.94,6.94,6.94
62.80,5.10,-1.82,5.10,-1.82,1.82,1.89,1.31,6.92,6.92,6.92
63.43,5.08,-1.82,5.08,-1.82,1.82,1.88,1.31,6.90,6.91,6.90
64.07,5.07,-1.81,5.07,-1.82,1.82,1.88,1.31,6.89,6.89,6.88
64.71,5.06,-1.82,5.06,-1.82,1.82,1.88,1.31,6.87,6.87,6.87
65.35,5.04,-1.82,5.04,-1.82,1.82,1.88,1.31,6.86,6.86,6.86
66.01,5.02,-1.83,5.02,-1.83,1.83,1.89,1.31,6.85,6.85,6.85
66.67,5.00,-1.83,5.00,-1.83,1.83,1.89,1.31,6.83,6.83,6.83
67.33,4.98,-1.84,4.98,-1.84,1.84,1.89,1.32,6.82,6.82,6.82
68.01,4.96,-1.85,4.96,-1.85,1.85,1.89,1.33,6.80,6.80,6.80
68.69,4.93,-1.85,4.93,-1.85,1.85,1.89,1.34,6.79,6.79,6.79
69.37,4.91,-1.86,4.91,-1.86,1.86,1.90,1.34,6.77,6.77,6.77
70.07,4.89,-1.86,4.89,-1.86,1.86,1.90,1.36,6.75,6.75,6.75
70.77,4.86,-1.87,4.87,-1.87,1.87,1.90,1.37,6.73,6.73,6.73
71.48,4.84,-1.87,4.84,-1.87,1.87,1.91,1.38,6.71,6.71,6.71
72.19,4.81,-1.87,4.81,-1.87,1.87,1.91,1.40,6.69,6.69,6.69
72.91,4.79,-1.88,4.79,-1.88,1.88,1.92,1.41,6.67,6.67,6.67
73.64,4.76,-1.88,4.76,-1.88,1.88,1.92,1.43,6.64,6.64,6.64
74.38,4.73,-1.88,4.73,-1.88,1.88,1.93,1.45,6.62,6.62,6.62
75.12,4.71,-1.89,4.71,-1.89,1.88,1.93,1.47,6.59,6.59,6.59
75.87,4.68,-1.89,4.68,-1.89,1.89,1.94,1.50,6.56,6.56,6.56
76.63,4.65,-1.89,4.65,-1.89,1.89,1.95,1.52,6.54,6.54,6.54
77.40,4.61,-1.89,4.61,-1.89,1.90,1.95,1.54,6.51,6.51,6.51
78.17,4.58,-1.90,4.58,-1.90,1.90,1.96,1.57,6.48,6.48,6.48
78.95,4.55,-1.91,4.55,-1.91,1.91,1.97,1.60,6.45,6.45,6.45
79.74,4.51,-1.91,4.51,-1.91,1.91,1.98,1.63,6.43,6.43,6.42
80.54,4.48,-1.92,4.48,-1.92,1.92,1.98,1.66,6.40,6.40,6.40
81.35,4.44,-1.93,4.44,-1.93,1.93,1.99,1.69,6.37,6.37,6.37
82.16,4.40,-1.94,4.40,-1.94,1.94,2.00,1.73,6.34,6.34,6.34
82.98,4.36,-1.95,4.36,-1.95,1.95,2.01,1.76,6.31,6.31,6.31
83.81,4.32,-1.96,4.31,-1.96,1.96,2.02,1.80,6.27,6.27,6.27
84.65,4.27,-1.97,4.27,-1.97,1.97,2.03,1.84,6.24,6.24,6.24
85.50,4.23,-1.98,4.23,-1.98,1.98,2.05,1.88,6.21,6.21,6.21
86.35,4.19,-1.99,4.19,-1.99,1.99,2.06,1.92,6.18,6.18,6.18
87.22,4.14,-2.01,4.14,-2.00,2.00,2.07,1.96,6.15,6.15,6.15
88.09,4.10,-2.02,4.10,-2.02,2.02,2.08,2.00,6.12,6.12,6.12
88.97,4.05,-2.03,4.05,-2.03,2.03,2.09,2.05,6.09,6.09,6.08
89.86,4.00,-2.05,4.00,-2.05,2.05,2.11,2.10,6.05,6.05,6.05
90.76,3.95,-2.06,3.95,-2.06,2.07,2.12,2.14,6.02,6.02,6.02
91.66,3.90,-2.08,3.90,-2.08,2.08,2.14,2.19,5.98,5.98,5.98
92.58,3.84,-2.10,3.84,-2.11,2.10,2.15,2.25,5.95,5.95,5.95
93.51,3.78,-2.13,3.78,-2.13,2.13,2.17,2.30,5.91,5.91,5.91
94.44,3.73,-2.15,3.73,-2.15,2.15,2.18,2.35,5.88,5.88,5.88
95.39,3.67,-2.17,3.67,-2.17,2.17,2.20,2.41,5.84,5.84,5.84
96.34,3.61,-2.19,3.61,-2.19,2.19,2.22,2.47,5.80,5.80,5.80
97.30,3.55,-2.22,3.55,-2.22,2.22,2.24,2.52,5.77,5.77,5.77
98.28,3.49,-2.24,3.49,-2.24,2.24,2.25,2.58,5.73,5.73,5.73
99.26,3.43,-2.27,3.43,-2.27,2.27,2.27,2.64,5.69,5.69,5.69
100.25,3.36,-2.29,3.36,-2.29,2.29,2.29,2.70,5.65,5.65,5.65
101.25,3.30,-2.32,3.30,-2.32,2.32,2.31,2.76,5.62,5.62,5.62
102.27,3.23,-2.34,3.23,-2.34,2.34,2.33,2.82,5.58,5.58,5.58
103.29,3.16,-2.37,3.16,-2.37,2.37,2.36,2.88,5.54,5.54,5.54
104.32,3.10,-2.40,3.10,-2.40,2.40,2.38,2.94,5.50,5.50,5.50
105.37,3.03,-2.43,3.03,-2.43,2.43,2.40,3.01,5.46,5.46,5.46
106.42,2.95,-2.46,2.95,-2.46,2.46,2.43,3.07,5.41,5.41,5.42
107.48,2.88,-2.49,2.88,-2.49,2.49,2.45,3.13,5.37,5.37,5.37
108.56,2.81,-2.52,2.81,-2.52,2.52,2.48,3.18,5.33,5.33,5.33
109.64,2.73,-2.56,2.73,-2.56,2.56,2.50,3.24,5.29,5.29,5.29
110.74,2.66,-2.59,2.66,-2.59,2.59,2.53,3.30,5.25,5.25,5.25
111.85,2.58,-2.62,2.58,-2.62,2.62,2.56,3.35,5.21,5.21,5.20
112.97,2.50,-2.66,2.50,-2.66,2.66,2.59,3.40,5.16,5.16,5.16
114.10,2.42,-2.69,2.42,-2.69,2.69,2.62,3.45,5.12,5.12,5.12
115.24,2.34,-2.73,2.34,-2.73,2.73,2.65,3.49,5.07,5.07,5.07
116.39,2.26,-2.77,2.26,-2.77,2.77,2.69,3.54,5.03,5.03,5.03
117.55,2.18,-2.80,2.18,-2.80,2.80,2.72,3.57,4.98,4.98,4.98
118.73,2.10,-2.84,2.10,-2.84,2.84,2.75,3.61,4.94,4.94,4.94
119.92,2.01,-2.88,2.01,-2.88,2.88,2.79,3.64,4.89,4.89,4.89
121.12,1.92,-2.92,1.92,-2.92,2.92,2.83,3.67,4.85,4.85,4.85
122.33,1.83,-2.97,1.83,-2.97,2.97,2.87,3.69,4.80,4.80,4.80
123.55,1.74,-3.01,1.74,-3.01,3.01,2.90,3.70,4.75,4.75,4.75
124.79,1.65,-3.05,1.65,-3.05,3.05,2.95,3.72,4.70,4.70,4.70
126.03,1.56,-3.10,1.56,-3.10,3.10,2.99,3.73,4.65,4.65,4.65
127.29,1.47,-3.14,1.47,-3.14,3.14,3.03,3.73,4.61,4.61,4.61
128.57,1.37,-3.18,1.37,-3.18,3.18,3.07,3.73,4.56,4.56,4.56
129.85,1.28,-3.23,1.28,-3.23,3.23,3.12,3.72,4.51,4.51,4.51
131.15,1.19,-3.27,1.19,-3.27,3.27,3.17,3.71,4.46,4.46,4.46
132.46,1.09,-3.32,1.09,-3.32,3.32,3.21,3.70,4.41,4.41,4.41
133.79,1.00,-3.36,1.00,-3.36,3.36,3.26,3.68,4.36,4.36,4.36
135.12,0.90,-3.41,0.90,-3.41,3.41,3.31,3.66,4.31,4.31,4.31
136.48,0.81,-3.45,0.81,-3.45,3.45,3.36,3.63,4.26,4.26,4.26
137.84,0.71,-3.50,0.71,-3.50,3.50,3.42,3.61,4.21,4.21,4.21
139.22,0.61,-3.54,0.61,-3.54,3.54,3.47,3.58,4.15,4.15,4.15
140.61,0.51,-3.59,0.51,-3.59,3.59,3.52,3.54,4.10,4.10,4.10
142.02,0.41,-3.64,0.41,-3.64,3.64,3.57,3.51,4.05,4.05,4.05
143.44,0.31,-3.68,0.31,-3.68,3.68,3.63,3.47,4.00,4.00,4.00
144.87,0.22,-3.73,0.22,-3.73,3.73,3.68,3.44,3.94,3.94,3.94
146.32,0.12,-3.77,0.12,-3.77,3.77,3.74,3.40,3.89,3.89,3.89
147.78,0.02,-3.81,0.02,-3.81,3.81,3.79,3.36,3.84,3.84,3.84
149.26,-0.07,-3.86,-0.07,-3.86,3.86,3.85,3.32,3.78,3.78,3.78
150.75,-0.17,-3.90,-0.17,-3.90,3.90,3.90,3.29,3.73,3.73,3.73
152.26,-0.26,-3.94,-0.26,-3.94,3.94,3.95,3.25,3.67,3.67,3.67
153.78,-0.36,-3.98,-0.36,-3.98,3.98,4.00,3.21,3.62,3.62,3.62
155.32,-0.45,-4.02,-0.45,-4.02,4.02,4.05,3.18,3.57,3.57,3.57
156.88,-0.54,-4.05,-0.54,-4.05,4.05,4.10,3.14,3.51,3.51,3.51
158.44,-0.63,-4.09,-0.63,-4.09,4.09,4.14,3.11,3.45,3.45,3.45
160.03,-0.72,-4.12,-0.72,-4.12,4.12,4.18,3.07,3.40,3.40,3.40
161.63,-0.81,-4.15,-0.81,-4.15,4.15,4.22,3.04,3.34,3.34,3.34
163.24,-0.89,-4.18,-0.89,-4.18,4.18,4.26,3.01,3.28,3.28,3.29
164.88,-0.97,-4.20,-0.97,-4.20,4.20,4.29,2.99,3.23,3.23,3.23
166.53,-1.05,-4.22,-1.05,-4.22,4.22,4.32,2.96,3.17,3.17,3.17
168.19,-1.12,-4.24,-1.12,-4.24,4.24,4.34,2.94,3.12,3.12,3.12
169.87,-1.20,-4.25,-1.20,-4.25,4.26,4.36,2.91,3.06,3.06,3.06
171.57,-1.27,-4.27,-1.27,-4.27,4.27,4.37,2.89,3.00,3.00,3.00
173.29,-1.34,-4.28,-1.34,-4.28,4.28,4.38,2.88,2.94,2.94,2.94
175.02,-1.40,-4.29,-1.40,-4.29,4.29,4.38,2.86,2.89,2.89,2.89
176.77,-1.46,-4.29,-1.46,-4.29,4.29,4.38,2.85,2.83,2.83,2.83
178.54,-1.52,-4.29,-1.52,-4.30,4.29,4.37,2.84,2.77,2.77,2.77
180.32,-1.58,-4.29,-1.58,-4.29,4.29,4.36,2.83,2.71,2.71,2.72
182.13,-1.63,-4.29,-1.63,-4.29,4.29,4.34,2.82,2.66,2.66,2.66
183.95,-1.68,-4.28,-1.68,-4.28,4.28,4.32,2.82,2.60,2.60,2.60
185.79,-1.73,-4.27,-1.73,-4.27,4.27,4.29,2.81,2.54,2.54,2.54
187.65,-1.77,-4.26,-1.77,-4.26,4.25,4.26,2.81,2.48,2.48,2.48
189.52,-1.81,-4.24,-1.81,-4.24,4.24,4.23,2.81,2.43,2.43,2.43
191.42,-1.84,-4.21,-1.84,-4.21,4.21,4.19,2.82,2.37,2.37,2.37
193.33,-1.88,-4.19,-1.88,-4.19,4.18,4.15,2.82,2.31,2.31,2.31
195.27,-1.90,-4.16,-1.90,-4.16,4.15,4.10,2.83,2.25,2.25,2.25
197.22,-1.92,-4.12,-1.92,-4.12,4.12,4.05,2.84,2.19,2.19,2.20
199.19,-1.94,-4.08,-1.94,-4.08,4.08,4.00,2.85,2.14,2.14,2.14
201.18,-1.96,-4.04,-1.96,-4.04,4.04,3.95,2.86,2.08,2.08,2.08
203.19,-1.97,-3.99,-1.97,-3.99,4.00,3.90,2.87,2.02,2.02,2.02
205.23,-1.98,-3.95,-1.98,-3.95,3.95,3.84,2.89,1.97,1.97,1.97
207.28,-1.99,-3.90,-1.99,-3.90,3.90,3.79,2.90,1.91,1.91,1.91
209.35,-2.00,-3.85,-2.00,-3.85,3.85,3.73,2.92,1.85,1.85,1.85
211.44,-2.00,-3.80,-2.00,-3.80,3.80,3.68,2.94,1.79,1.79,1.79
213.56,-2.00,-3.74,-2.00,-3.74,3.74,3.62,2.95,1.74,1.74,1.74
215.69,-2.00,-3.68,-2.00,-3.68,3.68,3.56,2.97,1.68,1.68,1.68
217.85,-2.00,-3.62,-2.00,-3.62,3.62,3.50,2.98,1.62,1.63,1.63
220.03,-1.99,-3.56,-1.99,-3.56,3.56,3.45,3.00,1.57,1.57,1.57
222.23,-1.98,-3.50,-1.98,-3.50,3.50,3.39,3.02,1.52,1.51,1.51
224.45,-1.97,-3.43,-1.97,-3.43,3.43,3.33,3.03,1.46,1.46,1.46
226.70,-1.96,-3.37,-1.96,-3.37,3.37,3.28,3.04,1.41,1.41,1.41
228.96,-1.95,-3.30,-1.95,-3.30,3.30,3.22,3.06,1.35,1.35,1.35
231.25,-1.94,-3.23,-1.94,-3.23,3.23,3.17,3.07,1.30,1.30,1.30
233.57,-1.92,-3.17,-1.92,-3.17,3.17,3.11,3.08,1.24,1.24,1.24
235.90,-1.91,-3.10,-1.91,-3.10,3.10,3.06,3.08,1.19,1.19,1.19
238.26,-1.89,-3.03,-1.89,-3.03,3.03,3.01,3.09,1.14,1.14,1.14
240.64,-1.88,-2.96,-1.88,-2.96,2.96,2.96,3.09,1.08,1.08,1.08
243.05,-1.86,-2.90,-1.86,-2.90,2.89,2.90,3.09,1.03,1.03,1.03
245.48,-1.85,-2.83,-1.85,-2.83,2.83,2.85,3.08,0.98,0.98,0.98
247.93,-1.83,-2.76,-1.83,-2.76,2.76,2.80,3.08,0.93,0.93,0.93
250.41,-1.81,-2.69,-1.81,-2.69,2.69,2.75,3.07,0.88,0.88,0.88
252.92,-1.80,-2.63,-1.80,-2.63,2.63,2.70,3.05,0.83,0.83,0.83
255.45,-1.78,-2.56,-1.78,-2.56,2.56,2.65,3.04,0.78,0.78,0.78
258.00,-1.77,-2.49,-1.77,-2.49,2.49,2.60,3.02,0.73,0.73,0.73
260.58,-1.75,-2.43,-1.75,-2.43,2.43,2.55,3.00,0.68,0.68,0.68
263.19,-1.74,-2.37,-1.74,-2.37,2.37,2.50,2.98,0.63,0.63,0.63
265.82,-1.72,-2.31,-1.72,-2.31,2.31,2.45,2.95,0.58,0.58,0.58
268.48,-1.71,-2.24,-1.71,-2.25,2.24,2.39,2.92,0.54,0.54,0.54
271.16,-1.70,-2.19,-1.70,-2.19,2.19,2.34,2.89,0.49,0.49,0.49
273.87,-1.68,-2.13,-1.68,-2.13,2.13,2.29,2.86,0.44,0.44,0.44
276.61,-1.67,-2.07,-1.67,-2.07,2.07,2.24,2.83,0.40,0.40,0.40
279.38,-1.66,-2.01,-1.66,-2.01,2.01,2.18,2.79,0.35,0.35,0.35
282.17,-1.65,-1.96,-1.65,-1.96,1.96,2.13,2.75,0.31,0.31,0.31
284.99,-1.64,-1.90,-1.64,-1.90,1.90,2.07,2.71,0.26,0.26,0.26
287.84,-1.63,-1.85,-1.63,-1.85,1.85,2.01,2.67,0.22,0.22,0.22
290.72,-1.62,-1.80,-1.62,-1.80,1.80,1.96,2.64,0.18,0.18,0.18
293.63,-1.61,-1.75,-1.61,-1.75,1.75,1.90,2.60,0.13,0.13,0.14
296.57,-1.61,-1.70,-1.61,-1.70,1.70,1.84,2.55,0.09,0.09,0.10
299.53,-1.60,-1.65,-1.60,-1.65,1.65,1.78,2.51,0.05,0.05,0.06
302.53,-1.59,-1.61,-1.59,-1.61,1.61,1.72,2.47,0.01,0.01,0.02
305.55,-1.59,-1.57,-1.59,-1.57,1.57,1.66,2.43,-0.02,-0.02,-0.02
308.61,-1.58,-1.53,-1.58,-1.53,1.54,1.60,2.40,-0.05,-0.05,-0.05
311.69,-1.58,-1.50,-1.58,-1.50,1.51,1.54,2.36,-0.07,-0.07,-0.08
314.81,-1.58,-1.48,-1.58,-1.48,1.50,1.49,2.32,-0.08,-0.08,-0.10
317.96,-1.58,-1.48,-1.58,-1.48,1.50,1.44,2.28,-0.08,-0.08,-0.10
321.14,-1.57,-1.49,-1.57,-1.49,1.50,1.40,2.25,-0.07,-0.07,-0.08
324.35,-1.57,-1.52,-1.57,-1.51,1.51,1.36,2.21,-0.06,-0.06,-0.06
327.59,-1.57,-1.54,-1.57,-1.54,1.53,1.32,2.18,-0.05,-0.05,-0.04
330.87,-1.57,-1.55,-1.57,-1.55,1.54,1.30,2.14,-0.04,-0.04,-0.02
334.18,-1.58,-1.57,-1.58,-1.56,1.55,1.28,2.11,-0.03,-0.03,-0.01
337.52,-1.58,-1.57,-1.58,-1.56,1.55,1.27,2.08,-0.03,-0.03,-0.01
340.90,-1.58,-1.56,-1.58,-1.56,1.55,1.27,2.06,-0.03,-0.03,-0.02
344.30,-1.58,-1.54,-1.58,-1.54,1.54,1.27,2.03,-0.05,-0.05,-0.04
347.75,-1.59,-1.52,-1.59,-1.52,1.52,1.28,2.00,-0.07,-0.07,-0.07
351.23,-1.59,-1.50,-1.59,-1.50,1.50,1.30,1.98,-0.09,-0.09,-0.09
354.74,-1.59,-1.47,-1.59,-1.48,1.48,1.32,1.96,-0.11,-0.11,-0.12
358.28,-1.60,-1.46,-1.60,-1.46,1.46,1.34,1.94,-0.14,-0.14,-0.14
361.87,-1.61,-1.44,-1.61,-1.44,1.44,1.36,1.92,-0.16,-0.16,-0.16
365.49,-1.61,-1.43,-1.61,-1.43,1.43,1.39,1.90,-0.18,-0.18,-0.18
369.14,-1.62,-1.42,-1.62,-1.42,1.42,1.42,1.88,-0.20,-0.20,-0.20
372.83,-1.63,-1.41,-1.63,-1.41,1.41,1.44,1.87,-0.22,-0.22,-0.22
376.56,-1.63,-1.40,-1.63,-1.40,1.40,1.47,1.86,-0.24,-0.24,-0.24
380.33,-1.64,-1.39,-1.64,-1.39,1.39,1.50,1.84,-0.25,-0.25,-0.25
384.13,-1.65,-1.39,-1.65,-1.39,1.39,1.52,1.83,-0.26,-0.26,-0.26
387.97,-1.66,-1.38,-1.66,-1.38,1.38,1.54,1.82,-0.28,-0.28,-0.28
391.85,-1.67,-1.38,-1.67,-1.38,1.38,1.57,1.81,-0.29,-0.29,-0.29
395.77,-1.68,-1.38,-1.68,-1.38,1.38,1.58,1.81,-0.29,-0.29,-0.29
399.73,-1.69,-1.38,-1.69,-1.38,1.38,1.60,1.80,-0.30,-0.30,-0.30
403.72,-1.69,-1.38,-1.69,-1.38,1.39,1.62,1.80,-0.31,-0.31,-0.31
407.76,-1.70,-1.39,-1.70,-1.39,1.39,1.63,1.79,-0.31,-0.31,-0.31
411.84,-1.71,-1.39,-1.71,-1.39,1.39,1.65,1.79,-0.32,-0.32,-0.32
415.96,-1.72,-1.40,-1.72,-1.40,1.40,1.66,1.79,-0.32,-0.32,-0.32
420.12,-1.73,-1.41,-1.73,-1.41,1.41,1.67,1.78,-0.33,-0.33,-0.33
424.32,-1.74,-1.41,-1.74,-1.41,1.41,1.68,1.78,-0.33,-0.33,-0.33
428.56,-1.75,-1.42,-1.75,-1.42,1.42,1.69,1.78,-0.33,-0.33,-0.33
432.85,-1.76,-1.43,-1.76,-1.43,1.43,1.69,1.78,-0.33,-0.33,-0.33
437.18,-1.77,-1.44,-1.77,-1.44,1.44,1.70,1.78,-0.33,-0.33,-0.33
441.55,-1.78,-1.46,-1.78,-1.46,1.45,1.71,1.78,-0.33,-0.33,-0.33
445.96,-1.79,-1.47,-1.79,-1.47,1.47,1.71,1.78,-0.33,-0.33,-0.33
450.42,-1.80,-1.48,-1.80,-1.48,1.48,1.71,1.78,-0.32,-0.32,-0.32
454.93,-1.81,-1.49,-1.81,-1.49,1.49,1.72,1.78,-0.32,-0.32,-0.32
459.48,-1.82,-1.51,-1.82,-1.51,1.51,1.72,1.78,-0.32,-0.32,-0.32
464.07,-1.83,-1.52,-1.83,-1.52,1.52,1.72,1.78,-0.31,-0.31,-0.31
468.71,-1.84,-1.53,-1.84,-1.53,1.53,1.72,1.78,-0.31,-0.31,-0.31
473.40,-1.85,-1.55,-1.85,-1.55,1.55,1.72,1.77,-0.30,-0.30,-0.30
478.13,-1.86,-1.56,-1.86,-1.56,1.56,1.72,1.77,-0.30,-0.30,-0.30
482.91,-1.87,-1.58,-1.87,-1.58,1.58,1.72,1.77,-0.29,-0.29,-0.29
487.74,-1.88,-1.59,-1.88,-1.59,1.59,1.71,1.76,-0.29,-0.29,-0.28
492.62,-1.88,-1.61,-1.89,-1.61,1.61,1.71,1.75,-0.28,-0.28,-0.28
497.55,-1.89,-1.62,-1.89,-1.62,1.62,1.71,1.75,-0.27,-0.27,-0.27
502.52,-1.90,-1.64,-1.90,-1.63,1.64,1.71,1.74,-0.27,-0.27,-0.27
507.55,-1.91,-1.65,-1.91,-1.65,1.65,1.70,1.73,-0.26,-0.26,-0.26
512.62,-1.92,-1.67,-1.92,-1.67,1.66,1.70,1.72,-0.25,-0.25,-0.25
517.75,-1.92,-1.68,-1.92,-1.68,1.68,1.70,1.70,-0.24,-0.24,-0.24
522.93,-1.93,-1.69,-1.93,-1.69,1.69,1.69,1.69,-0.23,-0.23,-0.23
528.16,-1.93,-1.71,-1.93,-1.71,1.71,1.69,1.68,-0.23,-0.23,-0.22
533.44,-1.94,-1.72,-1.94,-1.72,1.72,1.68,1.66,-0.22,-0.22,-0.22
538.77,-1.94,-1.73,-1.94,-1.73,1.73,1.68,1.65,-0.21,-0.21,-0.21
