frequency,raw,error,smoothed,error_smoothed,equalization,parametric_eq,fixed_band_eq,equalized_raw,equalized_smoothed,target
20.00,6.31,-5.34,6.31,-5.34,5.34,-0.11,1.05,11.65,11.65,11.64
20.20,6.36,-5.26,6.36,-5.26,5.26,-0.11,1.08,11.62,11.62,11.62
20.40,6.41,-5.18,6.41,-5.18,5.18,-0.11,1.12,11.59,11.59,11.59
20.61,6.47,-5.10,6.47,-5.10,5.09,-0.11,1.15,11.56,11.56,11.57
20.81,6.52,-5.02,6.52,-5.02,5.01,-0.12,1.19,11.53,11.53,11.53
21.02,6.57,-4.93,6.57,-4.93,4.93,-0.12,1.22,11.50,11.50,11.50
21.23,6.62,-4.85,6.62,-4.85,4.85,-0.12,1.26,11.47,11.47,11.47
21.44,6.67,-4.77,6.67,-4.77,4.77,-0.12,1.30,11.44,11.44,11.44
21.66,6.72,-4.69,6.72,-4.69,4.69,-0.13,1.34,11.41,11.41,11.41
21.87,6.77,-4.61,6.77,-4.61,4.61,-0.13,1.39,11.38,11.38,11.38
22.09,6.82,-4.53,6.82,-4.53,4.53,-0.13,1.43,11.36,11.36,11.35
22.31,6.87,-4.45,6.87,-4.45,4.46,-0.14,1.47,11.33,11.33,11.33
22.54,6.92,-4.38,6.92,-4.38,4.38,-0.14,1.52,11.30,11.30,11.30
22.76,6.97,-4.30,6.97,-4.30,4.30,-0.14,1.57,11.28,11.28,11.28
22.99,7.02,-4.23,7.02,-4.23,4.23,-0.14,1.61,11.25,11.25,11.25
23.22,7.07,-4.15,7.07,-4.15,4.15,-0.15,1.66,11.22,11.22,11.22
23.45,7.12,-4.08,7.12,-4.08,4.07,-0.15,1.71,11.19,11.19,11.20
23.69,7.17,-4.00,7.17,-4.00,4.00,-0.15,1.76,11.16,11.16,11.17
23.92,7.22,-3.92,7.22,-3.92,3.92,-0.16,1.82,11.13,11.13,11.13
24.16,7.26,-3.84,7.26,-3.84,3.84,-0.16,1.87,11.10,11.10,11.10
24.40,7.31,-3.76,7.31,-3.76,3.76,-0.16,1.92,11.07,11.07,11.07
24.65,7.36,-3.67,7.36,-3.67,3.68,-0.17,1.97,11.03,11.03,11.03
24.89,7.41,-3.59,7.41,-3.59,3.60,-0.17,2.03,11.00,11.00,11.00
25.14,7.45,-3.51,7.45,-3.51,3.51,-0.18,2.08,10.97,10.97,10.96
25.39,7.50,-3.43,7.50,-3.43,3.44,-0.18,2.14,10.93,10.93,10.93
25.65,7.54,-3.36,7.54,-3.36,3.36,-0.18,2.19,10.90,10.90,10.90
25.91,7.59,-3.28,7.59,-3.28,3.28,-0.19,2.25,10.86,10.86,10.87
26.16,7.63,-3.20,7.63,-3.20,3.20,-0.19,2.30,10.83,10.83,10.83
26.43,7.67,-3.12,7.67,-3.12,3.12,-0.20,2.35,10.80,10.80,10.80
26.69,7.72,-3.04,7.72,-3.04,3.04,-0.20,2.40,10.76,10.76,10.76
26.96,7.76,-2.97,7.76,-2.97,2.96,-0.20,2.45,10.72,10.72,10.72
27.23,7.80,-2.89,7.80,-2.89,2.89,-0.21,2.50,10.69,10.69,10.69
27.50,7.84,-2.81,7.84,-2.81,2.81,-0.21,2.54,10.65,10.65,10.65
27.77,7.88,-2.73,7.88,-2.73,2.73,-0.22,2.58,10.61,10.61,10.61
28.05,7.92,-2.65,7.92,-2.65,2.65,-0.22,2.62,10.58,10.58,10.57
28.33,7.96,-2.58,7.96,-2.58,2.58,-0.23,2.66,10.54,10.54,10.54
28.62,8.00,-2.50,8.00,-2.50,2.50,-0.23,2.69,10.50,10.50,10.50
28.90,8.04,-2.43,8.04,-2.43,2.43,-0.24,2.72,10.46,10.46,10.46
29.19,8.08,-2.35,8.08,-2.35,2.35,-0.24,2.75,10.43,10.43,10.43
29.48,8.11,-2.28,8.11,-2.28,2.27,-0.25,2.76,10.39,10.39,10.39
29.78,8.15,-2.20,8.15,-2.20,2.20,-0.25,2.78,10.35,10.35,10.35
30.08,8.19,-2.12,8.19,-2.12,2.12,-0.26,2.79,10.31,10.31,10.31
30.38,8.22,-2.05,8.22,-2.05,2.05,-0.27,2.79,10.27,10.27,10.27
30.68,8.26,-1.97,8.26,-1.97,1.97,-0.27,2.79,10.23,10.23,10.23
30.99,8.29,-1.90,8.29,-1.90,1.90,-0.28,2.78,10.19,10.19,10.19
31.30,8.33,-1.82,8.33,-1.82,1.82,-0.28,2.77,10.15,10.15,10.15
31.61,8.36,-1.75,8.36,-1.75,1.75,-0.29,2.75,10.11,10.11,10.11
31.93,8.40,-1.67,8.40,-1.67,1.67,-0.30,2.72,10.07,10.07,10.07
32.24,8.43,-1.60,8.43,-1.60,1.60,-0.30,2.69,10.03,10.03,10.03
32.57,8.46,-1.52,8.46,-1.52,1.52,-0.31,2.65,9.99,9.99,9.99
32.89,8.49,-1.45,8.49,-1.45,1.45,-0.32,2.61,9.95,9.95,9.94
33.22,8.53,-1.38,8.53,-1.38,1.38,-0.33,2.56,9.90,9.90,9.90
33.55,8.56,-1.30,8.56,-1.30,1.31,-0.33,2.50,9.86,9.86,9.86
33.89,8.59,-1.23,8.59,-1.23,1.24,-0.34,2.44,9.82,9.82,9.82
34.23,8.62,-1.16,8.62,-1.16,1.16,-0.35,2.38,9.78,9.78,9.78
34.57,8.65,-1.09,8.65,-1.09,1.09,-0.36,2.31,9.74,9.74,9.74
34.92,8.68,-1.02,8.68,-1.02,1.02,-0.36,2.24,9.70,9.70,9.70
35.27,8.71,-0.95,8.71,-0.95,0.95,-0.37,2.16,9.65,9.65,9.66
35.62,8.73,-0.88,8.73,-0.88,0.88,-0.38,2.09,9.61,9.61,9.61
35.97,8.76,-0.80,8.76,-0.80,0.80,-0.39,2.00,9.56,9.56,9.56
36.33,8.79,-0.73,8.79,-0.73,0.73,-0.40,1.92,9.52,9.52,9.52
36.70,8.81,-0.66,8.81,-0.66,0.66,-0.41,1.83,9.47,9.47,9.47
37.06,8.84,-0.59,8.84,-0.59,0.59,-0.42,1.74,9.43,9.43,9.43
37.43,8.87,-0.52,8.87,-0.52,0.52,-0.43,1.65,9.39,9.39,9.39
37.81,8.89,-0.45,8.89,-0.45,0.45,-0.44,1.56,9.34,9.34,9.34
38.19,8.91,-0.38,8.91,-0.38,0.38,-0.45,1.47,9.30,9.30,9.30
38.57,8.94,-0.31,8.94,-0.31,0.31,-0.46,1.37,9.25,9.25,9.25
38.95,8.96,-0.24,8.96,-0.24,0.24,-0.47,1.28,9.21,9.21,9.21
39.34,8.98,-0.18,8.98,-0.18,0.18,-0.48,1.18,9.16,9.16,9.16
39.74,9.01,-0.11,9.01,-0.11,0.11,-0.49,1.09,9.11,9.11,9.11
40.14,9.03,-0.04,9.03,-0.04,0.04,-0.51,0.99,9.07,9.07,9.07
40.54,9.05,0.02,9.05,0.02,-0.02,-0.52,0.89,9.02,9.02,9.03
40.94,9.07,0.09,9.07,0.09,-0.09,-0.53,0.79,8.98,8.98,8.98
41.35,9.09,0.16,9.09,0.16,-0.15,-0.54,0.70,8.93,8.93,8.93
41.76,9.11,0.22,9.11,0.22,-0.22,-0.56,0.60,8.89,8.89,8.89
42.18,9.13,0.28,9.13,0.28,-0.28,-0.57,0.50,8.84,8.85,8.84
42.60,9.14,0.34,9.14,0.34,-0.34,-0.59,0.40,8.80,8.80,8.80
43.03,9.16,0.40,9.16,0.40,-0.41,-0.60,0.31,8.76,8.75,8.76
43.46,9.18,0.47,9.18,0.47,-0.47,-0.61,0.21,8.71,8.71,8.71
43.90,9.19,0.53,9.20,0.53,-0.53,-0.63,0.11,8.66,8.66,8.66
44.33,9.21,0.60,9.21,0.59,-0.59,-0.65,0.01,8.62,8.62,8.62
44.78,9.23,0.66,9.23,0.66,-0.66,-0.66,-0.08,8.57,8.57,8.57
45.23,9.24,0.72,9.24,0.72,-0.72,-0.68,-0.18,8.52,8.52,8.52
45.68,9.26,0.78,9.26,0.78,-0.78,-0.70,-0.28,8.48,8.48,8.48
46.13,9.27,0.84,9.27,0.84,-0.84,-0.71,-0.38,8.43,8.43,8.43
46.60,9.28,0.90,9.28,0.90,-0.90,-0.73,-0.47,8.38,8.38,8.38
47.06,9.29,0.96,9.30,0.96,-0.96,-0.75,-0.57,8.34,8.34,8.34
47.53,9.31,1.01,9.31,1.01,-1.01,-0.77,-0.67,8.29,8.29,8.29
48.01,9.32,1.07,9.32,1.07,-1.07,-0.79,-0.76,8.25,8.25,8.25
48.49,9.33,1.13,9.33,1.13,-1.13,-0.81,-0.86,8.20,8.20,8.20
48.97,9.34,1.18,9.34,1.19,-1.19,-0.83,-0.95,8.15,8.15,8.16
49.46,9.35,1.24,9.35,1.24,-1.24,-0.85,-1.05,8.11,8.11,8.11
49.96,9.36,1.30,9.36,1.30,-1.30,-0.88,-1.14,8.06,8.06,8.06
50.46,9.37,1.35,9.37,1.35,-1.35,-0.90,-1.24,8.02,8.02,8.01
50.96,9.38,1.40,9.38,1.41,-1.41,-0.92,-1.33,7.97,7.97,7.97
51.47,9.38,1.46,9.38,1.46,-1.46,-0.95,-1.43,7.92,7.92,7.93
51.99,9.39,1.52,9.39,1.52,-1.52,-0.98,-1.52,7.88,7.88,7.87
52.51,9.40,1.57,9.40,1.57,-1.57,-1.00,-1.61,7.83,7.83,7.82
53.03,9.40,1.62,9.40,1.62,-1.62,-1.03,-1.70,7.78,7.78,7.78
53.56,9.41,1.67,9.41,1.67,-1.67,-1.06,-1.79,7.73,7.73,7.74
54.10,9.41,1.72,9.41,1.73,-1.73,-1.09,-1.87,7.69,7.69,7.69
54.64,9.42,1.79,9.42,1.78,-1.78,-1.12,-1.96,7.64,7.64,7.63
55.18,9.42,1.83,9.42,1.83,-1.83,-1.15,-2.04,7.59,7.59,7.59
55.74,9.43,1.87,9.43,1.88,-1.88,-1.18,-2.12,7.55,7.55,7.56
56.29,9.43,1.92,9.43,1.93,-1.93,-1.21,-2.20,7.50,7.50,7.51
56.86,9.43,1.99,9.43,1.98,-1.98,-1.25,-2.27,7.45,7.45,7.44
57.42,9.43,2.03,9.43,2.02,-2.02,-1.28,-2.34,7.41,7.41,7.40
58.00,9.43,2.05,9.43,2.07,-2.07,-1.32,-2.41,7.36,7.36,7.38
58.58,9.43,2.11,9.43,2.12,-2.12,-1.35,-2.47,7.31,7.31,7.32
59.16,9.43,2.17,9.43,2.17,-2.17,-1.39,-2.53,7.27,7.27,7.26
59.76,9.43,2.23,9.43,2.21,-2.21,-1.43,-2.59,7.22,7.22,7.20
60.35,9.43,2.25,9.43,2.25,-2.26,-1.47,-2.64,7.17,7.17,7.18
60.96,9.43,2.27,9.43,2.30,-2.30,-1.51,-2.69,7.13,7.13,7.15
61.57,9.43,2.35,9.43,2.34,-2.34,-1.56,-2.73,7.08,7.08,7.08
62.18,9.42,2.42,9.42,2.39,-2.38,-1.60,-2.77,7.04,7.04,7.00
62.80,9.42,2.41,9.42,2.42,-2.42,-1.65,-2.80,7.00,7.00,7.01
63.43,9.41,2.44,9.41,2.46,-2.46,-1.70,-2.83,6.95,6.95,6.97
64.07,9.41,2.49,9.41,2.50,-2.50,-1.75,-2.86,6.91,6.91,6.91
64.71,9.40,2.56,9.40,2.54,-2.54,-1.80,-2.88,6.86,6.86,6.84
65.35,9.40,2.59,9.40,2.57,-2.57,-1.85,-2.90,6.82,6.82,6.81
66.01,9.39,2.57,9.39,2.60,-2.61,-1.90,-2.91,6.78,6.78,6.82
66.67,9.38,2.65,9.38,2.65,-2.65,-1.96,-2.92,6.73,6.73,6.74
67.33,9.37,2.71,9.37,2.69,-2.69,-2.01,-2.93,6.69,6.69,6.67
68.01,9.37,2.75,9.37,2.73,-2.73,-2.07,-2.93,6.64,6.64,6.61
68.69,9.36,2.73,9.36,2.75,-2.76,-2.13,-2.93,6.60,6.60,6.62
69.37,9.35,2.77,9.35,2.79,-2.79,-2.19,-2.93,6.55,6.55,6.58
70.07,9.34,2.84,9.34,2.83,-2.83,-2.25,-2.93,6.51,6.51,6.50
70.77,9.33,2.90,9.33,2.87,-2.86,-2.32,-2.92,6.46,6.46,6.43
71.48,9.32,2.89,9.32,2.89,-2.89,-2.38,-2.91,6.42,6.42,6.42
72.19,9.30,2.89,9.30,2.91,-2.92,-2.45,-2.90,6.38,6.38,6.42
72.91,9.29,2.94,9.29,2.95,-2.96,-2.51,-2.89,6.34,6.34,6.35
73.64,9.28,3.02,9.28,3.00,-2.99,-2.58,-2.88,6.29,6.29,6.26
74.38,9.26,3.05,9.26,3.03,-3.02,-2.65,-2.87,6.25,6.25,6.21
75.12,9.25,3.04,9.25,3.04,-3.05,-2.72,-2.86,6.20,6.20,6.21
75.87,9.24,3.04,9.24,3.06,-3.07,-2.79,-2.85,6.16,6.16,6.20
76.63,9.22,3.09,9.22,3.10,-3.10,-2.86,-2.84,6.12,6.12,6.13
77.40,9.21,3.17,9.21,3.14,-3.13,-2.93,-2.84,6.08,6.08,6.04
78.17,9.19,3.18,9.19,3.17,-3.16,-3.00,-2.83,6.03,6.03,6.01
78.95,9.17,3.18,9.17,3.18,-3.18,-3.07,-2.82,5.99,5.99,6.00
79.74,9.16,3.16,9.16,3.18,-3.20,-3.14,-2.82,5.95,5.95,5.99
80.54,9.14,3.21,9.14,3.22,-3.23,-3.21,-2.81,5.91,5.91,5.93
81.35,9.12,3.27,9.12,3.26,-3.25,-3.28,-2.81,5.87,5.87,5.84
82.16,9.10,3.31,9.10,3.29,-3.27,-3.35,-2.81,5.83,5.83,5.79
82.98,9.08,3.31,9.08,3.30,-3.29,-3.41,-2.81,5.79,5.79,5.77
83.81,9.06,3.27,9.06,3.29,-3.32,-3.48,-2.82,5.74,5.74,5.79
84.65,9.04,3.29,9.04,3.31,-3.34,-3.54,-2.82,5.70,5.70,5.75
85.50,9.02,3.35,9.02,3.35,-3.35,-3.59,-2.83,5.66,5.66,5.67
86.35,9.00,3.42,9.00,3.40,-3.37,-3.65,-2.84,5.63,5.63,5.58
87.22,8.97,3.43,8.97,3.42,-3.38,-3.70,-2.85,5.59,5.59,5.54
88.09,8.95,3.41,8.95,3.41,-3.40,-3.75,-2.87,5.54,5.54,5.54
88.97,8.92,3.39,8.92,3.40,-3.43,-3.79,-2.88,5.50,5.50,5.53
89.86,8.90,3.39,8.90,3.40,-3.45,-3.83,-2.90,5.45,5.45,5.51
90.76,8.88,3.44,8.88,3.44,-3.46,-3.86,-2.92,5.42,5.42,5.44
91.66,8.85,3.49,8.85,3.49,-3.46,-3.89,-2.95,5.39,5.39,5.36
92.58,8.82,3.53,8.82,3.51,-3.47,-3.91,-2.97,5.35,5.36,5.30
93.51,8.80,3.51,8.80,3.51,-3.48,-3.93,-3.00,5.32,5.32,5.29
94.44,8.77,3.49,8.77,3.49,-3.50,-3.94,-3.03,5.28,5.28,5.28
95.39,8.74,3.47,8.74,3.48,-3.51,-3.95,-3.06,5.23,5.23,5.27
96.34,8.72,3.48,8.72,3.49,-3.52,-3.96,-3.10,5.19,5.19,5.24
97.30,8.69,3.51,8.69,3.51,-3.53,-3.96,-3.13,5.16,5.16,5.17
98.28,8.66,3.55,8.66,3.55,-3.54,-3.95,-3.17,5.12,5.12,5.11
99.26,8.63,3.57,8.63,3.57,-3.54,-3.94,-3.21,5.09,5.09,5.06
100.25,8.60,3.58,8.60,3.58,-3.55,-3.93,-3.25,5.05,5.05,5.02
101.25,8.57,3.58,8.57,3.58,-3.56,-3.91,-3.29,5.01,5.01,5.00
102.27,8.54,3.57,8.54,3.57,-3.57,-3.89,-3.33,4.97,4.97,4.98
103.29,8.51,3.56,8.51,3.56,-3.57,-3.86,-3.38,4.94,4.94,4.96
104.32,8.48,3.55,8.48,3.56,-3.57,-3.83,-3.42,4.91,4.91,4.93
105.37,8.45,3.57,8.45,3.57,-3.58,-3.81,-3.47,4.87,4.87,4.88
106.42,8.42,3.58,8.42,3.58,-3.58,-3.77,-3.51,4.84,4.84,4.84
107.48,8.39,3.59,8.39,3.59,-3.59,-3.74,-3.55,4.80,4.80,4.79
108.56,8.36,3.60,8.36,3.60,-3.60,-3.70,-3.60,4.76,4.76,4.75
109.64,8.32,3.61,8.32,3.61,-3.60,-3.67,-3.64,4.72,4.72,4.72
110.74,8.29,3.61,8.29,3.61,-3.61,-3.63,-3.68,4.68,4.68,4.68
111.85,8.26,3.62,8.26,3.62,-3.61,-3.59,-3.72,4.64,4.64,4.64
112.97,8.22,3.61,8.22,3.61,-3.61,-3.56,-3.76,4.61,4.61,4.61
114.10,8.19,3.61,8.19,3.61,-3.61,-3.52,-3.79,4.58,4.58,4.58
115.24,8.15,3.60,8.15,3.61,-3.61,-3.48,-3.82,4.55,4.55,4.55
116.39,8.12,3.60,8.12,3.60,-3.60,-3.45,-3.85,4.52,4.52,4.52
117.55,8.08,3.59,8.08,3.59,-3.60,-3.41,-3.88,4.48,4.48,4.49
118.73,8.04,3.59,8.04,3.59,-3.59,-3.38,-3.90,4.45,4.45,4.45
119.92,8.01,3.59,8.01,3.59,-3.59,-3.34,-3.92,4.42,4.42,4.42
121.12,7.97,3.58,7.97,3.58,-3.58,-3.31,-3.93,4.39,4.39,4.39
122.33,7.93,3.58,7.93,3.58,-3.58,-3.28,-3.94,4.35,4.35,4.35
123.55,7.89,3.58,7.89,3.58,-3.58,-3.25,-3.95,4.31,4.31,4.32
124.79,7.85,3.57,7.85,3.57,-3.58,-3.22,-3.95,4.28,4.28,4.28
126.03,7.81,3.57,7.81,3.57,-3.57,-3.19,-3.95,4.24,4.24,4.24
127.29,7.77,3.57,7.77,3.57,-3.56,-3.17,-3.93,4.21,4.21,4.20
128.57,7.73,3.56,7.73,3.56,-3.55,-3.14,-3.92,4.18,4.18,4.17
129.85,7.69,3.54,7.69,3.54,-3.53,-3.12,-3.90,4.16,4.16,4.15
131.15,7.65,3.52,7.65,3.52,-3.52,-3.10,-3.88,4.13,4.13,4.12
132.46,7.60,3.50,7.60,3.50,-3.50,-3.08,-3.86,4.10,4.10,4.10
133.79,7.56,3.47,7.56,3.47,-3.48,-3.06,-3.83,4.08,4.08,4.09
135.12,7.52,3.45,7.52,3.45,-3.47,-3.04,-3.79,4.05,4.05,4.07
136.48,7.47,3.43,7.47,3.44,-3.45,-3.03,-3.76,4.02,4.02,4.04
137.84,7.42,3.43,7.42,3.43,-3.43,-3.01,-3.72,3.99,3.99,3.99
139.22,7.38,3.43,7.38,3.43,-3.42,-3.00,-3.68,3.96,3.96,3.94
140.61,7.33,3.42,7.33,3.42,-3.40,-2.99,-3.63,3.93,3.93,3.91
142.02,7.29,3.40,7.29,3.39,-3.39,-2.98,-3.58,3.90,3.90,3.89
143.44,7.24,3.36,7.24,3.36,-3.37,-2.97,-3.54,3.87,3.87,3.87
144.87,7.19,3.32,7.19,3.34,-3.35,-2.96,-3.49,3.84,3.84,3.87
146.32,7.14,3.32,7.14,3.32,-3.33,-2.95,-3.44,3.81,3.81,3.82
147.78,7.09,3.32,7.09,3.31,-3.31,-2.94,-3.39,3.78,3.78,3.77
149.26,7.04,3.30,7.04,3.29,-3.29,-2.94,-3.34,3.76,3.76,3.74
150.75,6.99,3.27,6.99,3.27,-3.26,-2.93,-3.29,3.73,3.73,3.72
152.26,6.94,3.22,6.94,3.24,-3.24,-2.93,-3.24,3.70,3.70,3.72
153.78,6.89,3.22,6.89,3.22,-3.22,-2.92,-3.18,3.67,3.67,3.67
155.32,6.84,3.21,6.84,3.20,-3.20,-2.92,-3.14,3.64,3.64,3.62
156.88,6.79,3.17,6.79,3.18,-3.17,-2.92,-3.09,3.61,3.61,3.62
158.44,6.73,3.14,6.73,3.15,-3.14,-2.91,-3.04,3.59,3.59,3.59
160.03,6.68,3.12,6.68,3.12,-3.12,-2.91,-3.00,3.56,3.56,3.56
161.63,6.63,3.09,6.63,3.09,-3.09,-2.91,-2.95,3.53,3.53,3.53
163.24,6.57,3.06,6.57,3.06,-3.06,-2.91,-2.91,3.51,3.51,3.51
164.88,6.52,3.03,6.52,3.03,-3.03,-2.90,-2.87,3.48,3.48,3.49
166.53,6.46,3.01,6.46,3.01,-3.00,-2.90,-2.83,3.46,3.46,3.46
168.19,6.40,2.98,6.41,2.98,-2.97,-2.90,-2.79,3.43,3.43,3.43
169.87,6.35,2.94,6.35,2.94,-2.94,-2.90,-2.76,3.41,3.41,3.40
171.57,6.29,2.91,6.29,2.91,-2.91,-2.89,-2.73,3.38,3.38,3.38
173.29,6.23,2.87,6.23,2.88,-2.87,-2.89,-2.69,3.36,3.36,3.36
175.02,6.17,2.84,6.17,2.84,-2.84,-2.88,-2.67,3.33,3.33,3.33
176.77,6.11,2.80,6.11,2.80,-2.80,-2.88,-2.64,3.31,3.31,3.31
178.54,6.05,2.76,6.05,2.76,-2.76,-2.87,-2.61,3.28,3.28,3.29
180.32,5.99,2.72,5.99,2.72,-2.73,-2.87,-2.59,3.26,3.26,3.26
182.13,5.92,2.69,5.92,2.69,-2.69,-2.86,-2.57,3.24,3.24,3.24
183.95,5.86,2.65,5.86,2.65,-2.65,-2.85,-2.55,3.21,3.21,3.21
185.79,5.80,2.61,5.80,2.61,-2.61,-2.85,-2.54,3.19,3.19,3.19
187.65,5.73,2.57,5.73,2.57,-2.57,-2.84,-2.52,3.16,3.16,3.16
189.52,5.67,2.53,5.67,2.53,-2.53,-2.83,-2.51,3.14,3.14,3.14
191.42,5.61,2.49,5.61,2.49,-2.49,-2.82,-2.50,3.12,3.12,3.12
193.33,5.55,2.45,5.55,2.45,-2.45,-2.80,-2.49,3.09,3.09,3.09
195.27,5.49,2.42,5.49,2.42,-2.42,-2.79,-2.48,3.07,3.07,3.07
197.22,5.43,2.38,5.43,2.38,-2.38,-2.78,-2.47,3.05,3.05,3.05
199.19,5.37,2.35,5.37,2.35,-2.35,-2.76,-2.47,3.02,3.02,3.03
201.18,5.32,2.32,5.32,2.32,-2.32,-2.74,-2.47,3.00,3.00,3.00
203.19,5.27,2.29,5.27,2.30,-2.30,-2.73,-2.46,2.98,2.98,2.98
205.23,5.23,2.27,5.23,2.27,-2.27,-2.71,-2.46,2.96,2.96,2.96
207.28,5.19,2.26,5.19,2.26,-2.26,-2.69,-2.46,2.93,2.93,2.94
209.35,5.16,2.24,5.16,2.24,-2.25,-2.67,-2.46,2.91,2.91,2.91
211.44,5.13,2.24,5.13,2.24,-2.24,-2.64,-2.46,2.89,2.89,2.89
213.56,5.11,2.24,5.11,2.24,-2.24,-2.62,-2.46,2.87,2.87,2.87
215.69,5.09,2.24,5.09,2.24,-2.24,-2.60,-2.46,2.85,2.85,2.85
217.85,5.07,2.25,5.08,2.25,-2.25,-2.57,-2.47,2.82,2.83,2.83
220.03,5.06,2.26,5.07,2.26,-2.26,-2.54,-2.47,2.80,2.80,2.81
222.23,5.06,2.27,5.06,2.27,-2.27,-2.52,-2.47,2.78,2.78,2.78
224.45,5.05,2.29,5.05,2.29,-2.29,-2.49,-2.47,2.76,2.76,2.76
226.70,5.05,2.30,5.05,2.30,-2.30,-2.46,-2.46,2.74,2.74,2.74
228.96,5.04,2.32,5.04,2.32,-2.32,-2.43,-2.46,2.72,2.72,2.72
231.25,5.03,2.33,5.03,2.33,-2.33,-2.39,-2.46,2.70,2.70,2.70
233.57,5.02,2.34,5.02,2.34,-2.34,-2.36,-2.45,2.68,2.68,2.68
235.90,5.01,2.35,5.01,2.35,-2.34,-2.33,-2.44,2.66,2.66,2.66
238.26,4.99,2.35,4.99,2.35,-2.35,-2.29,-2.43,2.64,2.64,2.64
240.64,4.97,2.35,4.97,2.35,-2.34,-2.26,-2.42,2.62,2.62,2.62
243.05,4.94,2.34,4.94,2.34,-2.34,-2.22,-2.41,2.60,2.60,2.60
245.48,4.91,2.33,4.91,2.33,-2.33,-2.18,-2.39,2.58,2.58,2.58
247.93,4.87,2.31,4.87,2.31,-2.31,-2.15,-2.37,2.56,2.56,2.56
250.41,4.83,2.29,4.83,2.29,-2.29,-2.11,-2.35,2.54,2.54,2.54
252.92,4.79,2.27,4.79,2.27,-2.27,-2.07,-2.32,2.52,2.52,2.52
255.45,4.74,2.24,4.74,2.24,-2.24,-2.03,-2.29,2.50,2.50,2.50
258.00,4.69,2.21,4.69,2.21,-2.21,-1.99,-2.26,2.48,2.48,2.48
260.58,4.64,2.17,4.64,2.17,-2.17,-1.95,-2.23,2.46,2.46,2.46
263.19,4.58,2.14,4.58,2.14,-2.14,-1.91,-2.20,2.44,2.44,2.44
265.82,4.52,2.10,4.52,2.10,-2.10,-1.87,-2.16,2.42,2.42,2.42
268.48,4.46,2.06,4.46,2.06,-2.06,-1.83,-2.12,2.40,2.40,2.41
271.16,4.40,2.01,4.40,2.01,-2.01,-1.79,-2.08,2.39,2.39,2.39
273.87,4.34,1.97,4.34,1.97,-1.97,-1.75,-2.03,2.37,2.37,2.37
276.61,4.27,1.92,4.27,1.92,-1.92,-1.71,-1.99,2.35,2.35,2.35
279.38,4.21,1.88,4.21,1.88,-1.88,-1.66,-1.94,2.33,2.33,2.33
282.17,4.15,1.83,4.15,1.83,-1.83,-1.62,-1.89,2.31,2.31,2.32
284.99,4.08,1.78,4.08,1.78,-1.78,-1.58,-1.84,2.30,2.30,2.30
287.84,4.02,1.74,4.02,1.74,-1.74,-1.54,-1.79,2.28,2.28,2.28
290.72,3.95,1.69,3.95,1.69,-1.69,-1.50,-1.74,2.26,2.26,2.26
293.63,3.89,1.64,3.89,1.64,-1.64,-1.45,-1.68,2.25,2.25,2.24
296.57,3.82,1.59,3.82,1.59,-1.59,-1.41,-1.63,2.23,2.23,2.23
299.53,3.76,1.54,3.76,1.55,-1.55,-1.37,-1.58,2.21,2.21,2.21
302.53,3.69,1.50,3.69,1.50,-1.50,-1.33,-1.52,2.19,2.19,2.20
305.55,3.63,1.45,3.63,1.45,-1.45,-1.29,-1.47,2.18,2.18,2.18
308.61,3.57,1.41,3.57,1.41,-1.41,-1.25,-1.41,2.16,2.16,2.16
311.69,3.50,1.36,3.50,1.36,-1.36,-1.20,-1.36,2.14,2.14,2.14
314.81,3.44,1.31,3.44,1.31,-1.31,-1.16,-1.30,2.13,2.13,2.13
317.96,3.38,1.26,3.38,1.26,-1.26,-1.12,-1.25,2.11,2.11,2.11
321.14,3.31,1.22,3.31,1.22,-1.22,-1.08,-1.19,2.10,2.10,2.09
324.35,3.25,1.17,3.25,1.17,-1.17,-1.04,-1.14,2.08,2.08,2.08
327.59,3.19,1.12,3.19,1.12,-1.12,-1.00,-1.09,2.06,2.06,2.06
330.87,3.13,1.08,3.13,1.08,-1.08,-0.96,-1.03,2.05,2.05,2.05
334.18,3.06,1.03,3.06,1.03,-1.03,-0.92,-0.98,2.03,2.03,2.03
337.52,3.00,0.99,3.00,0.99,-0.99,-0.88,-0.93,2.02,2.02,2.02
340.90,2.94,0.94,2.94,0.94,-0.94,-0.84,-0.88,2.00,2.00,2.00
344.30,2.88,0.90,2.88,0.90,-0.90,-0.80,-0.82,1.98,1.98,1.98
347.75,2.82,0.85,2.82,0.85,-0.85,-0.76,-0.77,1.97,1.97,1.97
351.23,2.76,0.81,2.76,0.81,-0.81,-0.72,-0.72,1.95,1.95,1.95
354.74,2.70,0.76,2.70,0.76,-0.76,-0.68,-0.67,1.94,1.94,1.94
358.28,2.64,0.72,2.64,0.72,-0.72,-0.64,-0.63,1.92,1.92,1.92
361.87,2.58,0.67,2.58,0.67,-0.67,-0.61,-0.58,1.91,1.91,1.91
365.49,2.52,0.63,2.52,0.63,-0.63,-0.57,-0.53,1.89,1.89,1.89
369.14,2.46,0.58,2.46,0.58,-0.58,-0.53,-0.48,1.88,1.88,1.88
372.83,2.40,0.54,2.40,0.54,-0.54,-0.49,-0.43,1.86,1.86,1.87
376.56,2.34,0.49,2.34,0.49,-0.49,-0.45,-0.39,1.85,1.85,1.85
380.33,2.29,0.45,2.29,0.45,-0.45,-0.42,-0.34,1.84,1.84,1.83
384.13,2.23,0.41,2.23,0.41,-0.41,-0.38,-0.30,1.82,1.82,1.82
387.97,2.17,0.36,2.17,0.36,-0.36,-0.34,-0.25,1.81,1.81,1.81
391.85,2.11,0.32,2.11,0.32,-0.32,-0.31,-0.21,1.79,1.79,1.79
395.77,2.06,0.28,2.06,0.28,-0.28,-0.27,-0.16,1.78,1.78,1.78
399.73,2.00,0.24,2.00,0.24,-0.24,-0.24,-0.12,1.76,1.76,1.77
403.72,1.94,0.19,1.94,0.19,-0.19,-0.20,-0.08,1.75,1.75,1.75
407.76,1.89,0.15,1.89,0.15,-0.15,-0.16,-0.04,1.74,1.74,1.73
411.84,1.83,0.11,1.83,0.11,-0.11,-0.13,0.01,1.72,1.72,1.72
415.96,1.78,0.07,1.78,0.07,-0.07,-0.09,0.05,1.71,1.71,1.71
420.12,1.72,0.03,1.72,0.03,-0.03,-0.06,0.09,1.70,1.70,1.70
424.32,1.67,-0.02,1.67,-0.02,0.01,-0.02,0.13,1.68,1.68,1.68
428.56,1.61,-0.06,1.61,-0.06,0.06,0.01,0.17,1.67,1.67,1.67
432.85,1.56,-0.10,1.56,-0.10,0.10,0.04,0.21,1.66,1.66,1.66
437.18,1.51,-0.14,1.51,-0.14,0.14,0.08,0.25,1.64,1.64,1.64
441.55,1.45,-0.18,1.45,-0.18,0.18,0.11,0.28,1.63,1.63,1.63
445.96,1.40,-0.22,1.40,-0.22,0.22,0.15,0.32,1.62,1.62,1.62
450.42,1.35,-0.26,1.35,-0.26,0.26,0.18,0.36,1.60,1.61,1.61
454.93,1.29,-0.30,1.29,-0.30,0.30,0.21,0.39,1.59,1.59,1.59
459.48,1.24,-0.34,1.24,-0.34,0.34,0.25,0.43,1.58,1.58,1.58
464.07,1.19,-0.38,1.19,-0.38,0.38,0.28,0.46,1.57,1.57,1.57
468.71,1.14,-0.41,1.14,-0.41,0.41,0.31,0.50,1.55,1.55,1.55
473.40,1.09,-0.45,1.09,-0.45,0.45,0.35,0.53,1.54,1.54,1.54
478.13,1.04,-0.49,1.04,-0.49,0.49,0.38,0.56,1.53,1.53,1.53
482.91,0.99,-0.53,0.99,-0.53,0.53,0.41,0.59,1.52,1.52,1.52
487.74,0.94,-0.56,0.94,-0.56,0.57,0.44,0.62,1.50,1.50,1.50
492.62,0.89,-0.60,0.89,-0.60,0.60,0.48,0.65,1.49,1.49,1.49
497.55,0.84,-0.64,0.84,-0.64,0.64,0.51,0.68,1.48,1.48,1.48
502.52,0.79,-0.68,0.79,-0.68,0.68,0.54,0.70,1.46,1.46,1.46
507.55,0.74,-0.71,0.74,-0.71,0.71,0.57,0.73,1.45,1.45,1.45
512.62,0.69,-0.75,0.69,-0.75,0.75,0.61,0.76,1.44,1.44,1.44
517.75,0.64,-0.78,0.64,-0.78,0.78,0.64,0.78,1.43,1.43,1.43
522.93,0.60,-0.82,0.60,-0.82,0.82,0.67,0.81,1.42,1.42,1.42
528.16,0.55,-0.85,0.55,-0.85,0.85,0.70,0.83,1.40,1.40,1.40
533.44,0.50,-0.89,0.50,-0.89,0.89,0.73,0.85,1.39,1.39,1.39
538.77,0.46,-0.92,0.46,-0.92,0.92,0.77,0.88,1.38,1.38,1.38
