frequency,raw,error,smoothed,error_smoothed,equalization,parametric_eq,fixed_band_eq,equalized_raw,equalized_smoothed,target
20.00,7.06,2.95,7.06,2.97,-3.06,-2.58,-1.06,4.00,4.00,4.10
20.20,7.09,2.94,7.09,2.94,-2.91,-2.59,-1.09,4.17,4.17,4.15
20.40,7.12,2.88,7.12,2.87,-2.79,-2.61,-1.12,4.33,4.33,4.24
20.61,7.15,2.84,7.15,2.77,-2.67,-2.61,-1.16,4.47,4.47,4.31
20.81,7.18,2.59,7.18,2.61,-2.58,-2.62,-1.19,4.60,4.60,4.59
21.02,7.21,2.43,7.21,2.45,-2.50,-2.63,-1.23,4.71,4.71,4.78
21.23,7.24,2.33,7.24,2.33,-2.44,-2.64,-1.27,4.80,4.80,4.91
21.44,7.27,2.30,7.27,2.30,-2.40,-2.64,-1.31,4.87,4.87,4.96
21.66,7.29,2.31,7.29,2.34,-2.36,-2.64,-1.34,4.93,4.93,4.98
21.87,7.32,2.41,7.32,2.39,-2.36,-2.65,-1.39,4.96,4.96,4.91
22.09,7.35,2.44,7.35,2.41,-2.37,-2.65,-1.43,4.97,4.97,4.90
22.31,7.37,2.43,7.37,2.44,-2.40,-2.65,-1.47,4.97,4.97,4.94
22.54,7.40,2.41,7.40,2.45,-2.44,-2.65,-1.51,4.96,4.96,4.99
22.76,7.42,2.51,7.42,2.47,-2.46,-2.64,-1.56,4.96,4.96,4.91
22.99,7.44,2.50,7.44,2.49,-2.48,-2.64,-1.60,4.97,4.97,4.95
23.22,7.47,2.47,7.47,2.49,-2.48,-2.63,-1.65,4.99,4.99,5.00
23.45,7.49,2.49,7.49,2.47,-2.47,-2.63,-1.70,5.02,5.02,5.00
23.69,7.51,2.45,7.51,2.46,-2.46,-2.62,-1.75,5.05,5.05,5.06
23.92,7.54,2.43,7.54,2.45,-2.45,-2.61,-1.80,5.09,5.09,5.10
24.16,7.56,2.45,7.56,2.43,-2.43,-2.60,-1.85,5.13,5.13,5.10
24.40,7.58,2.41,7.58,2.42,-2.40,-2.59,-1.90,5.17,5.17,5.17
24.65,7.60,2.40,7.60,2.41,-2.39,-2.57,-1.95,5.21,5.21,5.20
24.89,7.62,2.42,7.62,2.39,-2.38,-2.56,-2.00,5.24,5.24,5.20
25.14,7.64,2.38,7.64,2.38,-2.40,-2.55,-2.06,5.24,5.24,5.26
25.39,7.66,2.36,7.66,2.37,-2.43,-2.53,-2.11,5.23,5.23,5.30
25.65,7.68,2.39,7.68,2.40,-2.48,-2.51,-2.16,5.20,5.20,5.29
25.91,7.70,2.47,7.70,2.49,-2.53,-2.49,-2.22,5.16,5.16,5.23
26.16,7.72,2.60,7.72,2.60,-2.59,-2.47,-2.27,5.13,5.13,5.12
26.43,7.74,2.74,7.74,2.70,-2.64,-2.45,-2.32,5.10,5.10,5.00
26.69,7.76,2.76,7.76,2.77,-2.69,-2.43,-2.37,5.07,5.07,5.00
26.96,7.78,2.78,7.78,2.79,-2.73,-2.40,-2.42,5.05,5.05,5.00
27.23,7.80,2.79,7.80,2.76,-2.75,-2.38,-2.47,5.05,5.05,5.01
27.50,7.82,2.72,7.82,2.73,-2.76,-2.35,-2.52,5.06,5.06,5.10
27.77,7.84,2.68,7.84,2.69,-2.75,-2.32,-2.56,5.09,5.09,5.16
28.05,7.85,2.65,7.85,2.67,-2.72,-2.29,-2.61,5.14,5.14,5.20
28.33,7.87,2.67,7.87,2.68,-2.68,-2.26,-2.65,5.19,5.19,5.20
28.62,7.89,2.68,7.89,2.67,-2.63,-2.23,-2.68,5.26,5.26,5.20
28.90,7.90,2.65,7.90,2.62,-2.57,-2.19,-2.72,5.33,5.33,5.25
29.19,7.92,2.52,7.92,2.53,-2.51,-2.16,-2.75,5.41,5.41,5.40
29.48,7.94,2.39,7.94,2.42,-2.42,-2.12,-2.78,5.52,5.52,5.54
29.78,7.95,2.30,7.95,2.31,-2.32,-2.08,-2.80,5.63,5.63,5.65
30.08,7.96,2.23,7.96,2.22,-2.20,-2.04,-2.82,5.76,5.76,5.73
30.38,7.98,2.12,7.98,2.09,-2.08,-1.99,-2.84,5.90,5.90,5.85
30.68,7.98,1.95,7.99,1.95,-1.96,-1.95,-2.85,6.02,6.02,6.04
30.99,7.99,1.77,7.99,1.82,-1.86,-1.91,-2.86,6.14,6.14,6.22
31.30,8.00,1.72,8.00,1.71,-1.75,-1.87,-2.86,6.25,6.25,6.28
31.61,8.01,1.65,8.01,1.64,-1.65,-1.83,-2.86,6.36,6.36,6.35
31.93,8.02,1.59,8.02,1.59,-1.55,-1.80,-2.85,6.47,6.47,6.43
32.24,8.02,1.53,8.02,1.53,-1.46,-1.77,-2.84,6.56,6.56,6.49
32.57,8.03,1.48,8.03,1.48,-1.41,-1.76,-2.82,6.63,6.63,6.56
32.89,8.04,1.42,8.04,1.40,-1.39,-1.75,-2.80,6.65,6.65,6.63
33.22,8.05,1.35,8.05,1.33,-1.42,-1.77,-2.78,6.63,6.63,6.71
33.55,8.06,1.29,8.06,1.33,-1.49,-1.79,-2.75,6.57,6.57,6.77
33.89,8.07,1.42,8.07,1.46,-1.59,-1.84,-2.72,6.47,6.47,6.65
34.23,8.08,1.70,8.08,1.68,-1.73,-1.89,-2.69,6.34,6.34,6.38
34.57,8.08,1.98,8.08,1.94,-1.90,-1.96,-2.65,6.18,6.18,6.10
34.92,8.09,2.17,8.09,2.17,-2.08,-2.03,-2.61,6.01,6.01,5.91
35.27,8.09,2.32,8.09,2.34,-2.26,-2.10,-2.57,5.84,5.84,5.78
35.62,8.10,2.47,8.10,2.46,-2.41,-2.16,-2.53,5.69,5.69,5.63
35.97,8.11,2.56,8.11,2.56,-2.53,-2.21,-2.48,5.58,5.58,5.55
36.33,8.12,2.61,8.12,2.61,-2.60,-2.25,-2.43,5.52,5.52,5.50
36.70,8.13,2.62,8.13,2.61,-2.61,-2.25,-2.39,5.51,5.51,5.50
37.06,8.13,2.58,8.13,2.59,-2.59,-2.25,-2.34,5.54,5.54,5.55
37.43,8.14,2.52,8.14,2.53,-2.53,-2.22,-2.29,5.62,5.62,5.62
37.81,8.15,2.46,8.15,2.45,-2.43,-2.19,-2.24,5.72,5.72,5.69
38.19,8.16,2.34,8.16,2.35,-2.31,-2.14,-2.18,5.85,5.84,5.82
38.57,8.16,2.20,8.16,2.21,-2.18,-2.08,-2.13,5.98,5.98,5.96
38.95,8.16,2.08,8.16,2.04,-2.05,-2.02,-2.08,6.11,6.11,6.09
39.34,8.16,1.86,8.16,1.86,-1.92,-1.97,-2.03,6.24,6.24,6.31
39.74,8.17,1.68,8.17,1.71,-1.79,-1.91,-1.98,6.38,6.38,6.48
40.14,8.17,1.56,8.17,1.60,-1.65,-1.85,-1.93,6.52,6.52,6.60
40.54,8.17,1.56,8.17,1.53,-1.50,-1.80,-1.89,6.66,6.66,6.60
40.94,8.17,1.48,8.17,1.47,-1.36,-1.75,-1.84,6.80,6.80,6.68
41.35,8.17,1.35,8.17,1.36,-1.24,-1.71,-1.79,6.92,6.92,6.82
41.76,8.17,1.21,8.17,1.19,-1.15,-1.66,-1.74,7.02,7.02,6.96
42.18,8.17,1.02,8.17,1.01,-1.08,-1.62,-1.70,7.09,7.09,7.14
42.60,8.17,0.87,8.17,0.91,-1.03,-1.59,-1.66,7.13,7.13,7.30
43.03,8.17,0.86,8.17,0.91,-1.02,-1.55,-1.61,7.14,7.14,7.30
43.46,8.16,1.04,8.16,1.01,-1.06,-1.52,-1.57,7.11,7.11,7.12
43.90,8.16,1.18,8.16,1.14,-1.13,-1.49,-1.53,7.03,7.03,6.97
44.33,8.15,1.24,8.15,1.24,-1.25,-1.46,-1.49,6.91,6.91,6.91
44.78,8.15,1.31,8.15,1.36,-1.38,-1.43,-1.45,6.77,6.77,6.84
45.23,8.15,1.47,8.15,1.51,-1.50,-1.40,-1.42,6.64,6.64,6.67
45.68,8.14,1.73,8.14,1.67,-1.60,-1.38,-1.38,6.54,6.54,6.41
46.13,8.14,1.81,8.14,1.78,-1.67,-1.36,-1.35,6.47,6.47,6.33
46.60,8.13,1.79,8.13,1.80,-1.71,-1.33,-1.31,6.43,6.43,6.34
47.06,8.13,1.72,8.13,1.73,-1.72,-1.31,-1.28,6.41,6.41,6.41
47.53,8.13,1.65,8.13,1.65,-1.70,-1.29,-1.25,6.43,6.43,6.48
48.01,8.12,1.58,8.12,1.58,-1.65,-1.27,-1.22,6.47,6.47,6.55
48.49,8.12,1.52,8.12,1.54,-1.56,-1.25,-1.19,6.56,6.56,6.60
48.97,8.11,1.51,8.11,1.50,-1.46,-1.23,-1.16,6.66,6.66,6.60
49.46,8.11,1.45,8.11,1.42,-1.35,-1.21,-1.13,6.76,6.76,6.65
49.96,8.10,1.33,8.10,1.30,-1.25,-1.19,-1.11,6.85,6.85,6.77
50.46,8.10,1.12,8.10,1.16,-1.17,-1.17,-1.08,6.93,6.93,6.98
50.96,8.09,1.04,8.09,1.04,-1.11,-1.15,-1.06,6.99,6.99,7.06
51.47,8.09,0.99,8.09,0.98,-1.08,-1.13,-1.04,7.01,7.01,7.10
51.99,8.08,0.98,8.08,0.99,-1.07,-1.12,-1.01,7.01,7.01,7.10
52.51,8.08,1.04,8.08,1.03,-1.10,-1.10,-0.99,6.98,6.98,7.04
53.03,8.07,1.10,8.07,1.10,-1.14,-1.08,-0.97,6.93,6.93,6.97
53.56,8.07,1.18,8.07,1.20,-1.19,-1.07,-0.95,6.88,6.88,6.89
54.10,8.06,1.31,8.06,1.32,-1.22,-1.05,-0.93,6.84,6.84,6.75
54.64,8.06,1.40,8.06,1.38,-1.24,-1.03,-0.91,6.82,6.82,6.66
55.18,8.05,1.42,8.05,1.35,-1.23,-1.02,-0.89,6.82,6.82,6.63
55.74,8.05,1.21,8.05,1.25,-1.20,-1.00,-0.88,6.85,6.85,6.84
56.29,8.04,1.08,8.04,1.10,-1.15,-0.99,-0.86,6.89,6.89,6.95
56.86,8.02,1.00,8.02,0.98,-1.09,-0.97,-0.84,6.93,6.93,7.02
57.42,8.00,0.91,8.00,0.94,-1.04,-0.96,-0.83,6.96,6.96,7.09
58.00,7.98,0.93,7.98,0.93,-0.99,-0.94,-0.81,6.99,6.99,7.05
58.58,7.96,0.96,7.96,0.94,-0.95,-0.93,-0.80,7.01,7.01,7.00
59.16,7.95,0.94,7.95,0.95,-0.93,-0.91,-0.78,7.02,7.02,7.00
59.76,7.93,0.93,7.93,0.94,-0.90,-0.90,-0.77,7.03,7.03,7.00
60.35,7.92,0.92,7.92,0.93,-0.86,-0.88,-0.75,7.06,7.06,7.00
60.96,7.91,0.91,7.91,0.89,-0.81,-0.87,-0.74,7.10,7.10,7.00
61.57,7.89,0.82,7.89,0.81,-0.74,-0.86,-0.73,7.15,7.15,7.07
62.18,7.88,0.69,7.87,0.69,-0.67,-0.84,-0.71,7.21,7.21,7.19
62.80,7.86,0.54,7.86,0.56,-0.60,-0.83,-0.70,7.26,7.26,7.31
63.43,7.84,0.46,7.84,0.46,-0.55,-0.82,-0.69,7.29,7.29,7.38
64.07,7.82,0.41,7.82,0.42,-0.51,-0.80,-0.67,7.30,7.30,7.40
64.71,7.80,0.42,7.80,0.45,-0.51,-0.79,-0.66,7.29,7.29,7.38
65.35,7.78,0.55,7.78,0.52,-0.54,-0.78,-0.65,7.24,7.24,7.23
66.01,7.76,0.61,7.76,0.60,-0.59,-0.76,-0.64,7.17,7.17,7.15
66.67,7.75,0.66,7.74,0.67,-0.66,-0.75,-0.62,7.08,7.08,7.08
67.33,7.73,0.72,7.73,0.72,-0.72,-0.74,-0.61,7.01,7.01,7.01
68.01,7.71,0.77,7.71,0.79,-0.75,-0.72,-0.60,6.96,6.96,6.94
68.69,7.69,0.82,7.69,0.83,-0.74,-0.71,-0.59,6.95,6.95,6.87
69.37,7.67,0.87,7.67,0.81,-0.69,-0.70,-0.58,6.98,6.98,6.80
70.07,7.65,0.71,7.65,0.72,-0.62,-0.68,-0.57,7.03,7.03,6.94
70.77,7.63,0.56,7.63,0.58,-0.54,-0.67,-0.56,7.09,7.09,7.07
71.48,7.61,0.41,7.61,0.40,-0.46,-0.66,-0.55,7.15,7.15,7.20
72.19,7.59,0.25,7.59,0.25,-0.39,-0.65,-0.54,7.20,7.20,7.34
72.91,7.57,0.17,7.57,0.20,-0.34,-0.63,-0.53,7.23,7.23,7.40
73.64,7.55,0.19,7.55,0.23,-0.31,-0.62,-0.52,7.24,7.24,7.36
74.38,7.53,0.37,7.53,0.33,-0.32,-0.61,-0.51,7.21,7.21,7.16
75.12,7.51,0.45,7.51,0.42,-0.35,-0.60,-0.50,7.15,7.15,7.05
75.87,7.48,0.48,7.48,0.47,-0.41,-0.59,-0.49,7.07,7.07,7.00
76.63,7.46,0.46,7.46,0.48,-0.48,-0.57,-0.48,6.98,6.98,7.00
77.40,7.44,0.49,7.44,0.50,-0.53,-0.56,-0.47,6.91,6.91,6.95
78.17,7.41,0.54,7.41,0.54,-0.55,-0.55,-0.46,6.86,6.86,6.88
78.95,7.39,0.58,7.39,0.57,-0.53,-0.54,-0.45,6.86,6.86,6.81
79.74,7.36,0.56,7.36,0.56,-0.47,-0.53,-0.45,6.90,6.90,6.80
80.54,7.34,0.51,7.34,0.51,-0.39,-0.51,-0.44,6.95,6.95,6.83
81.35,7.31,0.42,7.31,0.40,-0.31,-0.50,-0.43,7.00,7.00,6.90
82.16,7.29,0.26,7.29,0.26,-0.26,-0.49,-0.42,7.03,7.03,7.03
82.98,7.26,0.13,7.26,0.12,-0.23,-0.48,-0.42,7.03,7.03,7.13
83.81,7.24,0.03,7.24,0.02,-0.24,-0.47,-0.41,6.99,6.99,7.20
84.65,7.21,0.01,7.21,0.08,-0.28,-0.46,-0.41,6.93,6.93,7.20
85.50,7.18,0.23,7.18,0.27,-0.35,-0.45,-0.40,6.83,6.83,6.95
86.35,7.15,0.59,7.15,0.51,-0.45,-0.44,-0.40,6.70,6.70,6.57
87.22,7.12,0.76,7.13,0.71,-0.56,-0.42,-0.39,6.57,6.57,6.37
88.09,7.10,0.79,7.10,0.81,-0.66,-0.41,-0.39,6.44,6.44,6.30
88.97,7.07,0.79,7.07,0.82,-0.74,-0.40,-0.38,6.32,6.32,6.28
89.86,7.04,0.82,7.04,0.82,-0.79,-0.39,-0.38,6.24,6.24,6.21
90.76,7.01,0.80,7.01,0.79,-0.80,-0.38,-0.37,6.20,6.20,6.20
91.66,6.98,0.75,6.98,0.74,-0.78,-0.37,-0.37,6.20,6.20,6.23
92.58,6.94,0.65,6.94,0.67,-0.73,-0.36,-0.37,6.21,6.21,6.29
93.51,6.91,0.61,6.91,0.64,-0.68,-0.35,-0.36,6.24,6.24,6.30
94.44,6.88,0.61,6.88,0.62,-0.62,-0.34,-0.36,6.26,6.26,6.27
95.39,6.85,0.65,6.85,0.60,-0.57,-0.33,-0.36,6.28,6.28,6.20
96.34,6.81,0.55,6.81,0.54,-0.51,-0.32,-0.36,6.31,6.31,6.27
97.30,6.78,0.44,6.78,0.46,-0.44,-0.31,-0.35,6.34,6.34,6.34
98.28,6.74,0.34,6.74,0.36,-0.36,-0.30,-0.35,6.38,6.38,6.40
99.26,6.70,0.30,6.71,0.29,-0.28,-0.29,-0.35,6.42,6.42,6.40
100.25,6.67,0.22,6.67,0.21,-0.19,-0.28,-0.35,6.47,6.48,6.45
101.25,6.63,0.12,6.63,0.12,-0.10,-0.27,-0.35,6.53,6.53,6.51
102.27,6.60,0.03,6.60,0.03,-0.03,-0.26,-0.34,6.57,6.57,6.57
103.29,6.56,-0.04,6.56,-0.03,0.01,-0.25,-0.34,6.57,6.57,6.60
104.32,6.53,-0.06,6.53,-0.06,0.02,-0.24,-0.34,6.54,6.54,6.59
105.37,6.49,-0.04,6.49,-0.04,-0.02,-0.23,-0.34,6.47,6.47,6.53
106.42,6.46,0.00,6.46,-0.02,-0.08,-0.22,-0.34,6.38,6.38,6.46
107.48,6.43,0.07,6.42,0.07,-0.16,-0.21,-0.34,6.26,6.26,6.35
108.56,6.39,0.14,6.39,0.24,-0.24,-0.20,-0.33,6.15,6.15,6.25
109.64,6.35,0.47,6.35,0.42,-0.32,-0.19,-0.33,6.03,6.03,5.88
110.74,6.31,0.61,6.31,0.54,-0.38,-0.18,-0.33,5.93,5.93,5.70
111.85,6.27,0.57,6.27,0.56,-0.43,-0.17,-0.33,5.84,5.84,5.70
112.97,6.23,0.43,6.23,0.47,-0.46,-0.16,-0.33,5.77,5.77,5.80
114.10,6.19,0.39,6.19,0.39,-0.47,-0.15,-0.32,5.72,5.72,5.80
115.24,6.14,0.35,6.14,0.36,-0.46,-0.14,-0.32,5.68,5.68,5.79
116.39,6.10,0.37,6.10,0.38,-0.44,-0.13,-0.32,5.66,5.66,5.73
117.55,6.06,0.41,6.06,0.41,-0.42,-0.12,-0.31,5.64,5.64,5.65
118.73,6.01,0.44,6.01,0.44,-0.42,-0.11,-0.31,5.59,5.59,5.57
119.92,5.96,0.45,5.96,0.43,-0.43,-0.11,-0.30,5.53,5.53,5.51
121.12,5.91,0.41,5.91,0.41,-0.44,-0.10,-0.30,5.47,5.47,5.50
122.33,5.86,0.38,5.86,0.41,-0.41,-0.09,-0.29,5.45,5.45,5.49
123.55,5.82,0.39,5.82,0.41,-0.35,-0.08,-0.29,5.46,5.46,5.42
124.79,5.77,0.45,5.77,0.40,-0.27,-0.07,-0.28,5.50,5.50,5.32
126.03,5.73,0.32,5.73,0.30,-0.18,-0.06,-0.27,5.55,5.55,5.41
127.29,5.68,0.14,5.68,0.13,-0.09,-0.05,-0.27,5.59,5.59,5.55
128.57,5.64,-0.10,5.64,-0.08,-0.02,-0.04,-0.26,5.61,5.61,5.74
129.85,5.59,-0.21,5.59,-0.19,0.02,-0.03,-0.25,5.61,5.61,5.80
131.15,5.54,-0.23,5.54,-0.17,0.03,-0.02,-0.24,5.57,5.57,5.77
132.46,5.49,-0.02,5.49,-0.08,0.01,-0.01,-0.23,5.50,5.50,5.51
133.79,5.44,0.08,5.44,0.04,-0.04,-0.00,-0.22,5.40,5.40,5.36
135.12,5.39,0.11,5.39,0.16,-0.13,0.00,-0.21,5.26,5.26,5.28
136.48,5.34,0.26,5.34,0.26,-0.21,0.01,-0.20,5.12,5.12,5.08
137.84,5.29,0.37,5.29,0.35,-0.28,0.02,-0.19,5.01,5.01,4.92
139.22,5.24,0.44,5.24,0.42,-0.31,0.03,-0.18,4.93,4.93,4.80
140.61,5.19,0.39,5.19,0.41,-0.30,0.04,-0.16,4.89,4.89,4.80
142.02,5.15,0.35,5.15,0.34,-0.27,0.05,-0.15,4.88,4.88,4.80
143.44,5.11,0.26,5.11,0.22,-0.24,0.06,-0.14,4.87,4.87,4.85
144.87,5.07,0.08,5.07,0.11,-0.22,0.07,-0.12,4.85,4.85,4.99
146.32,5.03,0.03,5.03,0.06,-0.22,0.08,-0.11,4.82,4.82,5.00
147.78,5.00,0.08,5.00,0.08,-0.23,0.09,-0.10,4.77,4.77,4.92
149.26,4.97,0.19,4.97,0.19,-0.24,0.10,-0.08,4.73,4.73,4.78
150.75,4.94,0.32,4.94,0.31,-0.27,0.11,-0.07,4.68,4.68,4.63
152.26,4.92,0.40,4.92,0.41,-0.28,0.11,-0.05,4.63,4.63,4.52
153.78,4.89,0.48,4.89,0.44,-0.29,0.12,-0.04,4.60,4.60,4.42
155.32,4.87,0.40,4.87,0.38,-0.28,0.13,-0.02,4.59,4.59,4.47
156.88,4.84,0.25,4.84,0.26,-0.24,0.14,-0.01,4.60,4.60,4.59
158.44,4.81,0.09,4.81,0.11,-0.17,0.15,0.01,4.64,4.64,4.72
160.03,4.78,-0.02,4.78,0.00,-0.08,0.16,0.02,4.70,4.70,4.80
161.63,4.75,-0.05,4.75,-0.06,0.01,0.17,0.04,4.76,4.76,4.80
163.24,4.71,-0.09,4.71,-0.10,0.09,0.18,0.05,4.80,4.80,4.80
164.88,4.67,-0.13,4.67,-0.14,0.14,0.19,0.07,4.81,4.81,4.80
166.53,4.62,-0.18,4.62,-0.18,0.17,0.20,0.09,4.80,4.80,4.80
168.19,4.58,-0.22,4.58,-0.19,0.18,0.21,0.10,4.75,4.75,4.79
169.87,4.53,-0.18,4.53,-0.18,0.17,0.22,0.12,4.70,4.70,4.71
171.57,4.47,-0.15,4.47,-0.16,0.16,0.23,0.14,4.63,4.63,4.62
173.29,4.42,-0.14,4.42,-0.14,0.14,0.24,0.15,4.56,4.56,4.56
175.02,4.37,-0.13,4.37,-0.12,0.12,0.25,0.17,4.49,4.49,4.50
176.77,4.32,-0.10,4.32,-0.10,0.11,0.26,0.19,4.42,4.42,4.41
178.54,4.26,-0.09,4.26,-0.10,0.10,0.27,0.20,4.36,4.36,4.35
180.32,4.21,-0.09,4.21,-0.10,0.11,0.28,0.22,4.32,4.32,4.30
182.13,4.16,-0.15,4.16,-0.12,0.14,0.29,0.24,4.29,4.29,4.30
183.95,4.10,-0.15,4.10,-0.15,0.19,0.30,0.26,4.29,4.29,4.25
185.79,4.05,-0.18,4.05,-0.21,0.26,0.31,0.27,4.31,4.31,4.23
187.65,4.00,-0.29,4.00,-0.28,0.33,0.32,0.29,4.33,4.33,4.29
189.52,3.95,-0.41,3.95,-0.41,0.41,0.33,0.31,4.35,4.35,4.35
191.42,3.90,-0.52,3.90,-0.53,0.48,0.34,0.33,4.37,4.37,4.42
193.33,3.84,-0.64,3.84,-0.61,0.54,0.35,0.35,4.38,4.38,4.48
195.27,3.79,-0.65,3.79,-0.64,0.58,0.36,0.36,4.37,4.37,4.44
197.22,3.74,-0.62,3.74,-0.64,0.61,0.37,0.38,4.35,4.35,4.36
199.19,3.69,-0.61,3.69,-0.61,0.62,0.38,0.40,4.31,4.31,4.30
201.18,3.63,-0.60,3.63,-0.60,0.62,0.39,0.42,4.26,4.26,4.23
203.19,3.58,-0.59,3.57,-0.58,0.62,0.40,0.44,4.19,4.19,4.16
205.23,3.52,-0.58,3.52,-0.57,0.61,0.41,0.46,4.12,4.12,4.09
207.28,3.46,-0.56,3.46,-0.58,0.60,0.42,0.48,4.06,4.06,4.03
209.35,3.41,-0.59,3.41,-0.60,0.59,0.44,0.49,4.00,4.00,4.00
211.44,3.35,-0.63,3.35,-0.61,0.59,0.45,0.51,3.95,3.95,3.99
213.56,3.30,-0.62,3.30,-0.62,0.59,0.46,0.53,3.89,3.89,3.92
215.69,3.24,-0.60,3.24,-0.61,0.59,0.47,0.55,3.83,3.83,3.85
217.85,3.19,-0.59,3.19,-0.59,0.58,0.48,0.57,3.77,3.77,3.77
220.03,3.13,-0.57,3.13,-0.58,0.58,0.49,0.58,3.71,3.71,3.70
222.23,3.08,-0.57,3.08,-0.56,0.58,0.50,0.60,3.65,3.65,3.65
224.45,3.02,-0.57,3.02,-0.56,0.58,0.52,0.62,3.60,3.60,3.59
226.70,2.97,-0.55,2.96,-0.57,0.58,0.53,0.64,3.54,3.54,3.51
228.96,2.91,-0.59,2.91,-0.58,0.58,0.54,0.65,3.49,3.49,3.50
231.25,2.85,-0.62,2.85,-0.61,0.60,0.55,0.67,3.45,3.45,3.47
233.57,2.80,-0.62,2.80,-0.64,0.62,0.56,0.68,3.41,3.41,3.41
235.90,2.74,-0.66,2.74,-0.65,0.64,0.57,0.70,3.38,3.38,3.40
238.26,2.69,-0.67,2.69,-0.66,0.67,0.59,0.71,3.36,3.36,3.36
240.64,2.63,-0.67,2.63,-0.69,0.71,0.60,0.72,3.34,3.34,3.30
243.05,2.58,-0.72,2.58,-0.72,0.74,0.61,0.73,3.32,3.32,3.30
245.48,2.52,-0.78,2.52,-0.78,0.78,0.62,0.75,3.30,3.30,3.30
247.93,2.47,-0.83,2.47,-0.83,0.81,0.63,0.76,3.28,3.28,3.30
250.41,2.41,-0.89,2.41,-0.87,0.84,0.65,0.77,3.26,3.26,3.30
252.92,2.36,-0.89,2.36,-0.90,0.88,0.66,0.78,3.24,3.24,3.25
255.45,2.31,-0.90,2.31,-0.91,0.93,0.67,0.78,3.24,3.24,3.20
258.00,2.25,-0.95,2.25,-0.92,0.96,0.68,0.79,3.22,3.22,3.20
260.58,2.20,-0.93,2.20,-0.96,0.99,0.70,0.80,3.19,3.19,3.14
263.19,2.16,-0.98,2.16,-1.01,1.00,0.71,0.81,3.15,3.15,3.13
265.82,2.11,-1.09,2.11,-1.05,1.00,0.72,0.81,3.11,3.11,3.20
268.48,2.06,-1.08,2.06,-1.07,1.00,0.74,0.82,3.05,3.05,3.14
271.16,2.00,-1.04,2.00,-1.03,1.00,0.75,0.82,3.00,3.00,3.04
273.87,1.95,-0.96,1.95,-0.95,0.99,0.76,0.83,2.94,2.94,2.91
276.61,1.89,-0.88,1.90,-0.92,0.98,0.77,0.83,2.87,2.87,2.77
279.38,1.84,-0.89,1.84,-0.92,0.97,0.79,0.84,2.81,2.81,2.74
282.17,1.79,-1.01,1.79,-0.95,0.96,0.80,0.84,2.75,2.75,2.80
284.99,1.74,-0.99,1.74,-0.98,0.96,0.81,0.85,2.70,2.70,2.73
287.84,1.69,-0.96,1.69,-0.98,0.97,0.82,0.85,2.66,2.66,2.66
290.72,1.65,-0.95,1.65,-0.97,0.99,0.84,0.86,2.63,2.63,2.60
293.63,1.61,-0.99,1.61,-0.99,1.00,0.85,0.86,2.60,2.60,2.60
296.57,1.57,-1.03,1.57,-1.03,1.00,0.86,0.86,2.56,2.56,2.60
299.53,1.53,-1.04,1.53,-1.03,0.99,0.88,0.87,2.52,2.52,2.57
302.53,1.48,-1.03,1.48,-1.00,0.97,0.89,0.87,2.46,2.46,2.51
305.55,1.44,-0.93,1.44,-0.96,0.97,0.90,0.88,2.41,2.41,2.37
308.61,1.39,-0.91,1.39,-0.93,0.97,0.91,0.89,2.36,2.36,2.30
311.69,1.34,-0.96,1.34,-0.92,0.98,0.93,0.89,2.32,2.32,2.30
314.81,1.29,-0.94,1.29,-0.95,0.99,0.94,0.90,2.28,2.28,2.23
317.96,1.24,-0.96,1.24,-0.97,1.00,0.95,0.91,2.24,2.24,2.20
321.14,1.19,-1.01,1.19,-1.01,1.01,0.96,0.92,2.20,2.20,2.20
324.35,1.14,-1.06,1.14,-1.08,1.02,0.98,0.92,2.15,2.15,2.20
327.59,1.08,-1.12,1.08,-1.10,1.01,0.99,0.93,2.10,2.10,2.20
330.87,1.03,-1.12,1.03,-1.07,1.00,1.00,0.94,2.03,2.03,2.15
334.18,0.98,-0.97,0.98,-1.01,0.99,1.01,0.96,1.97,1.97,1.95
337.52,0.93,-0.92,0.93,-0.94,0.98,1.02,0.97,1.90,1.90,1.85
340.90,0.88,-0.91,0.88,-0.89,0.97,1.03,0.98,1.85,1.85,1.78
344.30,0.83,-0.89,0.83,-0.90,0.98,1.05,0.99,1.81,1.81,1.72
347.75,0.77,-0.93,0.77,-0.94,1.00,1.06,1.01,1.77,1.77,1.70
351.23,0.72,-1.00,0.72,-1.02,1.02,1.07,1.02,1.74,1.74,1.73
354.74,0.67,-1.13,0.67,-1.11,1.06,1.08,1.04,1.73,1.73,1.80
358.28,0.62,-1.18,0.62,-1.17,1.10,1.09,1.06,1.72,1.72,1.80
361.87,0.57,-1.20,0.57,-1.19,1.14,1.10,1.07,1.71,1.71,1.76
365.49,0.52,-1.18,0.52,-1.18,1.17,1.11,1.09,1.68,1.68,1.69
369.14,0.47,-1.16,0.47,-1.16,1.18,1.12,1.11,1.65,1.65,1.63
372.83,0.42,-1.15,0.42,-1.15,1.18,1.13,1.13,1.60,1.60,1.56
376.56,0.37,-1.13,0.37,-1.15,1.17,1.14,1.15,1.54,1.54,1.50
380.33,0.32,-1.18,0.32,-1.16,1.16,1.15,1.17,1.48,1.48,1.50
384.13,0.27,-1.18,0.27,-1.17,1.15,1.16,1.20,1.43,1.43,1.46
387.97,0.23,-1.16,0.23,-1.16,1.15,1.17,1.22,1.38,1.38,1.39
391.85,0.18,-1.14,0.18,-1.16,1.16,1.18,1.24,1.34,1.34,1.32
395.77,0.14,-1.16,0.14,-1.15,1.17,1.18,1.27,1.31,1.31,1.30
399.73,0.09,-1.18,0.09,-1.16,1.19,1.19,1.29,1.28,1.28,1.27
403.72,0.05,-1.16,0.05,-1.18,1.21,1.20,1.32,1.26,1.26,1.21
407.76,-0.00,-1.20,-0.00,-1.20,1.23,1.21,1.34,1.23,1.23,1.20
411.84,-0.05,-1.25,-0.05,-1.25,1.24,1.21,1.37,1.19,1.19,1.20
415.96,-0.09,-1.29,-0.09,-1.30,1.25,1.22,1.39,1.16,1.16,1.20
420.12,-0.14,-1.34,-0.14,-1.31,1.26,1.22,1.42,1.12,1.12,1.20
424.32,-0.18,-1.30,-0.18,-1.28,1.26,1.23,1.44,1.08,1.08,1.12
428.56,-0.22,-1.22,-0.22,-1.24,1.26,1.23,1.46,1.04,1.04,0.99
432.85,-0.27,-1.19,-0.27,-1.20,1.26,1.24,1.49,0.99,0.99,0.92
437.18,-0.31,-1.21,-0.31,-1.22,1.25,1.24,1.51,0.94,0.94,0.90
441.55,-0.35,-1.25,-0.35,-1.25,1.24,1.25,1.53,0.88,0.88,0.90
445.96,-0.39,-1.29,-0.39,-1.26,1.23,1.25,1.55,0.84,0.84,0.90
450.42,-0.43,-1.24,-0.43,-1.24,1.23,1.25,1.57,0.80,0.80,0.80
454.93,-0.47,-1.18,-0.47,-1.22,1.24,1.26,1.59,0.76,0.76,0.70
459.48,-0.51,-1.22,-0.51,-1.22,1.24,1.26,1.60,0.72,0.72,0.70
464.07,-0.55,-1.26,-0.55,-1.24,1.23,1.26,1.62,0.68,0.68,0.70
468.71,-0.59,-1.27,-0.59,-1.26,1.22,1.26,1.63,0.63,0.63,0.68
473.40,-0.63,-1.24,-0.63,-1.24,1.21,1.26,1.64,0.58,0.58,0.61
478.13,-0.67,-1.21,-0.67,-1.21,1.21,1.26,1.64,0.54,0.54,0.54
482.91,-0.71,-1.18,-0.71,-1.18,1.21,1.26,1.65,0.51,0.51,0.47
487.74,-0.74,-1.15,-0.74,-1.17,1.22,1.26,1.65,0.48,0.48,0.41
492.62,-0.78,-1.18,-0.78,-1.18,1.22,1.26,1.65,0.44,0.44,0.40
497.55,-0.81,-1.22,-0.81,-1.21,1.22,1.25,1.65,0.41,0.41,0.40
502.52,-0.85,-1.25,-0.85,-1.25,1.21,1.25,1.64,0.37,0.37,0.40
507.55,-0.88,-1.28,-0.88,-1.28,1.21,1.25,1.63,0.33,0.33,0.40
512.62,-0.91,-1.27,-0.91,-1.26,1.20,1.24,1.62,0.29,0.29,0.36
517.75,-0.95,-1.23,-0.95,-1.20,1.20,1.24,1.61,0.25,0.25,0.28
522.93,-0.98,-1.11,-0.98,-1.15,1.19,1.24,1.59,0.21,0.21,0.13
528.16,-1.01,-1.11,-1.01,-1.12,1.19,1.23,1.57,0.18,0.18,0.10
533.44,-1.04,-1.14,-1.04,-1.13,1.19,1.22,1.55,0.15,0.15,0.10
538.77,-1.07,-1.17,-1.07,-1.17,1.19,1.22,1.53,0.12,0.12,0.10
544.16,-1.10,-1.20,-1.10,-1.21,1.19,1.21,1.50,0.09,0.09,0.10
549.60,-1.13,-1.23,-1.13,-1.24,1.19,1.20,1.48,0.06,0.06,0.10
555.10,-1.16,-1.26,-1.16,-1.24,1.19,1.20,1.45,0.03,0.03,0.10
