frequency,raw,error,smoothed,error_smoothed,equalization,parametric_eq,fixed_band_eq,equalized_raw,equalized_smoothed,target
20.00,11.99,0.25,11.99,0.25,-0.29,-0.17,0.33,11.70,11.70,11.74
20.20,12.00,0.23,12.00,0.23,-0.24,-0.20,0.34,11.76,11.76,11.77
20.40,12.00,0.21,12.00,0.20,-0.18,-0.23,0.35,11.82,11.82,11.79
20.61,12.00,0.17,11.99,0.17,-0.13,-0.22,0.36,11.86,11.86,11.83
20.81,11.98,0.11,11.98,0.11,-0.08,-0.21,0.37,11.89,11.89,11.86
21.02,11.95,0.06,11.95,0.06,-0.04,-0.17,0.38,11.91,11.91,11.89
21.23,11.92,-0.00,11.92,-0.00,0.00,-0.12,0.39,11.92,11.92,11.92
21.44,11.88,-0.06,11.88,-0.06,0.04,-0.05,0.40,11.93,11.93,11.94
21.66,11.85,-0.10,11.85,-0.10,0.09,0.02,0.41,11.94,11.94,11.95
21.87,11.82,-0.14,11.82,-0.14,0.13,0.09,0.42,11.95,11.95,11.96
22.09,11.79,-0.17,11.79,-0.17,0.16,0.16,0.43,11.95,11.95,11.96
22.31,11.77,-0.19,11.77,-0.19,0.19,0.22,0.44,11.96,11.96,11.96
22.54,11.76,-0.21,11.76,-0.21,0.21,0.28,0.45,11.96,11.96,11.97
22.76,11.75,-0.22,11.75,-0.22,0.22,0.32,0.46,11.97,11.97,11.97
22.99,11.75,-0.23,11.75,-0.23,0.23,0.36,0.48,11.98,11.98,11.98
23.22,11.74,-0.24,11.74,-0.24,0.25,0.38,0.49,11.99,11.99,11.98
23.45,11.73,-0.26,11.73,-0.26,0.26,0.41,0.50,12.00,12.00,11.99
23.69,11.72,-0.28,11.72,-0.28,0.28,0.41,0.52,12.00,12.00,12.00
23.92,11.71,-0.30,11.71,-0.30,0.30,0.41,0.53,12.01,12.01,12.01
24.16,11.69,-0.32,11.69,-0.32,0.32,0.39,0.54,12.01,12.01,12.01
24.40,11.67,-0.35,11.67,-0.35,0.35,0.37,0.56,12.01,12.01,12.01
24.65,11.64,-0.37,11.64,-0.37,0.37,0.35,0.57,12.01,12.01,12.01
24.89,11.61,-0.40,11.61,-0.40,0.40,0.33,0.58,12.01,12.01,12.01
25.14,11.58,-0.43,11.58,-0.43,0.43,0.31,0.60,12.00,12.00,12.01
25.39,11.54,-0.46,11.54,-0.46,0.45,0.30,0.61,12.00,12.00,12.00
25.65,11.50,-0.48,11.50,-0.48,0.48,0.31,0.63,11.99,11.99,11.99
25.91,11.46,-0.51,11.46,-0.51,0.51,0.33,0.64,11.98,11.98,11.97
26.16,11.42,-0.54,11.42,-0.54,0.55,0.38,0.66,11.96,11.96,11.96
26.43,11.37,-0.57,11.37,-0.57,0.58,0.44,0.68,11.95,11.95,11.94
26.69,11.31,-0.61,11.31,-0.61,0.62,0.51,0.69,11.93,11.93,11.93
26.96,11.26,-0.66,11.26,-0.66,0.66,0.59,0.71,11.92,11.92,11.92
27.23,11.22,-0.70,11.22,-0.70,0.69,0.67,0.72,11.91,11.91,11.92
27.50,11.18,-0.74,11.18,-0.74,0.72,0.75,0.74,11.90,11.91,11.92
27.77,11.15,-0.77,11.15,-0.77,0.76,0.82,0.76,11.90,11.91,11.92
28.05,11.12,-0.80,11.12,-0.79,0.79,0.88,0.77,11.91,11.91,11.92
28.33,11.09,-0.82,11.09,-0.82,0.82,0.94,0.79,11.91,11.91,11.91
28.62,11.05,-0.84,11.05,-0.84,0.86,1.00,0.80,11.91,11.91,11.89
28.90,11.01,-0.87,11.01,-0.87,0.89,1.04,0.82,11.90,11.90,11.88
29.19,10.96,-0.91,10.95,-0.91,0.93,1.09,0.84,11.88,11.88,11.87
29.48,10.90,-0.96,10.90,-0.96,0.96,1.13,0.85,11.86,11.86,11.85
29.78,10.85,-1.01,10.85,-1.01,0.99,1.16,0.87,11.84,11.84,11.85
30.08,10.80,-1.05,10.81,-1.05,1.02,1.19,0.88,11.82,11.82,11.85
30.38,10.77,-1.08,10.78,-1.07,1.04,1.22,0.90,11.82,11.82,11.85
30.68,10.76,-1.09,10.76,-1.09,1.07,1.24,0.91,11.83,11.83,11.85
30.99,10.75,-1.09,10.75,-1.09,1.10,1.26,0.93,11.85,11.85,11.84
31.30,10.73,-1.10,10.73,-1.10,1.13,1.28,0.94,11.86,11.86,11.83
31.61,10.70,-1.12,10.69,-1.13,1.17,1.30,0.96,11.86,11.86,11.82
31.93,10.64,-1.17,10.64,-1.18,1.21,1.31,0.97,11.85,11.84,11.81
32.24,10.56,-1.24,10.56,-1.24,1.25,1.33,0.99,11.81,11.81,11.80
32.57,10.48,-1.31,10.48,-1.31,1.29,1.34,1.00,11.78,11.78,11.80
32.89,10.41,-1.38,10.41,-1.37,1.34,1.35,1.02,11.75,11.75,11.78
33.22,10.36,-1.41,10.36,-1.41,1.38,1.36,1.03,11.74,11.74,11.77
33.55,10.32,-1.44,10.33,-1.43,1.42,1.37,1.05,11.74,11.74,11.76
33.89,10.31,-1.44,10.31,-1.44,1.45,1.38,1.06,11.76,11.76,11.75
34.23,10.31,-1.44,10.31,-1.45,1.47,1.39,1.08,11.78,11.78,11.75
34.57,10.30,-1.45,10.30,-1.46,1.48,1.40,1.09,11.78,11.78,11.76
34.92,10.28,-1.48,10.28,-1.48,1.49,1.41,1.11,11.77,11.76,11.76
35.27,10.25,-1.51,10.25,-1.50,1.48,1.42,1.12,11.74,11.74,11.76
35.62,10.23,-1.52,10.23,-1.51,1.48,1.43,1.14,11.71,11.71,11.75
35.97,10.22,-1.51,10.22,-1.51,1.48,1.44,1.16,11.69,11.70,11.73
36.33,10.22,-1.48,10.22,-1.48,1.47,1.45,1.18,11.70,11.70,11.70
36.70,10.22,-1.45,10.23,-1.45,1.48,1.46,1.19,11.70,11.70,11.68
37.06,10.22,-1.44,10.22,-1.44,1.49,1.47,1.21,11.71,11.70,11.66
37.43,10.19,-1.45,10.19,-1.46,1.50,1.48,1.23,11.69,11.69,11.65
37.81,10.13,-1.50,10.13,-1.50,1.52,1.49,1.25,11.65,11.65,11.64
38.19,10.07,-1.56,10.07,-1.56,1.55,1.50,1.27,11.61,11.61,11.63
38.57,10.00,-1.61,10.00,-1.61,1.58,1.52,1.29,11.58,11.58,11.61
38.95,9.94,-1.65,9.94,-1.64,1.62,1.53,1.32,11.56,11.56,11.59
39.34,9.89,-1.67,9.89,-1.67,1.67,1.55,1.34,11.56,11.56,11.56
39.74,9.85,-1.69,9.85,-1.69,1.70,1.57,1.37,11.56,11.56,11.55
40.14,9.81,-1.72,9.81,-1.72,1.74,1.59,1.39,11.55,11.55,11.53
40.54,9.77,-1.75,9.77,-1.76,1.76,1.61,1.42,11.53,11.53,11.52
40.94,9.73,-1.79,9.73,-1.79,1.78,1.63,1.45,11.51,11.51,11.52
41.35,9.69,-1.82,9.69,-1.81,1.79,1.65,1.47,11.48,11.49,11.51
41.76,9.66,-1.83,9.67,-1.82,1.80,1.68,1.50,11.47,11.47,11.49
42.18,9.65,-1.82,9.65,-1.82,1.81,1.70,1.54,11.46,11.46,11.46
42.60,9.64,-1.80,9.64,-1.80,1.81,1.73,1.57,11.44,11.44,11.44
43.03,9.62,-1.79,9.62,-1.79,1.81,1.75,1.60,11.43,11.43,11.41
43.46,9.61,-1.79,9.61,-1.79,1.80,1.78,1.64,11.41,11.41,11.40
43.90,9.59,-1.79,9.59,-1.79,1.79,1.81,1.67,11.39,11.39,11.38
44.33,9.58,-1.80,9.58,-1.79,1.79,1.84,1.71,11.37,11.37,11.37
44.78,9.56,-1.80,9.55,-1.79,1.79,1.87,1.75,11.35,11.35,11.35
45.23,9.53,-1.80,9.52,-1.80,1.80,1.90,1.79,11.33,11.32,11.32
45.68,9.49,-1.80,9.49,-1.80,1.81,1.93,1.83,11.30,11.30,11.29
46.13,9.45,-1.81,9.45,-1.82,1.82,1.96,1.87,11.26,11.27,11.26
46.60,9.41,-1.84,9.41,-1.83,1.83,2.00,1.92,11.24,11.24,11.24
47.06,9.37,-1.86,9.37,-1.85,1.84,2.03,1.96,11.21,11.22,11.23
47.53,9.34,-1.88,9.34,-1.87,1.86,2.06,2.01,11.20,11.20,11.21
48.01,9.30,-1.89,9.30,-1.89,1.88,2.09,2.06,11.18,11.18,11.19
48.49,9.26,-1.91,9.26,-1.91,1.91,2.12,2.11,11.17,11.17,11.16
48.97,9.20,-1.93,9.20,-1.93,1.95,2.15,2.16,11.15,11.15,11.14
49.46,9.14,-1.97,9.14,-1.97,2.00,2.19,2.21,11.14,11.14,11.11
49.96,9.07,-2.03,9.06,-2.03,2.05,2.22,2.26,11.11,11.11,11.09
50.46,8.97,-2.09,8.97,-2.09,2.11,2.25,2.31,11.08,11.08,11.07
50.96,8.88,-2.16,8.88,-2.17,2.17,2.28,2.36,11.04,11.04,11.04
51.47,8.78,-2.24,8.78,-2.23,2.22,2.31,2.41,11.00,11.00,11.01
51.99,8.69,-2.29,8.70,-2.29,2.27,2.34,2.46,10.96,10.97,10.99
52.51,8.63,-2.34,8.63,-2.34,2.31,2.37,2.52,10.94,10.94,10.96
53.03,8.57,-2.37,8.58,-2.36,2.34,2.39,2.57,10.91,10.92,10.94
53.56,8.54,-2.37,8.54,-2.37,2.36,2.42,2.62,10.90,10.90,10.91
54.10,8.52,-2.36,8.52,-2.36,2.36,2.45,2.67,10.88,10.88,10.88
54.64,8.50,-2.35,8.50,-2.35,2.36,2.48,2.72,10.86,10.86,10.85
55.18,8.48,-2.35,8.48,-2.35,2.35,2.50,2.77,10.83,10.83,10.83
55.74,8.46,-2.35,8.46,-2.35,2.34,2.53,2.82,10.80,10.80,10.81
56.29,8.43,-2.35,8.43,-2.34,2.34,2.56,2.86,10.77,10.77,10.78
56.86,8.40,-2.34,8.40,-2.35,2.35,2.58,2.91,10.75,10.75,10.75
57.42,8.36,-2.36,8.36,-2.36,2.36,2.60,2.95,10.72,10.72,10.71
58.00,8.31,-2.37,8.30,-2.38,2.39,2.63,2.99,10.70,10.70,10.68
58.58,8.23,-2.42,8.23,-2.42,2.44,2.65,3.03,10.67,10.67,10.65
59.16,8.14,-2.48,8.14,-2.48,2.50,2.67,3.06,10.64,10.64,10.62
59.76,8.03,-2.56,8.03,-2.56,2.58,2.70,3.09,10.61,10.61,10.59
60.35,7.91,-2.65,7.91,-2.65,2.67,2.72,3.12,10.58,10.58,10.56
60.96,7.77,-2.76,7.76,-2.76,2.78,2.74,3.15,10.54,10.54,10.53
61.57,7.62,-2.86,7.61,-2.87,2.88,2.76,3.17,10.50,10.50,10.48
62.18,7.47,-2.98,7.47,-2.98,2.97,2.78,3.18,10.44,10.44,10.45
62.80,7.33,-3.10,7.33,-3.09,3.05,2.80,3.20,10.38,10.38,10.43
63.43,7.23,-3.16,7.23,-3.16,3.10,2.82,3.21,10.33,10.33,10.39
64.07,7.15,-3.20,7.17,-3.19,3.13,2.84,3.22,10.28,10.30,10.35
64.71,7.14,-3.19,7.14,-3.18,3.14,2.86,3.22,10.28,10.28,10.33
65.35,7.15,-3.15,7.15,-3.14,3.14,2.87,3.22,10.28,10.28,10.29
66.01,7.17,-3.07,7.16,-3.09,3.13,2.89,3.22,10.29,10.29,10.24
66.67,7.16,-3.05,7.16,-3.06,3.12,2.91,3.22,10.28,10.27,10.21
67.33,7.13,-3.05,7.13,-3.05,3.11,2.92,3.21,10.24,10.24,10.18
68.01,7.07,-3.07,7.07,-3.07,3.11,2.94,3.20,10.19,10.18,10.14
68.69,6.98,-3.11,6.98,-3.12,3.12,2.96,3.19,10.10,10.10,10.09
69.37,6.89,-3.17,6.89,-3.17,3.14,2.97,3.17,10.03,10.03,10.06
70.07,6.81,-3.23,6.82,-3.20,3.15,2.99,3.16,9.97,9.97,10.05
70.77,6.77,-3.18,6.77,-3.21,3.17,3.00,3.14,9.94,9.94,9.95
71.48,6.74,-3.18,6.74,-3.19,3.17,3.02,3.12,9.92,9.92,9.93
72.19,6.73,-3.19,6.73,-3.16,3.17,3.03,3.11,9.90,9.90,9.92
72.91,6.72,-3.13,6.72,-3.14,3.15,3.04,3.09,9.87,9.87,9.84
73.64,6.70,-3.12,6.70,-3.14,3.14,3.06,3.07,9.84,9.84,9.82
74.38,6.67,-3.13,6.67,-3.12,3.13,3.07,3.05,9.80,9.80,9.80
75.12,6.64,-3.14,6.64,-3.10,3.12,3.08,3.03,9.76,9.76,9.77
75.87,6.60,-3.06,6.60,-3.10,3.12,3.09,3.01,9.72,9.72,9.66
76.63,6.56,-3.09,6.56,-3.12,3.13,3.11,3.00,9.69,9.69,9.65
77.40,6.52,-3.19,6.52,-3.13,3.13,3.12,2.98,9.65,9.65,9.71
78.17,6.47,-3.16,6.47,-3.17,3.14,3.13,2.96,9.61,9.61,9.63
78.95,6.42,-3.14,6.42,-3.18,3.14,3.14,2.95,9.57,9.57,9.56
79.74,6.37,-3.21,6.37,-3.15,3.15,3.15,2.94,9.53,9.53,9.58
80.54,6.32,-3.16,6.32,-3.15,3.16,3.16,2.93,9.48,9.48,9.48
81.35,6.26,-3.09,6.26,-3.16,3.17,3.17,2.92,9.44,9.44,9.36
82.16,6.20,-3.18,6.20,-3.16,3.18,3.18,2.91,9.38,9.38,9.38
82.98,6.14,-3.21,6.14,-3.19,3.19,3.19,2.91,9.33,9.33,9.35
83.81,6.07,-3.20,6.07,-3.22,3.21,3.20,2.90,9.28,9.28,9.27
84.65,6.00,-3.24,6.00,-3.24,3.23,3.21,2.90,9.24,9.24,9.25
85.50,5.93,-3.28,5.93,-3.26,3.26,3.22,2.90,9.20,9.20,9.21
86.35,5.86,-3.30,5.86,-3.29,3.29,3.23,2.90,9.15,9.15,9.16
87.22,5.79,-3.29,5.79,-3.31,3.32,3.24,2.91,9.11,9.11,9.08
88.09,5.71,-3.34,5.71,-3.35,3.35,3.24,2.92,9.06,9.06,9.05
88.97,5.64,-3.40,5.64,-3.38,3.38,3.25,2.93,9.02,9.02,9.04
89.86,5.57,-3.43,5.57,-3.41,3.40,3.26,2.94,8.97,8.97,9.00
90.76,5.50,-3.41,5.50,-3.43,3.43,3.27,2.95,8.93,8.93,8.92
91.66,5.44,-3.43,5.44,-3.45,3.45,3.27,2.97,8.90,8.90,8.88
92.58,5.38,-3.50,5.38,-3.47,3.48,3.28,2.99,8.85,8.85,8.88
93.51,5.32,-3.49,5.32,-3.49,3.49,3.29,3.01,8.81,8.81,8.81
94.44,5.26,-3.49,5.26,-3.50,3.50,3.29,3.03,8.76,8.76,8.74
95.39,5.20,-3.50,5.20,-3.51,3.50,3.30,3.06,8.70,8.70,8.70
96.34,5.14,-3.54,5.14,-3.52,3.50,3.31,3.08,8.64,8.64,8.68
97.30,5.09,-3.53,5.09,-3.51,3.50,3.31,3.11,8.59,8.59,8.62
98.28,5.05,-3.48,5.06,-3.49,3.49,3.32,3.14,8.55,8.55,8.54
99.26,5.03,-3.46,5.03,-3.48,3.49,3.32,3.17,8.52,8.52,8.48
100.25,5.00,-3.48,4.99,-3.48,3.49,3.33,3.21,8.48,8.48,8.48
101.25,4.95,-3.51,4.94,-3.48,3.49,3.34,3.24,8.44,8.43,8.46
102.27,4.87,-3.48,4.86,-3.49,3.50,3.34,3.28,8.37,8.37,8.35
103.29,4.77,-3.47,4.77,-3.51,3.52,3.34,3.31,8.29,8.29,8.24
104.32,4.66,-3.57,4.67,-3.53,3.55,3.35,3.35,8.22,8.22,8.23
105.37,4.57,-3.58,4.57,-3.58,3.59,3.35,3.39,8.15,8.16,8.15
106.42,4.48,-3.61,4.48,-3.63,3.63,3.36,3.43,8.11,8.11,8.09
107.48,4.40,-3.67,4.41,-3.66,3.66,3.36,3.47,8.07,8.07,8.08
108.56,4.34,-3.70,4.34,-3.70,3.69,3.37,3.50,8.03,8.03,8.04
109.64,4.28,-3.72,4.28,-3.73,3.71,3.37,3.54,8.00,7.99,8.01
110.74,4.23,-3.74,4.23,-3.73,3.72,3.37,3.58,7.95,7.94,7.97
111.85,4.17,-3.73,4.17,-3.74,3.71,3.38,3.61,7.88,7.88,7.90
112.97,4.12,-3.72,4.12,-3.72,3.69,3.38,3.64,7.81,7.81,7.84
114.10,4.07,-3.69,4.07,-3.67,3.67,3.38,3.68,7.74,7.74,7.77
115.24,4.03,-3.61,4.03,-3.62,3.64,3.39,3.70,7.67,7.67,7.64
116.39,4.01,-3.57,4.00,-3.57,3.61,3.39,3.73,7.61,7.61,7.57
117.55,3.98,-3.54,3.99,-3.54,3.57,3.39,3.76,7.55,7.56,7.53
118.73,3.98,-3.53,3.98,-3.53,3.53,3.39,3.78,7.51,7.51,7.52
119.92,3.99,-3.52,3.99,-3.51,3.49,3.39,3.79,7.48,7.48,7.51
121.12,3.99,-3.49,3.99,-3.50,3.47,3.40,3.81,7.46,7.46,7.48
122.33,4.00,-3.46,4.00,-3.45,3.45,3.40,3.82,7.44,7.44,7.45
123.55,3.99,-3.45,3.99,-3.41,3.43,3.40,3.83,7.42,7.42,7.44
124.79,3.98,-3.33,3.98,-3.39,3.42,3.40,3.83,7.40,7.40,7.31
126.03,3.95,-3.39,3.95,-3.39,3.41,3.40,3.83,7.36,7.36,7.34
127.29,3.89,-3.43,3.89,-3.41,3.41,3.40,3.83,7.30,7.30,7.33
128.57,3.82,-3.43,3.82,-3.43,3.41,3.40,3.82,7.23,7.23,7.26
129.85,3.74,-3.42,3.74,-3.43,3.41,3.41,3.81,7.15,7.15,7.17
131.15,3.66,-3.41,3.67,-3.42,3.42,3.41,3.80,7.08,7.08,7.08
132.46,3.59,-3.44,3.60,-3.43,3.43,3.41,3.78,7.02,7.02,7.03
133.79,3.53,-3.43,3.53,-3.43,3.44,3.41,3.76,6.97,6.97,6.97
135.12,3.48,-3.43,3.48,-3.44,3.45,3.41,3.74,6.93,6.93,6.92
136.48,3.43,-3.44,3.43,-3.44,3.45,3.41,3.71,6.89,6.89,6.87
137.84,3.39,-3.45,3.38,-3.45,3.46,3.41,3.68,6.85,6.84,6.83
139.22,3.33,-3.47,3.33,-3.47,3.47,3.41,3.65,6.80,6.80,6.80
140.61,3.28,-3.48,3.28,-3.48,3.47,3.41,3.62,6.75,6.75,6.76
142.02,3.22,-3.48,3.22,-3.49,3.47,3.40,3.59,6.69,6.69,6.70
143.44,3.16,-3.48,3.16,-3.48,3.46,3.40,3.55,6.62,6.62,6.64
144.87,3.10,-3.46,3.10,-3.46,3.45,3.40,3.52,6.55,6.55,6.56
146.32,3.04,-3.44,3.04,-3.44,3.44,3.40,3.48,6.48,6.48,6.48
147.78,2.98,-3.42,2.98,-3.42,3.43,3.40,3.45,6.41,6.41,6.40
149.26,2.93,-3.40,2.93,-3.40,3.42,3.40,3.41,6.35,6.35,6.33
150.75,2.88,-3.39,2.88,-3.39,3.41,3.40,3.38,6.28,6.28,6.27
152.26,2.82,-3.39,2.82,-3.39,3.40,3.40,3.35,6.22,6.22,6.21
153.78,2.76,-3.40,2.76,-3.39,3.39,3.39,3.31,6.16,6.16,6.16
155.32,2.71,-3.40,2.71,-3.39,3.39,3.39,3.28,6.10,6.10,6.11
156.88,2.66,-3.38,2.66,-3.39,3.38,3.39,3.25,6.04,6.04,6.04
158.44,2.61,-3.38,2.61,-3.38,3.38,3.39,3.22,5.99,5.99,5.99
160.03,2.56,-3.39,2.56,-3.37,3.37,3.38,3.19,5.94,5.93,5.95
161.63,2.52,-3.36,2.52,-3.36,3.36,3.38,3.17,5.88,5.88,5.87
163.24,2.47,-3.34,2.47,-3.35,3.35,3.38,3.14,5.82,5.82,5.81
164.88,2.42,-3.35,2.42,-3.34,3.34,3.38,3.12,5.77,5.77,5.78
166.53,2.37,-3.33,2.37,-3.33,3.34,3.37,3.10,5.71,5.71,5.70
168.19,2.32,-3.31,2.32,-3.32,3.33,3.37,3.08,5.65,5.65,5.63
169.87,2.27,-3.31,2.27,-3.32,3.32,3.37,3.07,5.60,5.60,5.59
171.57,2.23,-3.33,2.23,-3.32,3.32,3.36,3.06,5.55,5.55,5.56
173.29,2.19,-3.33,2.19,-3.32,3.31,3.36,3.04,5.50,5.50,5.51
175.02,2.14,-3.30,2.14,-3.32,3.31,3.35,3.04,5.45,5.45,5.45
176.77,2.10,-3.31,2.10,-3.30,3.30,3.35,3.03,5.40,5.40,5.40
178.54,2.05,-3.29,2.05,-3.28,3.29,3.35,3.03,5.34,5.34,5.34
180.32,2.00,-3.26,2.00,-3.28,3.28,3.34,3.02,5.28,5.28,5.26
182.13,1.95,-3.28,1.95,-3.27,3.27,3.34,3.02,5.21,5.21,5.23
183.95,1.89,-3.26,1.89,-3.26,3.26,3.33,3.03,5.15,5.15,5.16
185.79,1.84,-3.24,1.84,-3.25,3.24,3.33,3.03,5.09,5.09,5.08
187.65,1.79,-3.22,1.79,-3.23,3.23,3.32,3.04,5.02,5.02,5.01
189.52,1.75,-3.22,1.75,-3.21,3.22,3.32,3.05,4.96,4.96,4.96
191.42,1.70,-3.21,1.70,-3.21,3.20,3.31,3.06,4.91,4.91,4.91
193.33,1.66,-3.20,1.66,-3.20,3.19,3.30,3.07,4.85,4.85,4.86
195.27,1.62,-3.20,1.62,-3.19,3.18,3.30,3.09,4.80,4.80,4.82
197.22,1.57,-3.17,1.57,-3.17,3.18,3.29,3.10,4.75,4.75,4.74
199.19,1.52,-3.15,1.52,-3.16,3.17,3.29,3.12,4.69,4.69,4.66
201.18,1.46,-3.15,1.46,-3.15,3.16,3.28,3.14,4.63,4.63,4.61
203.19,1.41,-3.17,1.41,-3.16,3.16,3.27,3.16,4.57,4.57,4.58
205.23,1.37,-3.17,1.37,-3.16,3.15,3.27,3.19,4.52,4.52,4.54
207.28,1.33,-3.15,1.33,-3.15,3.14,3.26,3.21,4.47,4.47,4.48
209.35,1.29,-3.13,1.29,-3.14,3.13,3.25,3.23,4.42,4.42,4.42
211.44,1.25,-3.12,1.25,-3.12,3.13,3.24,3.26,4.38,4.38,4.37
213.56,1.21,-3.11,1.21,-3.11,3.12,3.24,3.28,4.33,4.33,4.32
215.69,1.18,-3.10,1.18,-3.10,3.11,3.23,3.31,4.28,4.28,4.28
217.85,1.14,-3.10,1.13,-3.10,3.10,3.22,3.33,4.24,4.24,4.24
220.03,1.09,-3.11,1.09,-3.10,3.09,3.21,3.35,4.18,4.18,4.20
222.23,1.04,-3.09,1.04,-3.09,3.09,3.21,3.38,4.13,4.13,4.13
224.45,1.00,-3.07,1.00,-3.08,3.08,3.20,3.40,4.08,4.08,4.07
226.70,0.95,-3.07,0.95,-3.08,3.07,3.19,3.42,4.02,4.02,4.02
228.96,0.91,-3.08,0.91,-3.07,3.06,3.18,3.44,3.97,3.97,3.99
231.25,0.86,-3.07,0.86,-3.06,3.05,3.17,3.45,3.92,3.92,3.93
233.57,0.82,-3.04,0.82,-3.04,3.04,3.16,3.46,3.86,3.86,3.86
235.90,0.78,-3.01,0.78,-3.02,3.04,3.15,3.48,3.81,3.81,3.78
238.26,0.73,-3.01,0.73,-3.02,3.03,3.14,3.48,3.76,3.76,3.75
240.64,0.69,-3.02,0.69,-3.02,3.02,3.13,3.49,3.71,3.71,3.72
243.05,0.65,-3.04,0.65,-3.02,3.01,3.12,3.49,3.66,3.66,3.69
245.48,0.61,-3.01,0.61,-3.01,3.00,3.11,3.49,3.61,3.61,3.62
247.93,0.57,-2.99,0.57,-3.00,3.00,3.10,3.48,3.57,3.56,3.55
250.41,0.52,-2.98,0.52,-2.99,2.99,3.09,3.48,3.51,3.51,3.51
252.92,0.48,-2.99,0.48,-2.98,2.98,3.08,3.46,3.46,3.46,3.47
255.45,0.44,-2.97,0.44,-2.96,2.96,3.07,3.45,3.40,3.40,3.41
258.00,0.41,-2.93,0.41,-2.95,2.94,3.06,3.43,3.34,3.34,3.33
260.58,0.37,-2.93,0.37,-2.93,2.92,3.05,3.41,3.29,3.29,3.30
263.19,0.34,-2.92,0.34,-2.90,2.90,3.04,3.38,3.23,3.23,3.26
265.82,0.30,-2.87,0.30,-2.87,2.88,3.03,3.35,3.18,3.18,3.17
268.48,0.26,-2.81,0.27,-2.84,2.86,3.01,3.32,3.13,3.13,3.07
271.16,0.23,-2.82,0.23,-2.83,2.85,3.00,3.29,3.08,3.08,3.05
273.87,0.19,-2.85,0.19,-2.83,2.84,2.99,3.25,3.03,3.03,3.04
276.61,0.16,-2.85,0.16,-2.83,2.82,2.98,3.21,2.98,2.98,3.01
279.38,0.12,-2.80,0.12,-2.83,2.81,2.96,3.17,2.93,2.93,2.93
282.17,0.09,-2.80,0.09,-2.81,2.80,2.95,3.13,2.88,2.88,2.89
284.99,0.06,-2.81,0.05,-2.80,2.78,2.94,3.09,2.84,2.84,2.87
287.84,0.02,-2.78,0.02,-2.77,2.77,2.92,3.04,2.79,2.79,2.80
290.72,-0.02,-2.74,-0.02,-2.73,2.75,2.91,3.00,2.74,2.74,2.72
293.63,-0.05,-2.68,-0.05,-2.71,2.73,2.90,2.95,2.68,2.68,2.63
296.57,-0.09,-2.69,-0.09,-2.71,2.71,2.88,2.90,2.62,2.62,2.60
299.53,-0.13,-2.75,-0.13,-2.71,2.70,2.87,2.86,2.57,2.57,2.62
302.53,-0.17,-2.72,-0.17,-2.70,2.68,2.85,2.81,2.51,2.51,2.55
305.55,-0.20,-2.65,-0.20,-2.67,2.67,2.84,2.77,2.46,2.46,2.45
308.61,-0.24,-2.63,-0.24,-2.64,2.65,2.82,2.72,2.41,2.41,2.38
311.69,-0.28,-2.64,-0.28,-2.63,2.64,2.81,2.68,2.36,2.36,2.36
314.81,-0.31,-2.64,-0.31,-2.63,2.62,2.79,2.63,2.31,2.31,2.32
317.96,-0.34,-2.61,-0.34,-2.62,2.61,2.78,2.59,2.27,2.27,2.27
321.14,-0.37,-2.59,-0.37,-2.59,2.59,2.76,2.55,2.22,2.22,2.22
324.35,-0.40,-2.57,-0.40,-2.57,2.58,2.75,2.51,2.18,2.18,2.17
327.59,-0.43,-2.56,-0.43,-2.56,2.56,2.73,2.47,2.13,2.13,2.13
330.87,-0.46,-2.55,-0.46,-2.55,2.55,2.71,2.43,2.09,2.09,2.09
334.18,-0.50,-2.54,-0.50,-2.54,2.54,2.70,2.40,2.04,2.04,2.05
337.52,-0.53,-2.53,-0.53,-2.53,2.53,2.68,2.36,1.99,1.99,2.00
340.90,-0.57,-2.51,-0.57,-2.51,2.51,2.66,2.33,1.95,1.95,1.95
344.30,-0.60,-2.50,-0.60,-2.50,2.50,2.65,2.30,1.90,1.90,1.90
347.75,-0.63,-2.49,-0.63,-2.49,2.49,2.63,2.27,1.85,1.85,1.86
351.23,-0.67,-2.48,-0.67,-2.48,2.48,2.61,2.24,1.81,1.81,1.81
354.74,-0.70,-2.47,-0.70,-2.46,2.46,2.59,2.22,1.76,1.76,1.76
358.28,-0.73,-2.44,-0.73,-2.45,2.45,2.58,2.20,1.72,1.72,1.71
361.87,-0.76,-2.43,-0.76,-2.44,2.44,2.56,2.17,1.68,1.68,1.68
365.49,-0.78,-2.43,-0.79,-2.42,2.43,2.54,2.15,1.64,1.64,1.65
369.14,-0.82,-2.41,-0.82,-2.41,2.41,2.52,2.13,1.60,1.60,1.59
372.83,-0.85,-2.40,-0.85,-2.40,2.40,2.50,2.12,1.55,1.55,1.55
376.56,-0.88,-2.39,-0.88,-2.39,2.39,2.48,2.10,1.50,1.50,1.50
380.33,-0.92,-2.37,-0.92,-2.37,2.37,2.46,2.09,1.46,1.46,1.46
384.13,-0.95,-2.36,-0.95,-2.36,2.36,2.44,2.07,1.41,1.41,1.41
387.97,-0.98,-2.34,-0.98,-2.34,2.34,2.42,2.06,1.36,1.36,1.36
391.85,-1.01,-2.32,-1.01,-2.32,2.33,2.40,2.05,1.32,1.32,1.31
395.77,-1.04,-2.31,-1.04,-2.31,2.31,2.38,2.04,1.27,1.27,1.27
399.73,-1.06,-2.29,-1.06,-2.29,2.29,2.36,2.04,1.23,1.23,1.23
403.72,-1.09,-2.27,-1.09,-2.27,2.28,2.34,2.03,1.19,1.19,1.19
407.76,-1.11,-2.26,-1.11,-2.26,2.26,2.32,2.03,1.15,1.15,1.15
411.84,-1.13,-2.24,-1.13,-2.24,2.24,2.30,2.02,1.11,1.11,1.11
415.96,-1.15,-2.22,-1.15,-2.22,2.22,2.28,2.02,1.07,1.07,1.07
420.12,-1.18,-2.20,-1.18,-2.20,2.20,2.26,2.02,1.03,1.03,1.03
424.32,-1.20,-2.19,-1.20,-2.18,2.18,2.23,2.01,0.98,0.98,0.99
428.56,-1.22,-2.16,-1.22,-2.16,2.16,2.21,2.01,0.94,0.94,0.94
432.85,-1.23,-2.14,-1.23,-2.14,2.14,2.19,2.01,0.90,0.90,0.90
437.18,-1.25,-2.12,-1.25,-2.12,2.11,2.17,2.01,0.86,0.86,0.87
441.55,-1.26,-2.09,-1.26,-2.09,2.09,2.14,2.01,0.83,0.83,0.83
445.96,-1.28,-2.07,-1.28,-2.07,2.07,2.12,2.00,0.79,0.79,0.79
450.42,-1.30,-2.04,-1.30,-2.04,2.05,2.10,2.00,0.76,0.76,0.74
454.93,-1.32,-2.02,-1.32,-2.03,2.04,2.07,2.00,0.72,0.71,0.70
459.48,-1.35,-2.02,-1.35,-2.02,2.02,2.05,2.00,0.67,0.67,0.67
464.07,-1.38,-2.01,-1.38,-2.01,2.00,2.03,1.99,0.63,0.63,0.63
468.71,-1.40,-2.00,-1.40,-2.00,1.99,2.00,1.99,0.59,0.59,0.60
473.40,-1.42,-1.98,-1.42,-1.98,1.97,1.98,1.98,0.55,0.55,0.56
478.13,-1.43,-1.96,-1.43,-1.96,1.95,1.96,1.97,0.52,0.52,0.52
482.91,-1.45,-1.93,-1.45,-1.93,1.93,1.93,1.96,0.49,0.49,0.48
487.74,-1.46,-1.91,-1.46,-1.91,1.91,1.91,1.95,0.45,0.45,0.45
492.62,-1.47,-1.89,-1.47,-1.89,1.89,1.88,1.94,0.42,0.42,0.42
497.55,-1.48,-1.86,-1.48,-1.86,1.87,1.86,1.93,0.39,0.39,0.38
502.52,-1.49,-1.84,-1.49,-1.84,1.84,1.83,1.91,0.35,0.35,0.35
507.55,-1.51,-1.82,-1.51,-1.83,1.82,1.81,1.90,0.31,0.31,0.31
512.62,-1.52,-1.81,-1.52,-1.80,1.80,1.78,1.88,0.28,0.28,0.29
517.75,-1.53,-1.79,-1.53,-1.78,1.78,1.75,1.86,0.25,0.25,0.25
