frequency,raw,error,smoothed,error_smoothed,equalization,parametric_eq,fixed_band_eq,equalized_raw,equalized_smoothed,target
20.00,10.46,6.33,10.46,6.34,-6.44,-6.04,-1.78,4.03,4.02,4.14
20.20,10.45,6.26,10.45,6.26,-6.25,-6.01,-1.84,4.20,4.20,4.19
20.40,10.43,6.16,10.44,6.15,-6.07,-5.98,-1.89,4.36,4.37,4.27
20.61,10.42,6.08,10.42,6.01,-5.91,-5.93,-1.95,4.51,4.51,4.34
20.81,10.41,5.79,10.41,5.81,-5.77,-5.88,-2.01,4.64,4.64,4.62
21.02,10.39,5.57,10.39,5.60,-5.64,-5.82,-2.07,4.76,4.76,4.82
21.23,10.37,5.42,10.37,5.42,-5.52,-5.75,-2.13,4.85,4.85,4.94
21.44,10.34,5.34,10.34,5.34,-5.42,-5.68,-2.20,4.92,4.91,5.00
21.66,10.30,5.28,10.30,5.30,-5.33,-5.61,-2.26,4.97,4.97,5.02
21.87,10.26,5.31,10.26,5.29,-5.26,-5.54,-2.33,5.00,5.00,4.95
22.09,10.21,5.28,10.21,5.25,-5.21,-5.46,-2.40,5.00,5.00,4.94
22.31,10.18,5.20,10.18,5.21,-5.19,-5.39,-2.47,4.99,4.99,4.97
22.54,10.15,5.12,10.15,5.17,-5.17,-5.31,-2.54,4.98,4.98,5.02
22.76,10.12,5.17,10.12,5.13,-5.15,-5.24,-2.62,4.98,4.98,4.95
22.99,10.11,5.12,10.11,5.12,-5.11,-5.17,-2.70,5.00,5.00,4.98
23.22,10.10,5.06,10.10,5.09,-5.07,-5.11,-2.78,5.03,5.03,5.04
23.45,10.09,5.05,10.09,5.03,-5.02,-5.04,-2.86,5.07,5.06,5.04
23.69,10.07,4.98,10.07,4.98,-4.97,-4.97,-2.94,5.10,5.10,5.10
23.92,10.05,4.92,10.05,4.93,-4.92,-4.91,-3.02,5.14,5.14,5.14
24.16,10.02,4.89,10.02,4.86,-4.85,-4.85,-3.11,5.17,5.17,5.14
24.40,9.99,4.78,9.99,4.80,-4.78,-4.79,-3.19,5.21,5.21,5.20
24.65,9.95,4.72,9.96,4.73,-4.72,-4.73,-3.28,5.24,5.24,5.24
24.89,9.92,4.69,9.93,4.66,-4.67,-4.67,-3.37,5.26,5.26,5.24
25.14,9.90,4.60,9.90,4.60,-4.64,-4.62,-3.46,5.26,5.26,5.30
25.39,9.88,4.55,9.88,4.56,-4.63,-4.56,-3.55,5.26,5.26,5.34
25.65,9.87,4.55,9.87,4.55,-4.63,-4.51,-3.64,5.24,5.24,5.32
25.91,9.85,4.59,9.85,4.61,-4.64,-4.45,-3.73,5.22,5.22,5.26
26.16,9.83,4.67,9.82,4.67,-4.64,-4.40,-3.81,5.19,5.19,5.15
26.43,9.79,4.75,9.79,4.71,-4.63,-4.34,-3.90,5.15,5.15,5.04
26.69,9.74,4.70,9.74,4.71,-4.62,-4.29,-3.99,5.12,5.12,5.04
26.96,9.69,4.65,9.68,4.66,-4.60,-4.24,-4.07,5.09,5.08,5.04
27.23,9.63,4.59,9.64,4.57,-4.57,-4.18,-4.15,5.06,5.06,5.05
27.50,9.60,4.46,9.60,4.47,-4.54,-4.13,-4.23,5.06,5.06,5.14
27.77,9.58,4.39,9.58,4.40,-4.49,-4.08,-4.31,5.10,5.10,5.19
28.05,9.58,4.34,9.58,4.35,-4.42,-4.02,-4.38,5.15,5.15,5.24
28.33,9.58,4.35,9.58,4.36,-4.36,-3.97,-4.45,5.23,5.22,5.24
28.62,9.59,4.36,9.59,4.34,-4.29,-3.92,-4.51,5.30,5.30,5.24
28.90,9.60,4.31,9.59,4.28,-4.21,-3.87,-4.56,5.39,5.38,5.29
29.19,9.58,4.15,9.58,4.15,-4.11,-3.81,-4.61,5.47,5.47,5.43
29.48,9.56,3.98,9.56,4.00,-3.99,-3.76,-4.65,5.57,5.57,5.58
29.78,9.52,3.84,9.52,3.85,-3.84,-3.70,-4.69,5.68,5.68,5.68
30.08,9.47,3.70,9.47,3.69,-3.67,-3.65,-4.72,5.80,5.80,5.77
30.38,9.42,3.53,9.42,3.50,-3.49,-3.60,-4.74,5.93,5.93,5.89
30.68,9.37,3.29,9.37,3.30,-3.32,-3.54,-4.75,6.05,6.05,6.07
30.99,9.32,3.07,9.32,3.11,-3.16,-3.49,-4.75,6.16,6.16,6.25
31.30,9.28,2.96,9.28,2.95,-3.01,-3.43,-4.74,6.27,6.27,6.32
31.61,9.25,2.86,9.25,2.85,-2.87,-3.38,-4.73,6.38,6.38,6.39
31.93,9.22,2.76,9.23,2.77,-2.73,-3.32,-4.70,6.49,6.49,6.46
32.24,9.21,2.68,9.21,2.68,-2.61,-3.26,-4.67,6.60,6.60,6.53
32.57,9.19,2.60,9.19,2.60,-2.53,-3.21,-4.62,6.67,6.67,6.59
32.89,9.18,2.52,9.18,2.50,-2.48,-3.15,-4.58,6.70,6.70,6.66
33.22,9.15,2.41,9.15,2.39,-2.47,-3.10,-4.52,6.68,6.68,6.74
33.55,9.12,2.31,9.11,2.35,-2.49,-3.04,-4.45,6.63,6.62,6.81
33.89,9.07,2.38,9.07,2.42,-2.55,-2.98,-4.38,6.52,6.52,6.68
34.23,9.01,2.60,9.01,2.58,-2.64,-2.92,-4.30,6.37,6.37,6.41
34.57,8.96,2.82,8.96,2.78,-2.75,-2.87,-4.22,6.20,6.21,6.14
34.92,8.90,2.95,8.91,2.95,-2.88,-2.81,-4.13,6.03,6.03,5.95
35.27,8.86,3.05,8.86,3.07,-3.01,-2.75,-4.03,5.86,5.86,5.81
35.62,8.83,3.16,8.83,3.16,-3.12,-2.69,-3.93,5.71,5.71,5.67
35.97,8.80,3.22,8.80,3.22,-3.19,-2.63,-3.83,5.62,5.62,5.58
36.33,8.78,3.24,8.78,3.24,-3.21,-2.57,-3.73,5.57,5.56,5.54
36.70,8.75,3.21,8.75,3.20,-3.19,-2.51,-3.62,5.56,5.56,5.54
37.06,8.71,3.12,8.71,3.13,-3.12,-2.45,-3.51,5.60,5.59,5.59
37.43,8.67,3.01,8.67,3.02,-3.01,-2.39,-3.40,5.66,5.66,5.66
37.81,8.62,2.90,8.62,2.88,-2.87,-2.33,-3.28,5.75,5.75,5.72
38.19,8.57,2.72,8.57,2.73,-2.70,-2.27,-3.17,5.87,5.87,5.85
38.57,8.53,2.53,8.53,2.55,-2.53,-2.21,-3.05,6.00,6.00,5.99
38.95,8.49,2.37,8.49,2.34,-2.36,-2.15,-2.94,6.14,6.14,6.12
39.34,8.47,2.12,8.47,2.12,-2.19,-2.09,-2.83,6.27,6.27,6.34
39.74,8.44,1.92,8.44,1.95,-2.03,-2.03,-2.71,6.41,6.41,6.52
40.14,8.41,1.78,8.41,1.81,-1.85,-1.97,-2.60,6.56,6.56,6.64
40.54,8.38,1.75,8.38,1.72,-1.68,-1.91,-2.48,6.71,6.71,6.64
40.94,8.35,1.63,8.35,1.61,-1.50,-1.85,-2.37,6.84,6.85,6.72
41.35,8.31,1.46,8.31,1.47,-1.35,-1.78,-2.26,6.96,6.96,6.85
41.76,8.27,1.28,8.27,1.26,-1.22,-1.72,-2.15,7.05,7.05,6.99
42.18,8.23,1.05,8.23,1.04,-1.11,-1.66,-2.04,7.12,7.12,7.18
42.60,8.19,0.85,8.19,0.90,-1.02,-1.60,-1.93,7.17,7.17,7.34
43.03,8.14,0.81,8.14,0.86,-0.97,-1.54,-1.82,7.18,7.18,7.34
43.46,8.10,0.94,8.10,0.91,-0.95,-1.47,-1.72,7.14,7.14,7.16
43.90,8.05,1.04,8.05,0.99,-0.99,-1.41,-1.61,7.06,7.06,7.01
44.33,8.00,1.05,8.00,1.05,-1.06,-1.35,-1.51,6.94,6.94,6.95
44.78,7.95,1.08,7.95,1.12,-1.14,-1.29,-1.40,6.81,6.81,6.87
45.23,7.90,1.20,7.90,1.23,-1.23,-1.23,-1.30,6.68,6.68,6.71
45.68,7.86,1.41,7.86,1.36,-1.28,-1.16,-1.20,6.58,6.58,6.45
46.13,7.81,1.45,7.81,1.42,-1.31,-1.10,-1.10,6.50,6.50,6.36
46.60,7.77,1.39,7.77,1.40,-1.31,-1.04,-1.00,6.46,6.46,6.38
47.06,7.73,1.28,7.73,1.29,-1.28,-0.98,-0.91,6.44,6.44,6.45
47.53,7.68,1.17,7.69,1.17,-1.23,-0.92,-0.81,6.45,6.46,6.51
48.01,7.65,1.07,7.65,1.07,-1.14,-0.85,-0.72,6.50,6.50,6.58
48.49,7.61,0.97,7.61,1.00,-1.02,-0.79,-0.62,6.59,6.59,6.64
48.97,7.58,0.94,7.58,0.93,-0.88,-0.73,-0.53,6.69,6.69,6.64
49.46,7.54,0.85,7.54,0.82,-0.74,-0.67,-0.44,6.80,6.80,6.69
49.96,7.50,0.70,7.50,0.67,-0.61,-0.61,-0.35,6.89,6.89,6.80
50.46,7.46,0.44,7.46,0.49,-0.49,-0.55,-0.26,6.97,6.97,7.02
50.96,7.42,0.32,7.42,0.33,-0.39,-0.49,-0.18,7.02,7.02,7.09
51.47,7.37,0.23,7.37,0.22,-0.32,-0.42,-0.09,7.05,7.05,7.14
51.99,7.32,0.18,7.32,0.19,-0.27,-0.36,-0.01,7.05,7.05,7.14
52.51,7.27,0.19,7.27,0.18,-0.25,-0.30,0.08,7.01,7.01,7.07
53.03,7.21,0.21,7.21,0.21,-0.25,-0.24,0.16,6.96,6.96,7.00
53.56,7.16,0.24,7.16,0.26,-0.25,-0.18,0.24,6.91,6.91,6.92
54.10,7.11,0.32,7.11,0.33,-0.23,-0.12,0.31,6.87,6.87,6.79
54.64,7.06,0.37,7.06,0.35,-0.20,-0.06,0.39,6.86,6.86,6.69
55.18,7.01,0.35,7.01,0.28,-0.15,-0.00,0.46,6.86,6.86,6.67
55.74,6.96,0.09,6.96,0.13,-0.08,0.06,0.54,6.88,6.88,6.88
56.29,6.91,-0.08,6.91,-0.06,0.00,0.12,0.61,6.91,6.91,6.99
56.86,6.86,-0.20,6.86,-0.21,0.09,0.18,0.67,6.95,6.95,7.06
57.42,6.82,-0.31,6.82,-0.28,0.17,0.23,0.74,6.99,6.99,7.13
58.00,6.78,-0.31,6.78,-0.31,0.25,0.29,0.80,7.03,7.03,7.08
58.58,6.74,-0.30,6.74,-0.32,0.31,0.35,0.86,7.05,7.05,7.04
59.16,6.70,-0.33,6.70,-0.33,0.37,0.41,0.92,7.07,7.07,7.04
59.76,6.66,-0.38,6.66,-0.37,0.42,0.47,0.98,7.08,7.08,7.04
60.35,6.61,-0.43,6.61,-0.42,0.49,0.52,1.03,7.10,7.10,7.04
60.96,6.55,-0.49,6.55,-0.51,0.59,0.58,1.08,7.14,7.14,7.04
61.57,6.49,-0.62,6.49,-0.64,0.70,0.64,1.12,7.19,7.19,7.11
62.18,6.42,-0.80,6.42,-0.80,0.82,0.69,1.17,7.24,7.24,7.22
62.80,6.36,-0.99,6.36,-0.97,0.93,0.75,1.21,7.29,7.29,7.35
63.43,6.29,-1.12,6.29,-1.12,1.03,0.80,1.25,7.32,7.32,7.41
64.07,6.23,-1.21,6.23,-1.20,1.10,0.86,1.28,7.33,7.33,7.44
64.71,6.18,-1.24,6.18,-1.20,1.14,0.91,1.31,7.31,7.32,7.41
65.35,6.13,-1.14,6.13,-1.17,1.14,0.97,1.34,7.27,7.27,7.27
66.01,6.08,-1.10,6.08,-1.11,1.12,1.02,1.37,7.20,7.20,7.19
66.67,6.04,-1.07,6.04,-1.07,1.08,1.07,1.40,7.12,7.12,7.12
67.33,6.00,-1.04,6.00,-1.04,1.05,1.12,1.42,7.05,7.05,7.04
68.01,5.96,-1.02,5.96,-1.00,1.04,1.18,1.44,7.00,7.00,6.98
68.69,5.91,-1.00,5.91,-0.99,1.08,1.23,1.46,6.98,6.99,6.91
69.37,5.86,-0.98,5.86,-1.04,1.15,1.28,1.48,7.01,7.01,6.84
70.07,5.81,-1.16,5.81,-1.15,1.26,1.33,1.50,7.06,7.06,6.97
70.77,5.76,-1.35,5.76,-1.33,1.37,1.38,1.51,7.13,7.13,7.10
71.48,5.71,-1.52,5.71,-1.54,1.48,1.43,1.53,7.19,7.19,7.23
72.19,5.66,-1.72,5.66,-1.71,1.57,1.48,1.54,7.23,7.23,7.38
72.91,5.61,-1.83,5.61,-1.80,1.66,1.53,1.55,7.26,7.26,7.44
73.64,5.55,-1.85,5.55,-1.80,1.72,1.58,1.57,7.27,7.27,7.40
74.38,5.50,-1.70,5.50,-1.74,1.75,1.62,1.58,7.25,7.25,7.20
75.12,5.44,-1.65,5.44,-1.68,1.75,1.67,1.59,7.19,7.19,7.09
75.87,5.39,-1.65,5.38,-1.66,1.72,1.72,1.60,7.11,7.11,7.04
76.63,5.33,-1.71,5.33,-1.69,1.69,1.76,1.62,7.02,7.02,7.04
77.40,5.27,-1.71,5.27,-1.70,1.67,1.81,1.63,6.94,6.94,6.98
78.17,5.21,-1.70,5.21,-1.70,1.68,1.85,1.64,6.89,6.89,6.91
78.95,5.16,-1.69,5.16,-1.70,1.73,1.90,1.66,6.89,6.89,6.85
79.74,5.10,-1.73,5.10,-1.73,1.82,1.94,1.67,6.92,6.93,6.84
80.54,5.06,-1.81,5.06,-1.81,1.93,1.98,1.69,6.98,6.98,6.87
81.35,5.01,-1.92,5.01,-1.94,2.03,2.02,1.71,7.04,7.04,6.93
82.16,4.96,-2.11,4.96,-2.10,2.12,2.06,1.73,7.07,7.07,7.06
82.98,4.90,-2.26,4.90,-2.28,2.17,2.10,1.75,7.08,7.08,7.17
83.81,4.85,-2.39,4.84,-2.40,2.20,2.14,1.77,7.04,7.04,7.24
84.65,4.78,-2.46,4.78,-2.38,2.19,2.18,1.79,6.97,6.97,7.24
85.50,4.71,-2.28,4.71,-2.24,2.15,2.22,1.82,6.86,6.86,6.99
86.35,4.64,-1.96,4.64,-2.04,2.09,2.26,1.84,6.72,6.73,6.60
87.22,4.57,-1.83,4.57,-1.87,2.01,2.29,1.87,6.58,6.58,6.40
88.09,4.52,-1.82,4.52,-1.80,1.93,2.33,1.90,6.45,6.45,6.34
88.97,4.48,-1.84,4.48,-1.80,1.87,2.36,1.93,6.34,6.34,6.32
89.86,4.44,-1.81,4.44,-1.82,1.83,2.39,1.96,6.27,6.27,6.25
90.76,4.40,-1.84,4.40,-1.85,1.84,2.42,1.99,6.24,6.24,6.24
91.66,4.35,-1.91,4.35,-1.92,1.89,2.46,2.03,6.24,6.24,6.26
92.58,4.29,-2.04,4.29,-2.02,1.98,2.48,2.06,6.27,6.26,6.33
93.51,4.21,-2.12,4.21,-2.10,2.09,2.51,2.10,6.30,6.30,6.34
94.44,4.12,-2.19,4.12,-2.18,2.22,2.54,2.14,6.33,6.34,6.31
95.39,4.00,-2.24,4.00,-2.28,2.37,2.56,2.18,6.37,6.36,6.24
96.34,3.86,-2.44,3.86,-2.45,2.53,2.59,2.22,6.39,6.38,6.30
97.30,3.70,-2.67,3.70,-2.66,2.69,2.61,2.26,6.39,6.38,6.37
98.28,3.54,-2.90,3.54,-2.88,2.84,2.63,2.31,6.37,6.37,6.44
99.26,3.40,-3.03,3.41,-3.04,2.97,2.64,2.35,6.37,6.38,6.44
100.25,3.33,-3.16,3.34,-3.15,3.08,2.66,2.40,6.40,6.42,6.48
101.25,3.33,-3.22,3.34,-3.21,3.16,2.67,2.45,6.49,6.49,6.55
102.27,3.38,-3.22,3.38,-3.22,3.20,2.68,2.49,6.59,6.58,6.60
103.29,3.44,-3.19,3.44,-3.19,3.20,2.69,2.54,6.64,6.64,6.64
104.32,3.49,-3.13,3.48,-3.14,3.15,2.69,2.59,6.64,6.64,6.62
105.37,3.50,-3.07,3.50,-3.07,3.07,2.70,2.64,6.57,6.57,6.57
106.42,3.48,-3.01,3.48,-3.03,2.98,2.70,2.69,6.46,6.46,6.49
107.48,3.44,-2.95,3.43,-2.95,2.89,2.71,2.74,6.33,6.32,6.39
108.56,3.37,-2.91,3.37,-2.81,2.82,2.71,2.78,6.19,6.19,6.28
109.64,3.29,-2.63,3.29,-2.68,2.78,2.72,2.83,6.06,6.06,5.91
110.74,3.20,-2.54,3.20,-2.61,2.75,2.73,2.88,5.95,5.95,5.74
111.85,3.12,-2.62,3.12,-2.63,2.74,2.74,2.92,5.86,5.86,5.74
112.97,3.04,-2.79,3.04,-2.75,2.74,2.76,2.96,5.79,5.79,5.83
114.10,2.98,-2.86,2.98,-2.85,2.76,2.79,3.00,5.73,5.74,5.84
115.24,2.92,-2.90,2.92,-2.90,2.79,2.81,3.04,5.71,5.71,5.82
116.39,2.87,-2.89,2.87,-2.89,2.82,2.83,3.08,5.70,5.70,5.77
117.55,2.83,-2.85,2.83,-2.85,2.85,2.86,3.11,5.68,5.68,5.68
118.73,2.78,-2.82,2.78,-2.83,2.85,2.88,3.15,5.63,5.63,5.60
119.92,2.73,-2.81,2.73,-2.83,2.84,2.90,3.17,5.58,5.58,5.54
121.12,2.68,-2.86,2.68,-2.85,2.84,2.91,3.20,5.52,5.52,5.54
122.33,2.63,-2.89,2.62,-2.86,2.87,2.93,3.22,5.49,5.49,5.52
123.55,2.57,-2.89,2.57,-2.87,2.93,2.94,3.24,5.50,5.50,5.46
124.79,2.52,-2.84,2.52,-2.89,3.01,2.94,3.26,5.53,5.53,5.36
126.03,2.48,-2.96,2.48,-2.98,3.10,2.95,3.27,5.58,5.58,5.44
127.29,2.44,-3.14,2.44,-3.15,3.18,2.95,3.28,5.62,5.62,5.58
128.57,2.41,-3.36,2.41,-3.35,3.23,2.95,3.28,5.64,5.64,5.77
129.85,2.38,-3.46,2.38,-3.43,3.25,2.94,3.29,5.63,5.63,5.84
131.15,2.35,-3.45,2.36,-3.39,3.24,2.94,3.29,5.59,5.60,5.81
132.46,2.35,-3.20,2.35,-3.26,3.18,2.93,3.28,5.52,5.53,5.54
133.79,2.35,-3.05,2.34,-3.09,3.08,2.92,3.28,5.43,5.43,5.40
135.12,2.34,-2.97,2.34,-2.92,2.96,2.91,3.27,5.31,5.30,5.32
136.48,2.34,-2.78,2.34,-2.78,2.84,2.90,3.26,5.17,5.17,5.12
137.84,2.32,-2.63,2.32,-2.65,2.73,2.89,3.24,5.06,5.05,4.95
139.22,2.29,-2.54,2.29,-2.56,2.68,2.87,3.23,4.97,4.97,4.84
140.61,2.26,-2.57,2.26,-2.55,2.67,2.86,3.21,4.93,4.93,4.84
142.02,2.22,-2.61,2.22,-2.62,2.69,2.85,3.20,4.91,4.91,4.84
143.44,2.18,-2.70,2.18,-2.74,2.72,2.84,3.18,4.90,4.90,4.88
144.87,2.13,-2.89,2.13,-2.86,2.75,2.83,3.16,4.88,4.88,5.02
146.32,2.08,-2.96,2.08,-2.93,2.77,2.83,3.14,4.85,4.85,5.04
147.78,2.03,-2.93,2.03,-2.92,2.78,2.82,3.13,4.81,4.81,4.96
149.26,1.98,-2.83,1.98,-2.84,2.79,2.82,3.11,4.77,4.77,4.81
150.75,1.92,-2.74,1.92,-2.74,2.80,2.83,3.09,4.72,4.72,4.66
152.26,1.86,-2.69,1.86,-2.68,2.81,2.83,3.07,4.67,4.67,4.55
153.78,1.80,-2.65,1.80,-2.68,2.83,2.84,3.06,4.63,4.63,4.45
155.32,1.74,-2.76,1.75,-2.77,2.87,2.86,3.04,4.61,4.62,4.50
156.88,1.69,-2.93,1.69,-2.93,2.93,2.87,3.03,4.63,4.63,4.62
158.44,1.65,-3.11,1.65,-3.09,3.02,2.90,3.02,4.67,4.67,4.76
160.03,1.61,-3.23,1.61,-3.21,3.13,2.92,3.01,4.73,4.73,4.84
161.63,1.57,-3.27,1.57,-3.28,3.23,2.95,3.00,4.79,4.79,4.84
163.24,1.52,-3.31,1.52,-3.32,3.31,2.98,2.99,4.83,4.83,4.84
164.88,1.48,-3.35,1.48,-3.36,3.37,3.01,2.99,4.85,4.85,4.84
166.53,1.44,-3.40,1.44,-3.40,3.39,3.04,2.98,4.83,4.83,4.84
168.19,1.39,-3.43,1.39,-3.41,3.40,3.08,2.98,4.79,4.79,4.83
169.87,1.35,-3.40,1.35,-3.40,3.39,3.11,2.98,4.74,4.74,4.74
171.57,1.30,-3.36,1.30,-3.38,3.38,3.15,2.99,4.67,4.67,4.66
173.29,1.24,-3.35,1.24,-3.35,3.36,3.19,2.99,4.60,4.60,4.59
175.02,1.19,-3.34,1.19,-3.33,3.34,3.22,3.00,4.53,4.53,4.54
176.77,1.14,-3.31,1.14,-3.31,3.32,3.26,3.01,4.46,4.46,4.45
178.54,1.09,-3.29,1.09,-3.30,3.30,3.29,3.03,4.39,4.39,4.39
180.32,1.04,-3.29,1.04,-3.30,3.30,3.32,3.04,4.35,4.35,4.34
182.13,1.00,-3.34,1.00,-3.31,3.33,3.35,3.06,4.33,4.33,4.34
183.95,0.96,-3.33,0.96,-3.33,3.36,3.38,3.08,4.33,4.33,4.29
185.79,0.93,-3.33,0.93,-3.36,3.41,3.41,3.10,4.34,4.34,4.26
187.65,0.90,-3.43,0.90,-3.42,3.46,3.44,3.13,4.36,4.36,4.33
189.52,0.87,-3.52,0.87,-3.52,3.51,3.46,3.15,4.38,4.38,4.39
191.42,0.84,-3.61,0.84,-3.61,3.55,3.49,3.18,4.39,4.39,4.45
193.33,0.82,-3.69,0.83,-3.66,3.57,3.51,3.21,4.40,4.40,4.51
195.27,0.81,-3.66,0.82,-3.65,3.59,3.53,3.25,4.40,4.41,4.47
197.22,0.81,-3.59,0.81,-3.61,3.59,3.55,3.28,4.40,4.40,4.40
199.19,0.79,-3.54,0.78,-3.55,3.59,3.57,3.32,4.38,4.37,4.33
201.18,0.74,-3.53,0.74,-3.53,3.58,3.58,3.35,4.32,4.32,4.26
203.19,0.67,-3.52,0.67,-3.52,3.57,3.60,3.39,4.24,4.24,4.20
205.23,0.59,-3.54,0.59,-3.53,3.56,3.61,3.43,4.15,4.16,4.13
207.28,0.52,-3.54,0.52,-3.56,3.56,3.62,3.47,4.08,4.08,4.06
209.35,0.45,-3.59,0.45,-3.59,3.57,3.63,3.51,4.02,4.02,4.04
211.44,0.39,-3.63,0.39,-3.61,3.58,3.64,3.55,3.97,3.97,4.02
213.56,0.34,-3.61,0.34,-3.62,3.58,3.65,3.59,3.92,3.92,3.95
215.69,0.29,-3.59,0.29,-3.60,3.58,3.65,3.64,3.86,3.86,3.88
217.85,0.24,-3.57,0.24,-3.57,3.56,3.66,3.68,3.80,3.80,3.81
220.03,0.20,-3.54,0.20,-3.54,3.54,3.66,3.71,3.74,3.74,3.74
222.23,0.17,-3.51,0.17,-3.51,3.52,3.66,3.75,3.69,3.69,3.68
224.45,0.13,-3.49,0.13,-3.48,3.50,3.67,3.79,3.63,3.63,3.62
226.70,0.10,-3.44,0.10,-3.47,3.48,3.67,3.82,3.58,3.58,3.55
228.96,0.07,-3.47,0.07,-3.46,3.46,3.67,3.85,3.53,3.53,3.54
231.25,0.04,-3.47,0.03,-3.46,3.46,3.67,3.88,3.49,3.49,3.51
233.57,-0.00,-3.45,-0.00,-3.47,3.45,3.66,3.91,3.45,3.45,3.45
235.90,-0.04,-3.48,-0.04,-3.46,3.46,3.66,3.93,3.42,3.42,3.44
238.26,-0.08,-3.48,-0.08,-3.46,3.47,3.66,3.95,3.39,3.39,3.39
240.64,-0.12,-3.46,-0.12,-3.47,3.49,3.65,3.96,3.37,3.37,3.34
243.05,-0.15,-3.49,-0.15,-3.49,3.51,3.65,3.97,3.35,3.35,3.34
245.48,-0.19,-3.53,-0.19,-3.52,3.52,3.64,3.98,3.33,3.33,3.34
247.93,-0.22,-3.56,-0.22,-3.56,3.54,3.63,3.98,3.31,3.31,3.34
250.41,-0.26,-3.60,-0.26,-3.58,3.56,3.63,3.98,3.30,3.30,3.34
252.92,-0.30,-3.59,-0.30,-3.59,3.58,3.62,3.97,3.28,3.28,3.29
255.45,-0.34,-3.58,-0.34,-3.59,3.61,3.61,3.96,3.27,3.27,3.24
258.00,-0.38,-3.62,-0.38,-3.58,3.63,3.60,3.94,3.25,3.25,3.24
260.58,-0.42,-3.59,-0.42,-3.61,3.64,3.59,3.92,3.23,3.23,3.17
263.19,-0.45,-3.62,-0.45,-3.65,3.64,3.58,3.90,3.19,3.19,3.17
265.82,-0.49,-3.72,-0.49,-3.68,3.62,3.57,3.87,3.14,3.14,3.23
268.48,-0.52,-3.70,-0.52,-3.69,3.61,3.55,3.83,3.09,3.09,3.17
271.16,-0.56,-3.64,-0.56,-3.63,3.59,3.54,3.80,3.03,3.03,3.08
273.87,-0.59,-3.54,-0.59,-3.53,3.57,3.53,3.76,2.97,2.97,2.94
276.61,-0.63,-3.43,-0.63,-3.47,3.54,3.51,3.72,2.91,2.91,2.81
279.38,-0.66,-3.43,-0.66,-3.46,3.51,3.50,3.67,2.85,2.85,2.77
282.17,-0.69,-3.53,-0.69,-3.47,3.48,3.48,3.63,2.79,2.79,2.83
284.99,-0.73,-3.49,-0.73,-3.48,3.47,3.47,3.58,2.74,2.74,2.76
287.84,-0.76,-3.45,-0.76,-3.46,3.46,3.45,3.53,2.70,2.70,2.69
290.72,-0.78,-3.42,-0.78,-3.44,3.45,3.43,3.48,2.67,2.67,2.64
293.63,-0.80,-3.44,-0.80,-3.44,3.43,3.42,3.43,2.63,2.63,2.64
296.57,-0.82,-3.45,-0.82,-3.45,3.41,3.40,3.38,2.59,2.59,2.64
299.53,-0.83,-3.43,-0.83,-3.42,3.37,3.38,3.33,2.54,2.54,2.61
302.53,-0.83,-3.38,-0.83,-3.35,3.33,3.36,3.28,2.49,2.49,2.55
305.55,-0.84,-3.25,-0.84,-3.28,3.28,3.34,3.23,2.44,2.44,2.41
308.61,-0.85,-3.19,-0.85,-3.21,3.25,3.32,3.18,2.40,2.40,2.34
311.69,-0.86,-3.20,-0.86,-3.16,3.22,3.31,3.13,2.36,2.36,2.34
314.81,-0.87,-3.14,-0.87,-3.14,3.19,3.28,3.08,2.32,2.32,2.27
317.96,-0.89,-3.12,-0.89,-3.14,3.17,3.26,3.03,2.28,2.28,2.24
321.14,-0.90,-3.14,-0.90,-3.14,3.14,3.24,2.99,2.24,2.24,2.24
324.35,-0.92,-3.16,-0.92,-3.17,3.11,3.22,2.95,2.19,2.19,2.24
327.59,-0.94,-3.18,-0.94,-3.16,3.07,3.20,2.90,2.13,2.13,2.24
330.87,-0.96,-3.15,-0.96,-3.10,3.03,3.18,2.86,2.07,2.07,2.18
334.18,-0.98,-2.97,-0.98,-3.01,2.99,3.16,2.82,2.00,2.00,1.99
337.52,-1.01,-2.89,-1.01,-2.91,2.95,3.13,2.79,1.94,1.94,1.89
340.90,-1.03,-2.85,-1.03,-2.83,2.92,3.11,2.75,1.88,1.89,1.82
344.30,-1.06,-2.81,-1.06,-2.81,2.90,3.09,2.72,1.84,1.84,1.75
347.75,-1.08,-2.82,-1.08,-2.83,2.89,3.06,2.69,1.81,1.81,1.74
351.23,-1.10,-2.87,-1.11,-2.88,2.89,3.04,2.66,1.78,1.78,1.76
354.74,-1.13,-2.96,-1.13,-2.94,2.90,3.01,2.63,1.76,1.76,1.83
358.28,-1.16,-3.00,-1.16,-2.98,2.91,2.99,2.61,1.75,1.75,1.84
361.87,-1.18,-2.98,-1.18,-2.98,2.92,2.97,2.59,1.74,1.74,1.80
365.49,-1.21,-2.94,-1.21,-2.95,2.93,2.94,2.57,1.72,1.72,1.73
369.14,-1.23,-2.90,-1.23,-2.90,2.92,2.91,2.55,1.68,1.68,1.67
372.83,-1.26,-2.86,-1.26,-2.86,2.89,2.89,2.53,1.64,1.64,1.60
376.56,-1.28,-2.82,-1.28,-2.84,2.86,2.86,2.52,1.58,1.58,1.54
380.33,-1.30,-2.84,-1.30,-2.83,2.83,2.84,2.50,1.52,1.52,1.54
384.13,-1.33,-2.82,-1.33,-2.80,2.79,2.81,2.49,1.46,1.46,1.49
387.97,-1.35,-2.77,-1.35,-2.78,2.76,2.78,2.48,1.41,1.41,1.42
391.85,-1.37,-2.73,-1.37,-2.75,2.74,2.76,2.48,1.37,1.37,1.36
395.77,-1.39,-2.73,-1.39,-2.72,2.73,2.73,2.47,1.34,1.34,1.34
399.73,-1.41,-2.72,-1.41,-2.70,2.73,2.70,2.46,1.32,1.32,1.31
403.72,-1.43,-2.67,-1.43,-2.69,2.72,2.67,2.46,1.29,1.29,1.24
407.76,-1.44,-2.68,-1.44,-2.68,2.70,2.65,2.46,1.26,1.26,1.24
411.84,-1.46,-2.70,-1.46,-2.70,2.68,2.62,2.46,1.22,1.22,1.24
415.96,-1.47,-2.71,-1.47,-2.72,2.66,2.59,2.46,1.19,1.19,1.24
420.12,-1.49,-2.72,-1.49,-2.70,2.64,2.56,2.46,1.16,1.16,1.24
424.32,-1.50,-2.66,-1.50,-2.64,2.62,2.53,2.46,1.12,1.12,1.16
428.56,-1.51,-2.54,-1.51,-2.56,2.59,2.51,2.46,1.08,1.08,1.03
432.85,-1.52,-2.48,-1.52,-2.49,2.55,2.48,2.46,1.03,1.03,0.96
437.18,-1.54,-2.47,-1.54,-2.48,2.51,2.45,2.46,0.97,0.97,0.94
441.55,-1.55,-2.49,-1.55,-2.49,2.47,2.42,2.46,0.92,0.92,0.94
445.96,-1.57,-2.51,-1.57,-2.47,2.44,2.39,2.46,0.87,0.87,0.94
450.42,-1.59,-2.43,-1.59,-2.42,2.42,2.36,2.46,0.83,0.83,0.84
454.93,-1.60,-2.34,-1.60,-2.38,2.40,2.33,2.46,0.80,0.80,0.74
459.48,-1.62,-2.35,-1.62,-2.36,2.38,2.30,2.45,0.76,0.76,0.74
464.07,-1.63,-2.37,-1.63,-2.35,2.34,2.27,2.45,0.71,0.71,0.74
468.71,-1.64,-2.35,-1.64,-2.34,2.30,2.24,2.44,0.66,0.66,0.71
473.40,-1.65,-2.30,-1.65,-2.30,2.26,2.21,2.44,0.61,0.61,0.65
478.13,-1.66,-2.23,-1.65,-2.23,2.22,2.18,2.43,0.57,0.57,0.58
482.91,-1.66,-2.17,-1.66,-2.16,2.20,2.15,2.42,0.54,0.54,0.51
487.74,-1.66,-2.10,-1.66,-2.12,2.18,2.12,2.40,0.52,0.52,0.44
492.62,-1.67,-2.10,-1.67,-2.10,2.15,2.09,2.39,0.49,0.49,0.44
497.55,-1.67,-2.11,-1.68,-2.11,2.12,2.06,2.37,0.45,0.45,0.44
502.52,-1.69,-2.12,-1.69,-2.13,2.09,2.03,2.35,0.40,0.40,0.44
507.55,-1.70,-2.14,-1.70,-2.13,2.06,2.00,2.32,0.36,0.36,0.44
512.62,-1.71,-2.10,-1.71,-2.09,2.03,1.97,2.30,0.32,0.32,0.39
517.75,-1.72,-2.04,-1.72,-2.01,2.00,1.94,2.27,0.28,0.28,0.32
522.93,-1.73,-1.90,-1.73,-1.94,1.97,1.91,2.24,0.24,0.24,0.17
528.16,-1.74,-1.87,-1.74,-1.88,1.94,1.88,2.20,0.21,0.21,0.14
533.44,-1.74,-1.87,-1.74,-1.86,1.92,1.84,2.17,0.18,0.18,0.14
538.77,-1.74,-1.87,-1.74,-1.87,1.89,1.81,2.13,0.16,0.16,0.14
544.16,-1.74,-1.87,-1.74,-1.88,1.87,1.78,2.09,0.13,0.13,0.14
549.60,-1.74,-1.88,-1.74,-1.88,1.85,1.75,2.05,0.11,0.10,0.14
