frequency,raw,error,smoothed,error_smoothed,equalization,parametric_eq,fixed_band_eq,equalized_raw,equalized_smoothed,target
20.00,3.57,-4.94,3.57,-4.94,4.95,4.52,1.81,8.52,8.52,8.51
20.20,3.62,-4.89,3.62,-4.90,4.91,4.56,1.86,8.53,8.52,8.51
20.40,3.66,-4.85,3.66,-4.86,4.86,4.61,1.92,8.53,8.52,8.51
20.61,3.70,-4.82,3.69,-4.82,4.82,4.64,1.97,8.52,8.51,8.51
20.81,3.72,-4.79,3.72,-4.79,4.78,4.67,2.03,8.50,8.50,8.51
21.02,3.75,-4.76,3.75,-4.76,4.73,4.69,2.09,8.48,8.48,8.50
21.23,3.78,-4.72,3.78,-4.72,4.69,4.71,2.15,8.47,8.47,8.50
21.44,3.82,-4.67,3.82,-4.67,4.65,4.72,2.21,8.47,8.47,8.49
21.66,3.88,-4.61,3.88,-4.61,4.59,4.73,2.28,8.47,8.47,8.49
21.87,3.94,-4.55,3.94,-4.55,4.54,4.73,2.34,8.47,8.47,8.48
22.09,4.00,-4.49,4.00,-4.49,4.49,4.73,2.41,8.48,8.49,8.48
22.31,4.06,-4.43,4.05,-4.43,4.45,4.73,2.48,8.51,8.50,8.49
22.54,4.10,-4.39,4.10,-4.39,4.43,4.72,2.55,8.53,8.52,8.49
22.76,4.12,-4.38,4.11,-4.38,4.43,4.70,2.63,8.54,8.54,8.50
22.99,4.11,-4.40,4.10,-4.40,4.44,4.68,2.70,8.55,8.55,8.50
23.22,4.06,-4.44,4.06,-4.44,4.48,4.66,2.78,8.54,8.54,8.51
23.45,4.01,-4.51,4.01,-4.51,4.51,4.63,2.86,8.53,8.53,8.52
23.69,3.96,-4.57,3.95,-4.57,4.55,4.60,2.94,8.50,8.50,8.52
23.92,3.91,-4.62,3.92,-4.61,4.57,4.57,3.02,8.48,8.48,8.53
24.16,3.90,-4.63,3.91,-4.63,4.56,4.53,3.11,8.47,8.47,8.53
24.40,3.94,-4.60,3.94,-4.60,4.53,4.49,3.19,8.47,8.47,8.54
24.65,4.01,-4.53,4.01,-4.53,4.48,4.45,3.28,8.49,8.49,8.54
24.89,4.11,-4.43,4.11,-4.43,4.41,4.41,3.37,8.52,8.52,8.54
25.14,4.22,-4.31,4.22,-4.31,4.33,4.37,3.45,8.55,8.55,8.54
25.39,4.33,-4.20,4.33,-4.21,4.25,4.33,3.54,8.59,8.58,8.53
25.65,4.40,-4.13,4.40,-4.13,4.19,4.28,3.63,8.59,8.59,8.53
25.91,4.45,-4.09,4.44,-4.09,4.15,4.24,3.72,8.59,8.59,8.53
26.16,4.45,-4.08,4.45,-4.09,4.13,4.19,3.81,8.58,8.58,8.53
26.43,4.43,-4.11,4.43,-4.11,4.13,4.15,3.90,8.56,8.56,8.54
26.69,4.39,-4.15,4.39,-4.15,4.15,4.11,3.98,8.54,8.54,8.55
26.96,4.35,-4.20,4.35,-4.20,4.17,4.06,4.07,8.52,8.53,8.55
27.23,4.33,-4.23,4.33,-4.23,4.20,4.02,4.15,8.52,8.53,8.56
27.50,4.33,-4.24,4.33,-4.24,4.21,3.97,4.23,8.54,8.54,8.57
27.77,4.35,-4.23,4.34,-4.23,4.21,3.93,4.31,8.56,8.56,8.57
28.05,4.38,-4.20,4.38,-4.20,4.19,3.89,4.39,8.57,8.57,8.58
28.33,4.42,-4.15,4.42,-4.15,4.15,3.85,4.46,8.57,8.57,8.58
28.62,4.48,-4.10,4.48,-4.10,4.09,3.81,4.53,8.56,8.56,8.57
28.90,4.54,-4.03,4.54,-4.03,4.01,3.77,4.59,8.55,8.55,8.57
29.19,4.63,-3.94,4.63,-3.94,3.92,3.73,4.65,8.54,8.54,8.57
29.48,4.72,-3.84,4.72,-3.84,3.82,3.70,4.70,8.54,8.55,8.56
29.78,4.83,-3.73,4.83,-3.73,3.73,3.66,4.75,8.56,8.56,8.56
30.08,4.94,-3.63,4.94,-3.63,3.65,3.63,4.78,8.59,8.59,8.56
30.38,5.03,-3.53,5.03,-3.54,3.58,3.60,4.82,8.62,8.61,8.57
30.68,5.10,-3.47,5.10,-3.48,3.53,3.56,4.84,8.63,8.62,8.57
30.99,5.13,-3.45,5.13,-3.45,3.49,3.53,4.86,8.62,8.62,8.58
31.30,5.13,-3.45,5.13,-3.45,3.46,3.50,4.87,8.60,8.59,8.58
31.61,5.12,-3.46,5.12,-3.46,3.44,3.48,4.88,8.57,8.57,8.58
31.93,5.11,-3.47,5.12,-3.46,3.42,3.45,4.87,8.54,8.54,8.58
32.24,5.13,-3.45,5.14,-3.45,3.40,3.42,4.87,8.53,8.53,8.58
32.57,5.17,-3.41,5.17,-3.41,3.36,3.40,4.85,8.53,8.54,8.58
32.89,5.24,-3.34,5.24,-3.34,3.32,3.37,4.83,8.56,8.56,8.58
33.22,5.31,-3.27,5.31,-3.27,3.28,3.35,4.80,8.58,8.58,8.58
33.55,5.38,-3.20,5.38,-3.20,3.23,3.33,4.76,8.61,8.60,8.58
33.89,5.43,-3.15,5.43,-3.15,3.18,3.31,4.72,8.61,8.61,8.58
34.23,5.46,-3.12,5.46,-3.12,3.15,3.29,4.68,8.61,8.61,8.57
34.57,5.47,-3.11,5.46,-3.11,3.13,3.27,4.63,8.59,8.59,8.57
34.92,5.46,-3.11,5.46,-3.11,3.12,3.25,4.58,8.57,8.58,8.57
35.27,5.45,-3.12,5.45,-3.12,3.12,3.23,4.52,8.56,8.56,8.57
35.62,5.43,-3.14,5.43,-3.14,3.12,3.21,4.46,8.56,8.56,8.57
35.97,5.42,-3.15,5.42,-3.14,3.13,3.20,4.40,8.56,8.56,8.57
36.33,5.42,-3.15,5.42,-3.15,3.14,3.18,4.34,8.56,8.56,8.57
36.70,5.41,-3.15,5.41,-3.15,3.15,3.17,4.27,8.56,8.56,8.56
37.06,5.41,-3.15,5.41,-3.15,3.15,3.15,4.20,8.56,8.56,8.56
37.43,5.41,-3.14,5.41,-3.14,3.14,3.14,4.14,8.55,8.55,8.55
37.81,5.41,-3.14,5.41,-3.14,3.13,3.13,4.07,8.54,8.54,8.55
38.19,5.42,-3.12,5.42,-3.12,3.11,3.12,4.00,8.54,8.54,8.55
38.57,5.44,-3.10,5.44,-3.10,3.09,3.10,3.94,8.54,8.54,8.54
38.95,5.47,-3.08,5.47,-3.08,3.07,3.09,3.87,8.54,8.54,8.54
39.34,5.49,-3.05,5.49,-3.05,3.05,3.08,3.81,8.55,8.55,8.54
39.74,5.52,-3.02,5.51,-3.02,3.03,3.07,3.75,8.55,8.55,8.54
40.14,5.53,-3.00,5.53,-3.00,3.01,3.06,3.68,8.54,8.54,8.53
40.54,5.54,-2.99,5.54,-2.99,3.00,3.05,3.62,8.54,8.54,8.53
40.94,5.54,-2.98,5.55,-2.98,2.98,3.04,3.57,8.52,8.52,8.53
41.35,5.55,-2.97,5.55,-2.97,2.96,3.03,3.51,8.52,8.52,8.52
41.76,5.56,-2.96,5.56,-2.96,2.95,3.03,3.46,8.51,8.51,8.52
42.18,5.57,-2.94,5.57,-2.94,2.94,3.02,3.41,8.51,8.51,8.51
42.60,5.58,-2.92,5.58,-2.92,2.92,3.01,3.36,8.51,8.51,8.51
43.03,5.60,-2.91,5.60,-2.91,2.91,3.00,3.31,8.50,8.50,8.50
43.46,5.60,-2.89,5.60,-2.89,2.89,2.99,3.26,8.50,8.50,8.49
43.90,5.61,-2.87,5.61,-2.88,2.88,2.99,3.22,8.49,8.49,8.49
44.33,5.62,-2.86,5.62,-2.86,2.86,2.98,3.18,8.48,8.48,8.48
44.78,5.62,-2.85,5.62,-2.85,2.85,2.97,3.14,8.47,8.47,8.47
45.23,5.63,-2.84,5.63,-2.84,2.83,2.97,3.11,8.47,8.47,8.47
45.68,5.64,-2.82,5.64,-2.82,2.82,2.96,3.08,8.46,8.46,8.46
46.13,5.65,-2.81,5.65,-2.81,2.81,2.95,3.05,8.46,8.46,8.46
46.60,5.66,-2.79,5.66,-2.79,2.80,2.94,3.02,8.45,8.45,8.45
47.06,5.66,-2.79,5.66,-2.79,2.79,2.94,2.99,8.45,8.45,8.44
47.53,5.66,-2.78,5.66,-2.78,2.78,2.93,2.97,8.44,8.44,8.43
48.01,5.65,-2.78,5.65,-2.78,2.77,2.92,2.95,8.43,8.43,8.43
48.49,5.64,-2.77,5.65,-2.77,2.77,2.91,2.93,8.41,8.41,8.42
48.97,5.64,-2.77,5.64,-2.77,2.76,2.91,2.91,8.40,8.40,8.41
49.46,5.64,-2.76,5.64,-2.76,2.76,2.90,2.90,8.40,8.40,8.40
49.96,5.64,-2.75,5.64,-2.75,2.75,2.89,2.88,8.39,8.39,8.39
50.46,5.64,-2.74,5.64,-2.75,2.75,2.88,2.87,8.39,8.39,8.38
50.96,5.64,-2.74,5.64,-2.74,2.74,2.87,2.86,8.38,8.38,8.38
51.47,5.63,-2.74,5.63,-2.74,2.73,2.85,2.85,8.37,8.37,8.37
51.99,5.63,-2.73,5.63,-2.73,2.73,2.84,2.85,8.35,8.35,8.36
52.51,5.63,-2.72,5.63,-2.72,2.72,2.83,2.84,8.34,8.34,8.35
53.03,5.63,-2.71,5.63,-2.71,2.71,2.81,2.84,8.34,8.34,8.34
53.56,5.63,-2.70,5.63,-2.70,2.70,2.80,2.84,8.33,8.33,8.33
54.10,5.63,-2.69,5.63,-2.69,2.69,2.78,2.83,8.32,8.32,8.32
54.64,5.62,-2.68,5.63,-2.68,2.68,2.76,2.83,8.31,8.31,8.31
55.18,5.62,-2.67,5.62,-2.67,2.67,2.74,2.83,8.30,8.30,8.30
55.74,5.62,-2.67,5.62,-2.67,2.66,2.71,2.83,8.28,8.28,8.28
56.29,5.61,-2.66,5.61,-2.66,2.66,2.69,2.83,8.27,8.27,8.27
56.86,5.61,-2.65,5.61,-2.65,2.65,2.66,2.83,8.26,8.26,8.26
57.42,5.60,-2.64,5.60,-2.64,2.64,2.63,2.83,8.25,8.25,8.24
58.00,5.60,-2.63,5.60,-2.63,2.64,2.59,2.83,8.24,8.23,8.23
58.58,5.59,-2.63,5.59,-2.63,2.63,2.56,2.83,8.22,8.22,8.22
59.16,5.58,-2.63,5.58,-2.63,2.63,2.52,2.83,8.21,8.21,8.21
59.76,5.57,-2.63,5.57,-2.63,2.63,2.48,2.82,8.20,8.20,8.20
60.35,5.56,-2.63,5.56,-2.63,2.62,2.44,2.82,8.18,8.18,8.18
60.96,5.54,-2.62,5.54,-2.62,2.63,2.41,2.82,8.17,8.17,8.17
61.57,5.53,-2.62,5.53,-2.62,2.63,2.38,2.81,8.15,8.15,8.15
62.18,5.51,-2.63,5.51,-2.63,2.63,2.36,2.80,8.14,8.14,8.14
62.80,5.49,-2.63,5.49,-2.63,2.63,2.35,2.80,8.12,8.12,8.12
63.43,5.47,-2.64,5.47,-2.64,2.63,2.35,2.79,8.11,8.11,8.11
64.07,5.45,-2.64,5.45,-2.64,2.64,2.36,2.78,8.09,8.09,8.09
64.71,5.43,-2.64,5.43,-2.64,2.64,2.38,2.77,8.08,8.08,8.08
65.35,5.41,-2.65,5.41,-2.65,2.65,2.40,2.76,8.06,8.06,8.06
66.01,5.39,-2.65,5.39,-2.65,2.65,2.44,2.75,8.05,8.05,8.05
66.67,5.37,-2.66,5.37,-2.66,2.66,2.47,2.74,8.03,8.03,8.03
67.33,5.35,-2.66,5.35,-2.66,2.66,2.51,2.72,8.01,8.01,8.01
68.01,5.33,-2.67,5.33,-2.67,2.66,2.55,2.71,7.99,7.99,7.99
68.69,5.31,-2.67,5.31,-2.67,2.67,2.59,2.69,7.98,7.98,7.98
69.37,5.29,-2.67,5.29,-2.67,2.67,2.62,2.68,7.96,7.96,7.96
70.07,5.27,-2.67,5.27,-2.67,2.67,2.66,2.67,7.94,7.94,7.94
70.77,5.25,-2.68,5.25,-2.68,2.68,2.69,2.65,7.93,7.93,7.93
71.48,5.23,-2.68,5.23,-2.68,2.68,2.72,2.64,7.91,7.91,7.91
72.19,5.21,-2.68,5.21,-2.68,2.68,2.75,2.62,7.89,7.89,7.89
72.91,5.19,-2.68,5.19,-2.68,2.68,2.77,2.61,7.87,7.87,7.87
73.64,5.17,-2.68,5.17,-2.68,2.68,2.79,2.60,7.86,7.86,7.85
74.38,5.15,-2.68,5.15,-2.68,2.68,2.81,2.58,7.84,7.84,7.83
75.12,5.13,-2.68,5.13,-2.68,2.69,2.83,2.57,7.82,7.82,7.81
75.87,5.10,-2.69,5.10,-2.69,2.69,2.84,2.56,7.80,7.80,7.79
76.63,5.07,-2.70,5.07,-2.70,2.70,2.86,2.55,7.77,7.78,7.77
77.40,5.04,-2.71,5.04,-2.71,2.71,2.87,2.54,7.75,7.75,7.75
78.17,5.01,-2.72,5.01,-2.72,2.72,2.89,2.54,7.73,7.73,7.73
78.95,4.97,-2.73,4.97,-2.73,2.73,2.90,2.53,7.70,7.70,7.70
79.74,4.94,-2.74,4.94,-2.74,2.73,2.91,2.53,7.67,7.68,7.68
80.54,4.91,-2.74,4.91,-2.74,2.74,2.92,2.53,7.65,7.65,7.66
81.35,4.89,-2.75,4.89,-2.75,2.74,2.92,2.53,7.63,7.63,7.63
82.16,4.87,-2.75,4.86,-2.75,2.74,2.93,2.53,7.61,7.61,7.61
82.98,4.84,-2.74,4.84,-2.74,2.75,2.94,2.53,7.59,7.59,7.59
83.81,4.82,-2.74,4.82,-2.74,2.75,2.95,2.53,7.57,7.57,7.56
84.65,4.79,-2.74,4.79,-2.74,2.75,2.95,2.54,7.54,7.54,7.53
85.50,4.76,-2.75,4.76,-2.75,2.75,2.96,2.55,7.52,7.52,7.51
86.35,4.73,-2.75,4.73,-2.75,2.75,2.96,2.56,7.49,7.49,7.49
87.22,4.70,-2.76,4.70,-2.76,2.76,2.97,2.57,7.46,7.46,7.46
88.09,4.67,-2.77,4.67,-2.77,2.76,2.97,2.59,7.43,7.43,7.43
88.97,4.64,-2.77,4.64,-2.77,2.76,2.98,2.60,7.40,7.40,7.41
89.86,4.61,-2.77,4.61,-2.77,2.77,2.98,2.62,7.38,7.38,7.38
90.76,4.58,-2.77,4.58,-2.77,2.77,2.99,2.64,7.35,7.35,7.35
91.66,4.54,-2.77,4.54,-2.77,2.78,2.99,2.66,7.32,7.32,7.32
92.58,4.50,-2.78,4.50,-2.78,2.79,2.99,2.69,7.29,7.29,7.29
93.51,4.45,-2.80,4.45,-2.80,2.80,3.00,2.71,7.26,7.26,7.25
94.44,4.40,-2.82,4.40,-2.82,2.83,3.00,2.74,7.23,7.23,7.22
95.39,4.34,-2.85,4.35,-2.85,2.86,3.01,2.77,7.20,7.21,7.19
96.34,4.29,-2.88,4.29,-2.88,2.90,3.01,2.80,7.19,7.19,7.17
97.30,4.23,-2.92,4.23,-2.92,2.94,3.01,2.83,7.17,7.17,7.15
98.28,4.17,-2.96,4.16,-2.97,2.97,3.01,2.86,7.14,7.14,7.13
99.26,4.09,-3.01,4.09,-3.02,3.00,3.02,2.90,7.10,7.10,7.11
100.25,4.03,-3.06,4.03,-3.06,3.02,3.02,2.94,7.05,7.06,7.09
101.25,3.99,-3.08,4.00,-3.07,3.03,3.02,2.97,7.02,7.03,7.07
102.27,3.98,-3.06,3.98,-3.06,3.04,3.02,3.01,7.02,7.02,7.05
103.29,3.99,-3.03,3.99,-3.03,3.03,3.03,3.05,7.02,7.02,7.02
104.32,4.00,-2.99,3.99,-3.00,3.02,3.03,3.09,7.01,7.01,6.99
105.37,3.98,-2.98,3.98,-2.98,3.00,3.03,3.13,6.99,6.99,6.96
106.42,3.96,-2.97,3.96,-2.97,2.99,3.03,3.17,6.95,6.95,6.93
107.48,3.93,-2.96,3.92,-2.96,2.98,3.04,3.21,6.90,6.90,6.89
108.56,3.89,-2.97,3.89,-2.97,2.97,3.04,3.24,6.85,6.85,6.85
109.64,3.85,-2.97,3.85,-2.97,2.96,3.04,3.28,6.81,6.81,6.82
110.74,3.81,-2.97,3.82,-2.97,2.96,3.04,3.32,6.77,6.77,6.79
111.85,3.79,-2.97,3.79,-2.97,2.96,3.04,3.36,6.75,6.75,6.75
112.97,3.77,-2.96,3.77,-2.96,2.96,3.05,3.39,6.72,6.72,6.72
114.10,3.75,-2.95,3.75,-2.95,2.95,3.05,3.42,6.70,6.70,6.69
115.24,3.72,-2.94,3.72,-2.94,2.95,3.05,3.45,6.67,6.67,6.67
116.39,3.69,-2.94,3.69,-2.94,2.94,3.05,3.48,6.64,6.64,6.64
117.55,3.67,-2.94,3.66,-2.94,2.94,3.05,3.51,6.60,6.60,6.60
118.73,3.63,-2.94,3.63,-2.94,2.93,3.06,3.53,6.57,6.57,6.57
119.92,3.60,-2.94,3.60,-2.94,2.93,3.06,3.55,6.53,6.54,6.54
121.12,3.57,-2.93,3.57,-2.93,2.93,3.06,3.57,6.51,6.51,6.51
122.33,3.54,-2.94,3.54,-2.94,2.94,3.06,3.58,6.48,6.48,6.48
123.55,3.51,-2.95,3.50,-2.95,2.95,3.06,3.59,6.46,6.46,6.45
124.79,3.47,-2.96,3.46,-2.96,2.97,3.06,3.59,6.43,6.43,6.42
126.03,3.42,-2.98,3.42,-2.98,2.99,3.06,3.60,6.41,6.41,6.40
127.29,3.37,-3.01,3.37,-3.01,3.02,3.07,3.59,6.39,6.39,6.39
128.57,3.33,-3.05,3.33,-3.05,3.05,3.07,3.59,6.37,6.37,6.37
129.85,3.27,-3.09,3.28,-3.09,3.08,3.07,3.58,6.36,6.36,6.36
131.15,3.22,-3.13,3.22,-3.13,3.12,3.07,3.57,6.35,6.35,6.36
132.46,3.17,-3.17,3.17,-3.17,3.16,3.07,3.56,6.34,6.34,6.34
133.79,3.12,-3.20,3.12,-3.20,3.20,3.07,3.54,6.32,6.32,6.33
135.12,3.07,-3.24,3.07,-3.24,3.24,3.08,3.52,6.31,6.31,6.30
136.48,3.00,-3.27,3.00,-3.28,3.28,3.08,3.50,6.28,6.28,6.28
137.84,2.93,-3.32,2.93,-3.32,3.32,3.08,3.47,6.25,6.25,6.25
139.22,2.85,-3.36,2.85,-3.36,3.36,3.08,3.45,6.21,6.21,6.21
140.61,2.77,-3.40,2.77,-3.40,3.40,3.08,3.42,6.17,6.17,6.17
142.02,2.70,-3.43,2.70,-3.43,3.44,3.08,3.39,6.14,6.14,6.13
143.44,2.63,-3.46,2.63,-3.46,3.48,3.08,3.36,6.11,6.11,6.09
144.87,2.56,-3.48,2.56,-3.49,3.51,3.09,3.33,6.07,6.07,6.05
146.32,2.48,-3.52,2.48,-3.53,3.53,3.09,3.30,6.01,6.01,6.01
147.78,2.41,-3.56,2.41,-3.55,3.54,3.09,3.27,5.95,5.95,5.97
149.26,2.36,-3.56,2.36,-3.56,3.52,3.09,3.24,5.88,5.89,5.92
150.75,2.35,-3.54,2.35,-3.53,3.49,3.09,3.21,5.83,5.83,5.88
152.26,2.36,-3.48,2.37,-3.47,3.43,3.09,3.18,5.79,5.80,5.84
153.78,2.41,-3.38,2.41,-3.38,3.37,3.09,3.15,5.78,5.78,5.79
155.32,2.47,-3.28,2.47,-3.28,3.29,3.09,3.12,5.76,5.76,5.75
156.88,2.53,-3.18,2.53,-3.18,3.21,3.10,3.10,5.75,5.74,5.71
158.44,2.57,-3.10,2.57,-3.10,3.14,3.10,3.07,5.71,5.71,5.67
160.03,2.59,-3.04,2.59,-3.05,3.08,3.10,3.05,5.68,5.67,5.64
161.63,2.58,-3.02,2.58,-3.02,3.04,3.10,3.03,5.62,5.62,5.60
163.24,2.56,-3.01,2.56,-3.01,3.02,3.10,3.01,5.58,5.58,5.57
164.88,2.53,-3.01,2.53,-3.01,3.01,3.10,2.99,5.54,5.54,5.54
166.53,2.49,-3.03,2.49,-3.03,3.02,3.10,2.97,5.51,5.51,5.52
168.19,2.45,-3.05,2.45,-3.05,3.04,3.10,2.96,5.49,5.49,5.49
169.87,2.40,-3.07,2.40,-3.07,3.06,3.11,2.94,5.47,5.47,5.47
171.57,2.36,-3.09,2.36,-3.09,3.09,3.11,2.93,5.45,5.45,5.45
173.29,2.32,-3.11,2.32,-3.11,3.11,3.11,2.93,5.43,5.43,5.43
175.02,2.28,-3.13,2.28,-3.13,3.13,3.11,2.92,5.41,5.41,5.41
176.77,2.24,-3.15,2.23,-3.15,3.15,3.11,2.92,5.39,5.38,5.39
178.54,2.19,-3.17,2.19,-3.17,3.17,3.11,2.92,5.36,5.36,5.36
180.32,2.14,-3.18,2.14,-3.18,3.18,3.11,2.92,5.32,5.32,5.33
182.13,2.10,-3.19,2.10,-3.19,3.19,3.11,2.92,5.29,5.29,5.29
183.95,2.05,-3.19,2.05,-3.19,3.19,3.11,2.92,5.25,5.25,5.25
185.79,2.01,-3.19,2.01,-3.19,3.20,3.12,2.93,5.21,5.21,5.21
187.65,1.97,-3.19,1.97,-3.19,3.19,3.12,2.94,5.16,5.16,5.16
189.52,1.93,-3.19,1.93,-3.19,3.18,3.12,2.95,5.11,5.11,5.12
191.42,1.90,-3.18,1.90,-3.18,3.17,3.12,2.96,5.07,5.07,5.08
193.33,1.87,-3.16,1.87,-3.16,3.15,3.12,2.98,5.02,5.02,5.03
195.27,1.84,-3.14,1.85,-3.14,3.14,3.12,3.00,4.98,4.99,4.99
197.22,1.82,-3.12,1.82,-3.12,3.13,3.12,3.02,4.95,4.95,4.94
199.19,1.80,-3.10,1.79,-3.10,3.12,3.12,3.04,4.92,4.91,4.90
201.18,1.75,-3.10,1.75,-3.10,3.12,3.12,3.06,4.87,4.87,4.85
203.19,1.70,-3.11,1.70,-3.11,3.12,3.12,3.08,4.82,4.82,4.81
205.23,1.64,-3.13,1.64,-3.12,3.12,3.12,3.10,4.76,4.76,4.76
207.28,1.58,-3.14,1.58,-3.14,3.13,3.12,3.13,4.71,4.71,4.72
209.35,1.53,-3.15,1.53,-3.15,3.13,3.12,3.15,4.66,4.66,4.67
211.44,1.48,-3.15,1.48,-3.15,3.14,3.13,3.18,4.62,4.62,4.63
213.56,1.44,-3.15,1.44,-3.15,3.15,3.13,3.21,4.59,4.59,4.59
215.69,1.40,-3.15,1.40,-3.15,3.15,3.13,3.23,4.55,4.55,4.55
217.85,1.36,-3.15,1.36,-3.15,3.15,3.13,3.26,4.51,4.51,4.50
220.03,1.31,-3.15,1.31,-3.15,3.15,3.13,3.28,4.46,4.47,4.46
222.23,1.27,-3.15,1.27,-3.15,3.15,3.13,3.31,4.42,4.42,4.42
224.45,1.23,-3.15,1.23,-3.15,3.15,3.13,3.33,4.38,4.38,4.38
226.70,1.19,-3.15,1.19,-3.15,3.15,3.13,3.35,4.34,4.34,4.34
228.96,1.15,-3.14,1.15,-3.14,3.14,3.13,3.37,4.30,4.30,4.30
231.25,1.12,-3.14,1.12,-3.14,3.14,3.13,3.39,4.25,4.25,4.26
233.57,1.08,-3.13,1.08,-3.13,3.13,3.12,3.41,4.21,4.21,4.21
235.90,1.05,-3.12,1.05,-3.12,3.12,3.12,3.42,4.17,4.17,4.17
238.26,1.02,-3.11,1.02,-3.11,3.11,3.12,3.43,4.13,4.13,4.13
240.64,0.99,-3.10,0.99,-3.10,3.09,3.12,3.44,4.09,4.09,4.09
243.05,0.97,-3.08,0.97,-3.08,3.08,3.12,3.44,4.05,4.05,4.05
245.48,0.95,-3.06,0.95,-3.06,3.06,3.12,3.44,4.01,4.01,4.01
247.93,0.93,-3.04,0.93,-3.04,3.04,3.12,3.44,3.97,3.97,3.97
250.41,0.91,-3.03,0.91,-3.02,3.03,3.12,3.43,3.93,3.93,3.93
252.92,0.88,-3.01,0.88,-3.01,3.02,3.12,3.43,3.90,3.90,3.89
255.45,0.86,-3.00,0.86,-3.00,3.01,3.11,3.41,3.86,3.86,3.85
258.00,0.83,-2.99,0.83,-3.00,3.00,3.11,3.40,3.82,3.82,3.82
260.58,0.79,-2.99,0.79,-2.99,3.00,3.11,3.38,3.79,3.79,3.79
263.19,0.76,-2.99,0.76,-2.99,2.99,3.11,3.36,3.75,3.75,3.75
265.82,0.72,-3.00,0.72,-3.00,2.99,3.11,3.33,3.72,3.72,3.72
268.48,0.68,-3.00,0.68,-3.00,3.00,3.10,3.31,3.68,3.68,3.68
271.16,0.64,-3.00,0.64,-3.00,3.00,3.10,3.28,3.64,3.64,3.65
273.87,0.61,-3.00,0.61,-3.00,3.00,3.10,3.25,3.61,3.61,3.61
276.61,0.57,-3.00,0.57,-3.00,3.00,3.09,3.21,3.57,3.57,3.57
279.38,0.53,-3.00,0.53,-3.00,3.00,3.09,3.18,3.54,3.54,3.53
282.17,0.50,-3.00,0.50,-3.00,3.00,3.09,3.14,3.50,3.50,3.50
284.99,0.46,-3.00,0.46,-3.00,3.00,3.08,3.10,3.46,3.46,3.46
287.84,0.42,-3.00,0.42,-3.00,3.00,3.08,3.06,3.42,3.42,3.42
290.72,0.39,-3.00,0.39,-3.00,3.00,3.07,3.02,3.38,3.38,3.39
293.63,0.35,-3.00,0.35,-3.00,2.99,3.07,2.98,3.35,3.35,3.35
296.57,0.32,-2.99,0.32,-2.99,2.99,3.06,2.94,3.31,3.31,3.31
299.53,0.29,-2.98,0.29,-2.98,2.98,3.06,2.90,3.27,3.27,3.27
302.53,0.25,-2.97,0.25,-2.97,2.97,3.05,2.86,3.23,3.23,3.23
305.55,0.22,-2.97,0.22,-2.96,2.97,3.04,2.82,3.19,3.19,3.19
308.61,0.19,-2.96,0.19,-2.96,2.96,3.04,2.78,3.15,3.15,3.15
311.69,0.16,-2.95,0.16,-2.95,2.95,3.03,2.75,3.11,3.11,3.11
314.81,0.14,-2.94,0.14,-2.94,2.94,3.02,2.71,3.07,3.07,3.07
317.96,0.11,-2.93,0.11,-2.93,2.93,3.02,2.67,3.04,3.04,3.04
321.14,0.08,-2.92,0.08,-2.92,2.92,3.01,2.64,3.00,3.00,3.00
324.35,0.05,-2.91,0.05,-2.91,2.91,3.00,2.60,2.96,2.96,2.96
327.59,0.02,-2.90,0.02,-2.90,2.90,2.99,2.57,2.92,2.92,2.92
330.87,-0.01,-2.89,-0.01,-2.89,2.89,2.98,2.54,2.88,2.88,2.88
334.18,-0.04,-2.89,-0.04,-2.89,2.88,2.97,2.51,2.84,2.84,2.84
337.52,-0.07,-2.88,-0.07,-2.88,2.88,2.96,2.49,2.80,2.80,2.80
340.90,-0.10,-2.87,-0.10,-2.87,2.87,2.95,2.46,2.77,2.77,2.77
344.30,-0.13,-2.86,-0.13,-2.86,2.86,2.94,2.44,2.73,2.73,2.73
347.75,-0.15,-2.85,-0.15,-2.85,2.85,2.93,2.42,2.70,2.70,2.69
351.23,-0.18,-2.84,-0.18,-2.84,2.84,2.92,2.40,2.66,2.66,2.66
354.74,-0.21,-2.83,-0.21,-2.83,2.83,2.91,2.38,2.62,2.62,2.62
358.28,-0.24,-2.82,-0.24,-2.82,2.82,2.89,2.36,2.58,2.58,2.58
361.87,-0.26,-2.81,-0.26,-2.81,2.81,2.88,2.35,2.55,2.55,2.55
365.49,-0.29,-2.80,-0.29,-2.80,2.80,2.87,2.34,2.51,2.51,2.51
369.14,-0.31,-2.79,-0.31,-2.79,2.79,2.85,2.32,2.47,2.47,2.48
372.83,-0.34,-2.78,-0.34,-2.78,2.78,2.84,2.32,2.44,2.44,2.44
376.56,-0.36,-2.77,-0.36,-2.77,2.77,2.83,2.31,2.41,2.40,2.40
380.33,-0.39,-2.76,-0.39,-2.76,2.76,2.81,2.30,2.37,2.37,2.37
384.13,-0.41,-2.74,-0.41,-2.74,2.74,2.80,2.30,2.33,2.33,2.33
387.97,-0.43,-2.73,-0.43,-2.73,2.73,2.78,2.30,2.30,2.30,2.30
391.85,-0.46,-2.72,-0.46,-2.72,2.72,2.77,2.29,2.26,2.26,2.26
395.77,-0.48,-2.71,-0.48,-2.71,2.71,2.75,2.29,2.23,2.23,2.23
399.73,-0.50,-2.70,-0.50,-2.70,2.70,2.73,2.30,2.19,2.19,2.19
403.72,-0.53,-2.69,-0.53,-2.69,2.69,2.72,2.30,2.16,2.16,2.16
407.76,-0.55,-2.67,-0.55,-2.67,2.67,2.70,2.30,2.12,2.12,2.12
411.84,-0.58,-2.66,-0.58,-2.66,2.66,2.68,2.31,2.09,2.09,2.09
415.96,-0.60,-2.65,-0.60,-2.65,2.65,2.66,2.31,2.05,2.05,2.05
420.12,-0.62,-2.64,-0.62,-2.64,2.64,2.64,2.32,2.02,2.02,2.02
424.32,-0.64,-2.62,-0.64,-2.62,2.62,2.62,2.32,1.98,1.98,1.98
428.56,-0.66,-2.61,-0.66,-2.61,2.61,2.61,2.33,1.95,1.95,1.95
432.85,-0.68,-2.60,-0.68,-2.60,2.60,2.59,2.34,1.92,1.92,1.92
437.18,-0.70,-2.58,-0.70,-2.58,2.58,2.57,2.34,1.88,1.88,1.88
441.55,-0.72,-2.57,-0.72,-2.57,2.57,2.55,2.35,1.85,1.85,1.85
445.96,-0.74,-2.56,-0.74,-2.56,2.56,2.53,2.36,1.82,1.82,1.82
450.42,-0.76,-2.55,-0.76,-2.54,2.54,2.50,2.36,1.78,1.78,1.78
454.93,-0.78,-2.53,-0.78,-2.53,2.53,2.48,2.36,1.75,1.75,1.75
459.48,-0.80,-2.52,-0.80,-2.52,2.52,2.46,2.37,1.72,1.72,1.72
464.07,-0.82,-2.50,-0.82,-2.50,2.50,2.44,2.37,1.68,1.68,1.68
468.71,-0.84,-2.49,-0.84,-2.49,2.49,2.42,2.37,1.65,1.65,1.65
473.40,-0.86,-2.48,-0.86,-2.48,2.48,2.40,2.37,1.62,1.62,1.62
478.13,-0.88,-2.46,-0.88,-2.46,2.46,2.37,2.37,1.58,1.58,1.58
482.91,-0.89,-2.44,-0.89,-2.45,2.45,2.35,2.36,1.55,1.55,1.55
487.74,-0.91,-2.43,-0.91,-2.43,2.43,2.33,2.36,1.52,1.52,1.52
492.62,-0.93,-2.41,-0.93,-2.41,2.41,2.31,2.35,1.48,1.48,1.49
497.55,-0.94,-2.40,-0.94,-2.40,2.40,2.28,2.34,1.45,1.45,1.45
502.52,-0.96,-2.38,-0.96,-2.38,2.38,2.26,2.32,1.42,1.42,1.42
507.55,-0.97,-2.36,-0.97,-2.36,2.36,2.24,2.31,1.39,1.39,1.39
512.62,-0.98,-2.34,-0.98,-2.34,2.34,2.21,2.29,1.36,1.36,1.36
517.75,-0.99,-2.32,-0.99,-2.32,2.32,2.19,2.27,1.32,1.32,1.32
522.93,-1.00,-2.30,-1.01,-2.30,2.30,2.16,2.25,1.29,1.29,1.29
528.16,-1.02,-2.28,-1.02,-2.28,2.28,2.14,2.23,1.26,1.26,1.26
533.44,-1.03,-2.26,-1.03,-2.26,2.26,2.12,2.21,1.23,1.23,1.22
538.77,-1.05,-2.24,-1.05,-2.24,2.24,2.09,2.18,1.19,1.19,1.19
544.16,-1.06,-2.22,-1.06,-2.22,2.22,2.07,2.15,1.16,1.16,1.16
549.60,-1.07,-2.20,-1.07,-2.20,2.20,2.04,2.12,1.13,1.13,1.13
555.10,-1.09,-2.18,-1.09,-2.18,2.18,2.02,2.09,1.10,1.10,1.10
560.65,-1.10,-2.17,-1.10,-2.17,2.16,1.99,2.06,1.06,1.06,1.06
566.25,-1.11,-2.15,-1.11,-2.15,2.15,1.97,2.03,1.03,1.03,1.03
