frequency,raw,error,smoothed,error_smoothed,equalization,parametric_eq,fixed_band_eq,equalized_raw,equalized_smoothed,target
20.00,12.71,10.12,12.71,10.11,-10.15,-10.60,-3.85,2.56,2.56,2.59
20.20,12.72,10.08,12.72,10.09,-10.10,-10.62,-3.96,2.62,2.62,2.64
20.40,12.73,10.03,12.73,10.06,-10.04,-10.63,-4.07,2.68,2.68,2.69
20.61,12.73,10.04,12.73,10.02,-9.99,-10.48,-4.18,2.74,2.74,2.69
20.81,12.73,9.97,12.73,9.97,-9.93,-10.33,-4.29,2.80,2.80,2.76
21.02,12.74,9.90,12.74,9.91,-9.88,-10.13,-4.41,2.85,2.85,2.83
21.23,12.74,9.84,12.74,9.84,-9.83,-9.93,-4.53,2.91,2.91,2.90
21.44,12.73,9.78,12.73,9.77,-9.78,-9.75,-4.65,2.95,2.95,2.95
21.66,12.73,9.72,12.73,9.72,-9.72,-9.58,-4.78,3.01,3.01,3.01
21.87,12.73,9.64,12.72,9.67,-9.66,-9.47,-4.91,3.07,3.06,3.08
22.09,12.72,9.62,12.72,9.61,-9.61,-9.35,-5.04,3.10,3.10,3.09
22.31,12.71,9.58,12.71,9.56,-9.58,-9.29,-5.18,3.13,3.13,3.13
22.54,12.69,9.50,12.69,9.52,-9.55,-9.24,-5.32,3.14,3.14,3.19
22.76,12.68,9.48,12.68,9.50,-9.53,-9.22,-5.47,3.14,3.14,3.19
22.99,12.66,9.51,12.66,9.51,-9.52,-9.21,-5.61,3.14,3.14,3.14
23.22,12.64,9.55,12.64,9.53,-9.51,-9.22,-5.77,3.12,3.12,3.09
23.45,12.61,9.52,12.61,9.53,-9.51,-9.24,-5.92,3.11,3.11,3.09
23.69,12.59,9.50,12.59,9.50,-9.49,-9.26,-6.08,3.10,3.10,3.09
23.92,12.56,9.47,12.56,9.47,-9.47,-9.28,-6.25,3.09,3.09,3.09
24.16,12.53,9.44,12.53,9.44,-9.43,-9.28,-6.41,3.10,3.10,3.09
24.40,12.50,9.41,12.50,9.40,-9.38,-9.29,-6.58,3.12,3.12,3.09
24.65,12.46,9.33,12.46,9.33,-9.30,-9.27,-6.76,3.16,3.16,3.13
24.89,12.42,9.24,12.42,9.24,-9.22,-9.24,-6.93,3.20,3.20,3.19
25.14,12.39,9.13,12.39,9.13,-9.13,-9.20,-7.11,3.25,3.25,3.25
25.39,12.35,9.03,12.35,9.02,-9.04,-9.14,-7.29,3.31,3.31,3.32
25.65,12.31,8.91,12.31,8.91,-8.94,-9.07,-7.47,3.37,3.37,3.40
25.91,12.27,8.81,12.27,8.82,-8.84,-8.99,-7.65,3.43,3.43,3.47
26.16,12.24,8.74,12.24,8.75,-8.75,-8.90,-7.84,3.49,3.49,3.49
26.43,12.20,8.70,12.20,8.68,-8.66,-8.80,-8.02,3.54,3.54,3.50
26.69,12.16,8.60,12.16,8.60,-8.58,-8.70,-8.21,3.59,3.59,3.56
26.96,12.13,8.50,12.13,8.50,-8.51,-8.60,-8.39,3.62,3.62,3.63
27.23,12.09,8.40,12.09,8.42,-8.44,-8.50,-8.57,3.65,3.65,3.69
27.50,12.06,8.37,12.06,8.36,-8.39,-8.40,-8.75,3.67,3.67,3.69
27.77,12.02,8.33,12.02,8.32,-8.33,-8.31,-8.92,3.69,3.69,3.69
28.05,11.98,8.29,11.98,8.29,-8.29,-8.22,-9.09,3.70,3.70,3.69
28.33,11.94,8.25,11.94,8.25,-8.25,-8.13,-9.24,3.70,3.70,3.69
28.62,11.91,8.22,11.91,8.22,-8.22,-8.05,-9.40,3.69,3.69,3.69
28.90,11.87,8.18,11.87,8.18,-8.19,-7.97,-9.54,3.68,3.68,3.69
29.19,11.84,8.15,11.84,8.15,-8.16,-7.90,-9.67,3.68,3.68,3.69
29.48,11.81,8.12,11.81,8.12,-8.12,-7.84,-9.78,3.69,3.69,3.69
29.78,11.78,8.09,11.78,8.09,-8.07,-7.78,-9.89,3.72,3.72,3.69
30.08,11.76,8.05,11.76,8.04,-8.00,-7.72,-9.98,3.75,3.75,3.71
30.38,11.73,7.97,11.73,7.97,-7.94,-7.67,-10.05,3.80,3.80,3.77
30.68,11.71,7.87,11.70,7.87,-7.86,-7.63,-10.11,3.84,3.84,3.84
30.99,11.67,7.76,11.67,7.77,-7.78,-7.58,-10.15,3.89,3.89,3.91
31.30,11.64,7.67,11.64,7.68,-7.70,-7.55,-10.16,3.93,3.93,3.97
31.61,11.60,7.61,11.60,7.60,-7.62,-7.51,-10.17,3.98,3.98,3.99
31.93,11.56,7.54,11.56,7.53,-7.54,-7.48,-10.15,4.02,4.02,4.02
32.24,11.53,7.45,11.53,7.47,-7.47,-7.44,-10.12,4.06,4.06,4.08
32.57,11.50,7.41,11.51,7.41,-7.41,-7.41,-10.07,4.10,4.10,4.09
32.89,11.48,7.37,11.48,7.34,-7.35,-7.39,-10.00,4.13,4.13,4.11
33.22,11.46,7.27,11.46,7.29,-7.30,-7.36,-9.92,4.16,4.16,4.19
33.55,11.43,7.24,11.43,7.24,-7.25,-7.33,-9.83,4.19,4.18,4.19
33.89,11.40,7.21,11.40,7.21,-7.19,-7.31,-9.72,4.21,4.21,4.19
34.23,11.36,7.17,11.36,7.18,-7.14,-7.28,-9.61,4.22,4.22,4.19
34.57,11.32,7.13,11.32,7.12,-7.09,-7.26,-9.48,4.24,4.24,4.19
34.92,11.29,7.05,11.29,7.05,-7.04,-7.24,-9.35,4.24,4.24,4.23
35.27,11.26,6.97,11.26,6.99,-7.01,-7.21,-9.21,4.25,4.25,4.29
35.62,11.23,6.94,11.24,6.94,-6.98,-7.19,-9.06,4.25,4.25,4.29
35.97,11.22,6.93,11.22,6.93,-6.96,-7.17,-8.92,4.25,4.25,4.29
36.33,11.20,6.93,11.20,6.94,-6.96,-7.14,-8.77,4.25,4.24,4.27
36.70,11.19,6.98,11.19,6.96,-6.96,-7.12,-8.61,4.23,4.23,4.21
37.06,11.17,6.98,11.17,6.98,-6.97,-7.09,-8.46,4.20,4.20,4.19
37.43,11.15,6.98,11.15,7.00,-6.98,-7.06,-8.31,4.17,4.17,4.17
37.81,11.13,7.03,11.13,7.01,-6.99,-7.04,-8.16,4.14,4.14,4.11
38.19,11.11,7.02,11.11,7.02,-7.00,-7.01,-8.01,4.11,4.11,4.09
38.57,11.10,7.01,11.10,7.01,-7.00,-6.98,-7.86,4.10,4.10,4.09
38.95,11.08,6.99,11.08,6.99,-6.99,-6.95,-7.71,4.09,4.09,4.09
39.34,11.06,6.97,11.06,6.97,-6.98,-6.92,-7.57,4.08,4.08,4.09
39.74,11.04,6.95,11.04,6.95,-6.96,-6.88,-7.43,4.07,4.07,4.09
40.14,11.02,6.93,11.02,6.93,-6.95,-6.85,-7.30,4.07,4.07,4.09
40.54,11.00,6.91,11.00,6.91,-6.93,-6.82,-7.16,4.07,4.07,4.09
40.94,10.98,6.89,10.98,6.90,-6.90,-6.78,-7.04,4.08,4.08,4.09
41.35,10.96,6.87,10.96,6.88,-6.86,-6.74,-6.91,4.10,4.10,4.09
41.76,10.95,6.85,10.94,6.84,-6.80,-6.70,-6.80,4.15,4.15,4.09
42.18,10.92,6.78,10.92,6.78,-6.72,-6.66,-6.68,4.20,4.20,4.14
42.60,10.89,6.68,10.89,6.69,-6.62,-6.62,-6.57,4.27,4.27,4.21
43.03,10.86,6.58,10.86,6.55,-6.52,-6.58,-6.47,4.33,4.33,4.28
43.46,10.82,6.41,10.82,6.40,-6.43,-6.54,-6.37,4.39,4.39,4.41
43.90,10.78,6.26,10.78,6.27,-6.35,-6.50,-6.27,4.43,4.43,4.52
44.33,10.74,6.16,10.74,6.19,-6.28,-6.45,-6.18,4.46,4.46,4.58
44.78,10.71,6.18,10.71,6.17,-6.24,-6.40,-6.09,4.46,4.46,4.53
45.23,10.67,6.21,10.67,6.20,-6.22,-6.36,-6.01,4.45,4.45,4.46
45.68,10.63,6.24,10.63,6.24,-6.22,-6.31,-5.93,4.41,4.41,4.39
46.13,10.59,6.27,10.59,6.27,-6.23,-6.26,-5.86,4.36,4.36,4.32
46.60,10.54,6.29,10.54,6.29,-6.24,-6.21,-5.79,4.30,4.30,4.25
47.06,10.50,6.30,10.50,6.29,-6.25,-6.16,-5.72,4.24,4.24,4.19
47.53,10.45,6.26,10.45,6.26,-6.25,-6.11,-5.66,4.19,4.20,4.19
48.01,10.41,6.21,10.41,6.21,-6.24,-6.05,-5.60,4.16,4.16,4.19
48.49,10.36,6.17,10.36,6.17,-6.21,-6.00,-5.55,4.15,4.15,4.19
48.97,10.32,6.13,10.32,6.15,-6.17,-5.95,-5.50,4.15,4.15,4.19
49.46,10.27,6.14,10.27,6.13,-6.11,-5.89,-5.45,4.17,4.17,4.14
49.96,10.23,6.11,10.23,6.08,-6.04,-5.84,-5.41,4.19,4.19,4.11
50.46,10.18,6.00,10.18,6.01,-5.96,-5.78,-5.37,4.23,4.23,4.19
50.96,10.14,5.89,10.14,5.89,-5.87,-5.73,-5.33,4.26,4.26,4.25
51.47,10.09,5.77,10.09,5.76,-5.78,-5.67,-5.30,4.30,4.30,4.32
51.99,10.03,5.64,10.03,5.66,-5.70,-5.61,-5.26,4.34,4.34,4.39
52.51,9.98,5.58,9.98,5.58,-5.61,-5.56,-5.23,4.36,4.36,4.39
53.03,9.92,5.52,9.92,5.51,-5.54,-5.50,-5.20,4.37,4.37,4.39
53.56,9.85,5.46,9.85,5.46,-5.49,-5.44,-5.18,4.37,4.37,4.39
54.10,9.79,5.40,9.79,5.41,-5.45,-5.38,-5.15,4.35,4.35,4.39
54.64,9.73,5.38,9.73,5.39,-5.41,-5.32,-5.13,4.32,4.32,4.35
55.18,9.66,5.38,9.67,5.39,-5.37,-5.26,-5.10,4.30,4.30,4.28
55.74,9.61,5.39,9.61,5.37,-5.31,-5.21,-5.08,4.29,4.29,4.21
56.29,9.55,5.31,9.55,5.30,-5.25,-5.15,-5.05,4.30,4.30,4.24
56.86,9.50,5.19,9.50,5.20,-5.16,-5.09,-5.03,4.34,4.34,4.31
57.42,9.45,5.07,9.45,5.08,-5.07,-5.03,-5.00,4.38,4.38,4.38
58.00,9.40,4.96,9.40,4.95,-4.96,-4.97,-4.97,4.45,4.44,4.45
58.58,9.35,4.83,9.35,4.83,-4.84,-4.91,-4.94,4.51,4.51,4.51
59.16,9.29,4.71,9.29,4.70,-4.72,-4.85,-4.91,4.57,4.57,4.59
59.76,9.24,4.59,9.24,4.59,-4.62,-4.79,-4.88,4.62,4.62,4.65
60.35,9.18,4.49,9.18,4.50,-4.53,-4.73,-4.85,4.66,4.66,4.69
60.96,9.13,4.44,9.13,4.43,-4.45,-4.67,-4.81,4.67,4.67,4.69
61.57,9.07,4.38,9.07,4.39,-4.39,-4.62,-4.77,4.68,4.67,4.69
62.18,9.00,4.35,9.00,4.35,-4.34,-4.56,-4.73,4.66,4.66,4.65
62.80,8.93,4.34,8.93,4.32,-4.30,-4.50,-4.69,4.63,4.63,4.59
63.43,8.87,4.28,8.87,4.29,-4.28,-4.44,-4.64,4.59,4.59,4.59
64.07,8.80,4.25,8.80,4.26,-4.26,-4.38,-4.59,4.54,4.54,4.55
64.71,8.74,4.25,8.74,4.22,-4.24,-4.33,-4.54,4.49,4.49,4.49
65.35,8.68,4.18,8.68,4.20,-4.22,-4.27,-4.48,4.45,4.45,4.49
66.01,8.62,4.18,8.62,4.20,-4.19,-4.21,-4.42,4.42,4.42,4.44
66.67,8.56,4.19,8.56,4.19,-4.16,-4.16,-4.36,4.40,4.40,4.37
67.33,8.51,4.21,8.51,4.17,-4.13,-4.10,-4.30,4.38,4.38,4.30
68.01,8.45,4.10,8.45,4.11,-4.09,-4.04,-4.23,4.36,4.36,4.35
68.69,8.40,4.01,8.40,4.03,-4.04,-3.99,-4.17,4.36,4.36,4.39
69.37,8.35,3.96,8.35,3.96,-3.97,-3.93,-4.10,4.38,4.38,4.39
70.07,8.30,3.91,8.30,3.91,-3.90,-3.88,-4.03,4.40,4.40,4.39
70.77,8.24,3.85,8.24,3.85,-3.82,-3.82,-3.96,4.42,4.42,4.39
71.48,8.19,3.79,8.19,3.77,-3.75,-3.77,-3.89,4.43,4.43,4.39
72.19,8.13,3.67,8.13,3.67,-3.69,-3.72,-3.82,4.44,4.44,4.46
72.91,8.07,3.58,8.07,3.59,-3.64,-3.67,-3.75,4.43,4.43,4.49
73.64,8.01,3.53,8.01,3.54,-3.60,-3.61,-3.68,4.41,4.41,4.48
74.38,7.95,3.54,7.95,3.54,-3.56,-3.56,-3.60,4.39,4.39,4.41
75.12,7.90,3.55,7.90,3.55,-3.53,-3.51,-3.53,4.37,4.37,4.34
75.87,7.84,3.55,7.84,3.54,-3.49,-3.46,-3.46,4.35,4.35,4.29
76.63,7.79,3.50,7.79,3.50,-3.46,-3.41,-3.39,4.33,4.33,4.29
77.40,7.74,3.45,7.74,3.45,-3.43,-3.36,-3.32,4.31,4.31,4.29
78.17,7.69,3.40,7.69,3.40,-3.39,-3.31,-3.26,4.30,4.30,4.29
78.95,7.64,3.35,7.64,3.35,-3.35,-3.26,-3.19,4.29,4.29,4.29
79.74,7.59,3.30,7.59,3.29,-3.31,-3.21,-3.12,4.27,4.27,4.29
80.54,7.54,3.25,7.54,3.24,-3.28,-3.16,-3.06,4.26,4.26,4.29
81.35,7.49,3.20,7.49,3.22,-3.26,-3.12,-3.00,4.23,4.23,4.29
82.16,7.44,3.21,7.44,3.22,-3.24,-3.07,-2.94,4.20,4.20,4.23
82.98,7.39,3.23,7.39,3.23,-3.22,-3.02,-2.88,4.17,4.17,4.16
83.81,7.34,3.24,7.34,3.22,-3.19,-2.98,-2.82,4.14,4.14,4.09
84.65,7.28,3.19,7.28,3.19,-3.16,-2.93,-2.76,4.12,4.12,4.09
85.50,7.23,3.14,7.23,3.15,-3.12,-2.89,-2.71,4.11,4.11,4.09
86.35,7.17,3.08,7.17,3.08,-3.07,-2.84,-2.66,4.10,4.10,4.09
87.22,7.12,3.03,7.12,3.01,-3.01,-2.80,-2.61,4.11,4.11,4.09
88.09,7.06,2.92,7.06,2.92,-2.94,-2.76,-2.56,4.13,4.13,4.14
88.97,7.01,2.82,7.01,2.84,-2.85,-2.71,-2.51,4.15,4.15,4.19
89.86,6.95,2.76,6.95,2.77,-2.77,-2.67,-2.47,4.19,4.19,4.19
90.76,6.90,2.71,6.90,2.70,-2.69,-2.63,-2.42,4.22,4.22,4.19
91.66,6.85,2.63,6.85,2.62,-2.61,-2.59,-2.38,4.24,4.24,4.22
92.58,6.80,2.52,6.80,2.54,-2.54,-2.55,-2.34,4.26,4.26,4.28
93.51,6.75,2.46,6.75,2.45,-2.48,-2.51,-2.30,4.27,4.27,4.29
94.44,6.69,2.40,6.69,2.39,-2.42,-2.47,-2.27,4.27,4.27,4.29
95.39,6.63,2.34,6.63,2.36,-2.37,-2.43,-2.23,4.26,4.26,4.29
96.34,6.57,2.35,6.57,2.33,-2.32,-2.39,-2.20,4.25,4.25,4.22
97.30,6.50,2.31,6.50,2.29,-2.28,-2.36,-2.17,4.23,4.23,4.19
98.28,6.44,2.25,6.44,2.25,-2.24,-2.32,-2.14,4.20,4.20,4.19
99.26,6.37,2.18,6.37,2.21,-2.20,-2.28,-2.11,4.17,4.17,4.19
100.25,6.32,2.17,6.32,2.17,-2.17,-2.25,-2.08,4.15,4.15,4.14
101.25,6.27,2.16,6.27,2.12,-2.13,-2.21,-2.05,4.13,4.13,4.10
102.27,6.22,2.07,6.22,2.09,-2.10,-2.18,-2.03,4.12,4.12,4.15
103.29,6.19,2.02,6.19,2.06,-2.07,-2.14,-2.00,4.12,4.12,4.16
104.32,6.15,2.06,6.15,2.03,-2.04,-2.11,-1.98,4.11,4.11,4.09
105.37,6.11,2.02,6.11,2.01,-2.00,-2.07,-1.96,4.11,4.11,4.09
106.42,6.07,1.98,6.07,1.99,-1.96,-2.04,-1.94,4.11,4.11,4.09
107.48,6.03,1.94,6.03,1.94,-1.92,-2.01,-1.92,4.11,4.11,4.09
108.56,5.99,1.90,5.99,1.90,-1.89,-1.98,-1.90,4.10,4.10,4.09
109.64,5.94,1.85,5.94,1.85,-1.85,-1.95,-1.88,4.09,4.09,4.09
110.74,5.89,1.80,5.89,1.80,-1.81,-1.92,-1.86,4.08,4.08,4.09
111.85,5.84,1.75,5.84,1.75,-1.77,-1.88,-1.84,4.07,4.07,4.09
112.97,5.79,1.70,5.79,1.71,-1.73,-1.86,-1.82,4.05,4.05,4.09
114.10,5.73,1.69,5.73,1.70,-1.69,-1.83,-1.81,4.04,4.04,4.04
115.24,5.67,1.69,5.67,1.69,-1.66,-1.80,-1.79,4.01,4.01,3.98
116.39,5.61,1.69,5.61,1.66,-1.63,-1.77,-1.77,3.99,3.99,3.92
117.55,5.56,1.61,5.56,1.63,-1.61,-1.74,-1.75,3.95,3.95,3.95
118.73,5.52,1.56,5.51,1.59,-1.60,-1.71,-1.73,3.92,3.92,3.95
119.92,5.48,1.58,5.48,1.56,-1.61,-1.69,-1.72,3.87,3.87,3.90
121.12,5.45,1.56,5.45,1.56,-1.62,-1.66,-1.70,3.83,3.83,3.89
122.33,5.44,1.56,5.44,1.59,-1.64,-1.63,-1.68,3.80,3.80,3.87
123.55,5.44,1.62,5.44,1.64,-1.65,-1.61,-1.66,3.79,3.79,3.81
124.79,5.44,1.73,5.44,1.71,-1.65,-1.58,-1.64,3.79,3.79,3.71
126.03,5.45,1.75,5.45,1.75,-1.65,-1.56,-1.62,3.80,3.80,3.69
127.29,5.45,1.74,5.45,1.74,-1.63,-1.53,-1.60,3.81,3.81,3.71
128.57,5.44,1.67,5.44,1.64,-1.61,-1.51,-1.58,3.83,3.83,3.77
129.85,5.42,1.54,5.42,1.54,-1.59,-1.49,-1.56,3.83,3.83,3.88
131.15,5.40,1.41,5.40,1.47,-1.56,-1.46,-1.54,3.84,3.84,3.98
132.46,5.37,1.45,5.36,1.44,-1.53,-1.44,-1.51,3.83,3.83,3.92
133.79,5.32,1.47,5.32,1.46,-1.51,-1.42,-1.49,3.82,3.82,3.85
135.12,5.28,1.49,5.28,1.49,-1.49,-1.40,-1.47,3.79,3.79,3.78
136.48,5.23,1.51,5.23,1.52,-1.47,-1.37,-1.44,3.76,3.75,3.72
137.84,5.17,1.52,5.17,1.52,-1.45,-1.35,-1.42,3.72,3.72,3.65
139.22,5.12,1.52,5.12,1.48,-1.43,-1.33,-1.40,3.70,3.70,3.60
140.61,5.07,1.40,5.07,1.43,-1.38,-1.31,-1.37,3.69,3.69,3.67
142.02,5.03,1.34,5.03,1.34,-1.33,-1.29,-1.35,3.70,3.70,3.69
143.44,4.99,1.27,4.99,1.25,-1.28,-1.27,-1.32,3.71,3.71,3.71
144.87,4.95,1.16,4.95,1.18,-1.23,-1.26,-1.30,3.72,3.72,3.78
146.32,4.90,1.11,4.90,1.12,-1.19,-1.24,-1.28,3.71,3.71,3.79
147.78,4.86,1.11,4.86,1.11,-1.17,-1.22,-1.25,3.70,3.70,3.75
149.26,4.82,1.14,4.82,1.14,-1.15,-1.20,-1.23,3.67,3.67,3.68
150.75,4.78,1.18,4.78,1.17,-1.15,-1.18,-1.21,3.63,3.63,3.60
152.26,4.74,1.19,4.74,1.20,-1.16,-1.17,-1.18,3.59,3.59,3.55
153.78,4.71,1.21,4.71,1.20,-1.16,-1.15,-1.16,3.55,3.55,3.50
155.32,4.68,1.19,4.68,1.17,-1.15,-1.13,-1.14,3.53,3.53,3.49
156.88,4.66,1.12,4.66,1.14,-1.13,-1.12,-1.12,3.53,3.53,3.54
158.44,4.63,1.06,4.63,1.10,-1.10,-1.10,-1.10,3.53,3.53,3.57
160.03,4.61,1.12,4.61,1.07,-1.06,-1.09,-1.07,3.54,3.54,3.49
161.63,4.58,1.03,4.58,1.02,-1.03,-1.07,-1.05,3.55,3.55,3.55
163.24,4.55,0.96,4.55,0.98,-1.00,-1.06,-1.03,3.55,3.55,3.59
164.88,4.51,0.92,4.51,0.93,-0.97,-1.04,-1.02,3.54,3.54,3.59
166.53,4.47,0.93,4.47,0.93,-0.96,-1.03,-1.00,3.51,3.51,3.54
168.19,4.42,0.94,4.42,0.94,-0.95,-1.02,-0.98,3.47,3.47,3.48
169.87,4.37,0.98,4.37,0.95,-0.94,-1.00,-0.96,3.43,3.43,3.40
171.57,4.32,0.93,4.32,0.95,-0.93,-0.99,-0.94,3.40,3.40,3.39
173.29,4.28,0.93,4.28,0.95,-0.90,-0.98,-0.93,3.37,3.37,3.35
175.02,4.23,0.94,4.23,0.92,-0.87,-0.97,-0.91,3.36,3.36,3.29
176.77,4.18,0.89,4.18,0.87,-0.83,-0.95,-0.90,3.35,3.35,3.29
178.54,4.14,0.79,4.14,0.80,-0.80,-0.94,-0.88,3.34,3.34,3.34
180.32,4.09,0.70,4.09,0.71,-0.76,-0.93,-0.87,3.33,3.33,3.39
182.13,4.05,0.65,4.05,0.67,-0.73,-0.92,-0.86,3.32,3.32,3.39
183.95,4.00,0.66,4.00,0.66,-0.70,-0.91,-0.84,3.30,3.30,3.34
185.79,3.96,0.69,3.96,0.68,-0.69,-0.90,-0.83,3.27,3.27,3.26
187.65,3.92,0.71,3.92,0.72,-0.69,-0.89,-0.82,3.23,3.23,3.20
189.52,3.88,0.74,3.88,0.73,-0.70,-0.88,-0.81,3.18,3.18,3.14
191.42,3.84,0.75,3.84,0.73,-0.73,-0.87,-0.80,3.11,3.11,3.09
193.33,3.81,0.72,3.81,0.74,-0.76,-0.86,-0.79,3.05,3.05,3.09
195.27,3.78,0.75,3.78,0.75,-0.78,-0.85,-0.78,2.99,2.99,3.03
197.22,3.74,0.79,3.74,0.78,-0.80,-0.84,-0.77,2.95,2.95,2.95
199.19,3.70,0.82,3.70,0.82,-0.80,-0.83,-0.76,2.91,2.90,2.88
201.18,3.66,0.85,3.66,0.84,-0.80,-0.83,-0.75,2.87,2.87,2.82
203.19,3.62,0.83,3.62,0.82,-0.79,-0.82,-0.74,2.83,2.83,2.79
205.23,3.58,0.79,3.58,0.79,-0.78,-0.81,-0.74,2.80,2.80,2.79
207.28,3.53,0.74,3.53,0.74,-0.76,-0.80,-0.73,2.77,2.77,2.79
209.35,3.49,0.69,3.49,0.70,-0.73,-0.80,-0.72,2.76,2.76,2.79
211.44,3.44,0.66,3.44,0.68,-0.70,-0.79,-0.72,2.74,2.74,2.78
213.56,3.40,0.69,3.40,0.67,-0.67,-0.78,-0.71,2.73,2.73,2.71
215.69,3.35,0.66,3.35,0.65,-0.64,-0.78,-0.71,2.71,2.71,2.69
217.85,3.31,0.61,3.31,0.62,-0.62,-0.77,-0.70,2.69,2.69,2.69
220.03,3.26,0.57,3.26,0.59,-0.60,-0.77,-0.70,2.66,2.66,2.69
222.23,3.22,0.58,3.22,0.57,-0.59,-0.76,-0.69,2.63,2.63,2.64
224.45,3.18,0.58,3.18,0.57,-0.57,-0.76,-0.69,2.61,2.61,2.59
226.70,3.13,0.54,3.13,0.56,-0.54,-0.75,-0.68,2.59,2.58,2.59
228.96,3.08,0.56,3.08,0.55,-0.52,-0.75,-0.68,2.56,2.56,2.53
231.25,3.03,0.54,3.03,0.52,-0.50,-0.74,-0.67,2.53,2.53,2.49
233.57,2.98,0.49,2.98,0.49,-0.49,-0.74,-0.67,2.50,2.50,2.49
235.90,2.93,0.44,2.93,0.46,-0.48,-0.73,-0.67,2.45,2.45,2.49
238.26,2.88,0.43,2.88,0.44,-0.47,-0.73,-0.66,2.41,2.41,2.45
240.64,2.84,0.46,2.84,0.45,-0.48,-0.73,-0.66,2.36,2.36,2.38
243.05,2.80,0.48,2.80,0.49,-0.49,-0.72,-0.66,2.30,2.30,2.31
245.48,2.77,0.52,2.76,0.53,-0.52,-0.72,-0.65,2.24,2.24,2.24
247.93,2.74,0.57,2.74,0.57,-0.56,-0.72,-0.65,2.18,2.18,2.17
250.41,2.73,0.62,2.73,0.60,-0.61,-0.72,-0.65,2.12,2.12,2.11
252.92,2.73,0.64,2.73,0.65,-0.65,-0.71,-0.64,2.08,2.08,2.09
255.45,2.74,0.67,2.74,0.70,-0.69,-0.71,-0.64,2.05,2.05,2.08
258.00,2.76,0.77,2.76,0.74,-0.73,-0.71,-0.64,2.03,2.03,1.99
260.58,2.78,0.79,2.78,0.79,-0.76,-0.71,-0.64,2.02,2.02,1.99
263.19,2.79,0.80,2.79,0.81,-0.78,-0.71,-0.63,2.01,2.01,1.99
265.82,2.79,0.80,2.79,0.80,-0.80,-0.71,-0.63,1.99,1.99,1.99
268.48,2.79,0.79,2.78,0.80,-0.82,-0.70,-0.63,1.96,1.96,1.99
271.16,2.76,0.80,2.76,0.82,-0.83,-0.70,-0.63,1.93,1.93,1.96
273.87,2.74,0.84,2.74,0.84,-0.84,-0.70,-0.62,1.89,1.89,1.89
276.61,2.70,0.88,2.70,0.86,-0.86,-0.70,-0.62,1.85,1.85,1.83
279.38,2.67,0.88,2.67,0.87,-0.87,-0.70,-0.62,1.80,1.80,1.79
282.17,2.63,0.84,2.63,0.87,-0.89,-0.70,-0.62,1.74,1.75,1.79
284.99,2.59,0.87,2.59,0.88,-0.89,-0.70,-0.62,1.70,1.70,1.72
287.84,2.55,0.91,2.55,0.90,-0.88,-0.70,-0.61,1.67,1.67,1.64
290.72,2.51,0.92,2.51,0.91,-0.86,-0.70,-0.61,1.65,1.65,1.59
293.63,2.47,0.88,2.47,0.89,-0.83,-0.71,-0.61,1.64,1.64,1.59
296.57,2.43,0.84,2.43,0.83,-0.80,-0.71,-0.61,1.63,1.63,1.59
299.53,2.39,0.77,2.39,0.75,-0.77,-0.71,-0.61,1.62,1.62,1.62
302.53,2.35,0.67,2.35,0.71,-0.76,-0.71,-0.61,1.59,1.59,1.68
305.55,2.31,0.68,2.31,0.68,-0.75,-0.71,-0.61,1.56,1.56,1.63
308.61,2.27,0.72,2.27,0.70,-0.76,-0.71,-0.61,1.52,1.52,1.56
311.69,2.24,0.74,2.24,0.74,-0.77,-0.71,-0.61,1.47,1.47,1.50
314.81,2.20,0.78,2.20,0.80,-0.78,-0.72,-0.61,1.42,1.42,1.42
317.96,2.16,0.85,2.16,0.86,-0.80,-0.72,-0.62,1.36,1.36,1.31
321.14,2.13,0.94,2.13,0.90,-0.82,-0.72,-0.62,1.31,1.31,1.19
324.35,2.09,0.90,2.09,0.88,-0.84,-0.73,-0.62,1.25,1.25,1.19
327.59,2.06,0.81,2.06,0.83,-0.85,-0.73,-0.62,1.21,1.21,1.24
330.87,2.02,0.75,2.02,0.78,-0.84,-0.73,-0.63,1.18,1.18,1.27
334.18,1.99,0.78,1.99,0.78,-0.82,-0.73,-0.63,1.17,1.17,1.21
337.52,1.95,0.81,1.95,0.80,-0.80,-0.74,-0.63,1.15,1.15,1.14
340.90,1.92,0.83,1.92,0.82,-0.78,-0.74,-0.64,1.14,1.14,1.09
344.30,1.89,0.80,1.89,0.80,-0.77,-0.75,-0.64,1.12,1.12,1.09
347.75,1.85,0.76,1.85,0.76,-0.76,-0.75,-0.65,1.09,1.09,1.09
351.23,1.82,0.73,1.82,0.72,-0.76,-0.75,-0.66,1.06,1.06,1.09
354.74,1.79,0.69,1.79,0.72,-0.75,-0.76,-0.66,1.04,1.04,1.09
358.28,1.75,0.73,1.75,0.74,-0.74,-0.76,-0.67,1.02,1.02,1.03
361.87,1.72,0.77,1.72,0.76,-0.72,-0.77,-0.68,1.00,1.00,0.95
365.49,1.69,0.79,1.69,0.75,-0.72,-0.77,-0.68,0.97,0.97,0.90
369.14,1.66,0.70,1.66,0.72,-0.72,-0.78,-0.69,0.94,0.94,0.96
372.83,1.63,0.67,1.63,0.70,-0.72,-0.78,-0.70,0.90,0.90,0.95
376.56,1.59,0.71,1.59,0.70,-0.74,-0.79,-0.71,0.86,0.86,0.88
380.33,1.56,0.74,1.56,0.72,-0.75,-0.80,-0.72,0.81,0.81,0.82
384.13,1.53,0.74,1.53,0.75,-0.76,-0.80,-0.73,0.77,0.77,0.79
387.97,1.50,0.74,1.50,0.78,-0.77,-0.81,-0.74,0.73,0.73,0.76
391.85,1.47,0.84,1.47,0.81,-0.78,-0.81,-0.75,0.69,0.69,0.63
395.77,1.44,0.85,1.44,0.83,-0.78,-0.82,-0.76,0.65,0.66,0.59
399.73,1.41,0.82,1.41,0.82,-0.79,-0.83,-0.77,0.62,0.62,0.59
403.72,1.38,0.79,1.38,0.78,-0.80,-0.83,-0.79,0.58,0.58,0.59
407.76,1.35,0.76,1.35,0.76,-0.81,-0.84,-0.80,0.54,0.54,0.59
411.84,1.32,0.76,1.32,0.76,-0.82,-0.85,-0.81,0.50,0.50,0.56
415.96,1.29,0.79,1.29,0.79,-0.82,-0.86,-0.82,0.46,0.46,0.49
420.12,1.25,0.83,1.25,0.83,-0.83,-0.86,-0.84,0.43,0.43,0.42
424.32,1.22,0.87,1.22,0.87,-0.83,-0.87,-0.85,0.39,0.39,0.35
428.56,1.19,0.90,1.19,0.89,-0.84,-0.88,-0.86,0.36,0.36,0.29
432.85,1.16,0.87,1.16,0.88,-0.84,-0.89,-0.87,0.32,0.32,0.29
437.18,1.13,0.84,1.13,0.84,-0.84,-0.90,-0.89,0.29,0.29,0.29
441.55,1.10,0.81,1.10,0.81,-0.83,-0.90,-0.90,0.27,0.27,0.29
445.96,1.07,0.78,1.07,0.80,-0.82,-0.91,-0.91,0.25,0.25,0.29
450.42,1.04,0.80,1.04,0.80,-0.81,-0.92,-0.93,0.24,0.24,0.24
454.93,1.01,0.82,1.01,0.80,-0.80,-0.93,-0.94,0.22,0.22,0.19
459.48,0.98,0.79,0.98,0.81,-0.80,-0.94,-0.95,0.18,0.18,0.19
464.07,0.95,0.82,0.95,0.81,-0.82,-0.95,-0.97,0.13,0.13,0.13
468.71,0.92,0.83,0.92,0.81,-0.85,-0.96,-0.98,0.08,0.08,0.09
473.40,0.89,0.80,0.89,0.84,-0.87,-0.97,-0.99,0.02,0.02,0.09
478.13,0.86,0.89,0.86,0.89,-0.89,-0.98,-1.00,-0.03,-0.03,-0.03
482.91,0.83,0.97,0.83,0.95,-0.91,-0.99,-1.01,-0.08,-0.08,-0.14
487.74,0.80,1.01,0.80,0.99,-0.93,-1.00,-1.02,-0.13,-0.13,-0.21
492.62,0.77,0.98,0.77,0.98,-0.96,-1.01,-1.03,-0.18,-0.18,-0.21
497.55,0.75,0.95,0.75,0.96,-0.98,-1.02,-1.04,-0.24,-0.24,-0.21
502.52,0.72,0.93,0.72,0.95,-1.01,-1.04,-1.05,-0.29,-0.29,-0.22
507.55,0.69,0.98,0.69,0.99,-1.03,-1.05,-1.06,-0.35,-0.35,-0.29
512.62,0.66,1.06,0.66,1.05,-1.06,-1.06,-1.07,-0.40,-0.40,-0.40
517.75,0.63,1.14,0.63,1.10,-1.08,-1.07,-1.08,-0.45,-0.45,-0.51
522.93,0.60,1.11,0.60,1.13,-1.10,-1.08,-1.09,-0.50,-0.50,-0.51
