frequency,raw,error,smoothed,error_smoothed,equalization,parametric_eq,fixed_band_eq,equalized_raw,equalized_smoothed,target
20.00,10.87,2.66,10.87,2.66,-2.68,-2.41,-1.34,8.20,8.19,8.22
20.20,10.90,2.69,10.90,2.69,-2.69,-2.46,-1.38,8.21,8.21,8.22
20.40,10.93,2.71,10.93,2.71,-2.70,-2.51,-1.42,8.23,8.23,8.22
20.61,10.96,2.73,10.96,2.73,-2.72,-2.56,-1.46,8.24,8.24,8.22
20.81,10.98,2.75,10.98,2.75,-2.73,-2.61,-1.50,8.25,8.25,8.23
21.02,11.00,2.75,11.00,2.75,-2.74,-2.65,-1.55,8.26,8.26,8.25
21.23,11.02,2.76,11.02,2.76,-2.75,-2.70,-1.59,8.27,8.27,8.26
21.44,11.04,2.76,11.04,2.76,-2.76,-2.74,-1.64,8.28,8.28,8.28
21.66,11.06,2.77,11.06,2.77,-2.77,-2.77,-1.69,8.29,8.29,8.29
21.87,11.08,2.77,11.08,2.77,-2.78,-2.80,-1.74,8.29,8.29,8.30
22.09,11.09,2.78,11.09,2.78,-2.79,-2.83,-1.79,8.30,8.30,8.31
22.31,11.11,2.80,11.11,2.80,-2.81,-2.85,-1.85,8.30,8.30,8.31
22.54,11.12,2.82,11.12,2.82,-2.82,-2.87,-1.90,8.30,8.30,8.30
22.76,11.14,2.84,11.14,2.84,-2.84,-2.88,-1.96,8.30,8.30,8.30
22.99,11.16,2.86,11.16,2.86,-2.85,-2.89,-2.02,8.30,8.30,8.29
23.22,11.17,2.88,11.17,2.87,-2.87,-2.89,-2.07,8.31,8.31,8.30
23.45,11.19,2.88,11.19,2.88,-2.87,-2.89,-2.13,8.32,8.32,8.31
23.69,11.20,2.88,11.20,2.88,-2.87,-2.88,-2.20,8.33,8.33,8.32
23.92,11.22,2.88,11.22,2.87,-2.87,-2.87,-2.26,8.35,8.35,8.34
24.16,11.23,2.86,11.23,2.86,-2.86,-2.85,-2.32,8.36,8.36,8.36
24.40,11.24,2.85,11.24,2.85,-2.85,-2.84,-2.39,8.38,8.38,8.39
24.65,11.24,2.84,11.24,2.84,-2.84,-2.82,-2.45,8.40,8.40,8.41
24.89,11.24,2.83,11.24,2.83,-2.83,-2.81,-2.52,8.41,8.41,8.42
25.14,11.25,2.82,11.25,2.82,-2.82,-2.80,-2.58,8.43,8.43,8.43
25.39,11.24,2.81,11.24,2.81,-2.81,-2.79,-2.65,8.44,8.44,8.44
25.65,11.24,2.80,11.24,2.80,-2.80,-2.78,-2.72,8.45,8.45,8.44
25.91,11.24,2.79,11.24,2.79,-2.79,-2.78,-2.78,8.46,8.46,8.45
26.16,11.24,2.78,11.24,2.78,-2.78,-2.78,-2.85,8.47,8.47,8.46
26.43,11.24,2.77,11.24,2.77,-2.77,-2.78,-2.92,8.47,8.47,8.47
26.69,11.25,2.76,11.25,2.76,-2.76,-2.79,-2.98,8.48,8.48,8.49
26.96,11.25,2.75,11.25,2.75,-2.76,-2.80,-3.04,8.49,8.49,8.50
27.23,11.26,2.75,11.26,2.75,-2.75,-2.81,-3.11,8.50,8.50,8.51
27.50,11.26,2.75,11.26,2.75,-2.75,-2.82,-3.17,8.51,8.51,8.51
27.77,11.27,2.75,11.27,2.75,-2.76,-2.83,-3.22,8.52,8.52,8.52
28.05,11.28,2.76,11.28,2.76,-2.76,-2.84,-3.28,8.52,8.52,8.52
28.33,11.28,2.77,11.28,2.77,-2.77,-2.84,-3.33,8.52,8.52,8.52
28.62,11.29,2.77,11.29,2.77,-2.78,-2.85,-3.38,8.51,8.51,8.51
28.90,11.29,2.78,11.29,2.78,-2.78,-2.85,-3.43,8.51,8.51,8.51
29.19,11.29,2.79,11.29,2.79,-2.79,-2.85,-3.47,8.50,8.50,8.50
29.48,11.29,2.80,11.29,2.80,-2.80,-2.85,-3.51,8.49,8.49,8.49
29.78,11.29,2.80,11.29,2.81,-2.80,-2.84,-3.54,8.49,8.49,8.48
30.08,11.28,2.81,11.28,2.81,-2.80,-2.84,-3.57,8.49,8.49,8.48
30.38,11.28,2.81,11.28,2.80,-2.79,-2.83,-3.59,8.49,8.49,8.48
30.68,11.28,2.79,11.28,2.79,-2.79,-2.82,-3.61,8.50,8.50,8.49
30.99,11.28,2.78,11.28,2.78,-2.78,-2.81,-3.62,8.51,8.51,8.51
31.30,11.29,2.76,11.29,2.76,-2.77,-2.80,-3.63,8.52,8.52,8.52
31.61,11.29,2.75,11.29,2.75,-2.76,-2.79,-3.63,8.52,8.52,8.54
31.93,11.29,2.75,11.29,2.75,-2.76,-2.78,-3.63,8.52,8.52,8.54
32.24,11.28,2.75,11.28,2.75,-2.76,-2.77,-3.62,8.52,8.52,8.53
32.57,11.28,2.76,11.28,2.76,-2.76,-2.75,-3.60,8.52,8.52,8.52
32.89,11.28,2.77,11.28,2.77,-2.77,-2.74,-3.59,8.52,8.52,8.51
33.22,11.28,2.78,11.28,2.78,-2.77,-2.73,-3.56,8.51,8.51,8.50
33.55,11.28,2.79,11.28,2.78,-2.77,-2.72,-3.53,8.51,8.51,8.50
33.89,11.28,2.78,11.28,2.78,-2.78,-2.71,-3.50,8.51,8.51,8.50
34.23,11.28,2.78,11.28,2.78,-2.78,-2.69,-3.47,8.51,8.51,8.51
34.57,11.28,2.77,11.28,2.77,-2.77,-2.68,-3.42,8.51,8.51,8.51
34.92,11.28,2.76,11.28,2.76,-2.77,-2.67,-3.38,8.51,8.51,8.52
35.27,11.28,2.76,11.27,2.76,-2.76,-2.66,-3.34,8.51,8.51,8.52
35.62,11.27,2.76,11.27,2.75,-2.76,-2.65,-3.29,8.51,8.51,8.51
35.97,11.26,2.75,11.26,2.75,-2.75,-2.64,-3.24,8.51,8.51,8.51
36.33,11.25,2.75,11.25,2.75,-2.75,-2.63,-3.19,8.51,8.51,8.51
36.70,11.24,2.74,11.25,2.74,-2.74,-2.62,-3.14,8.50,8.51,8.50
37.06,11.24,2.74,11.24,2.74,-2.73,-2.62,-3.08,8.51,8.51,8.50
37.43,11.23,2.73,11.23,2.73,-2.72,-2.61,-3.03,8.51,8.51,8.51
37.81,11.23,2.72,11.23,2.72,-2.71,-2.60,-2.98,8.51,8.51,8.51
38.19,11.22,2.71,11.22,2.71,-2.70,-2.59,-2.92,8.51,8.51,8.51
38.57,11.21,2.69,11.21,2.69,-2.69,-2.58,-2.87,8.52,8.52,8.52
38.95,11.20,2.68,11.20,2.68,-2.68,-2.57,-2.82,8.51,8.51,8.52
39.34,11.18,2.67,11.18,2.67,-2.67,-2.57,-2.76,8.51,8.51,8.52
39.74,11.17,2.66,11.17,2.66,-2.66,-2.56,-2.71,8.51,8.51,8.51
40.14,11.15,2.65,11.15,2.65,-2.65,-2.55,-2.66,8.50,8.50,8.51
40.54,11.14,2.64,11.14,2.64,-2.64,-2.54,-2.61,8.50,8.50,8.50
40.94,11.12,2.63,11.12,2.63,-2.63,-2.53,-2.57,8.49,8.49,8.49
41.35,11.10,2.62,11.10,2.62,-2.61,-2.53,-2.52,8.49,8.49,8.49
41.76,11.08,2.60,11.08,2.60,-2.60,-2.52,-2.48,8.48,8.48,8.48
42.18,11.07,2.59,11.07,2.59,-2.59,-2.51,-2.43,8.48,8.48,8.48
42.60,11.05,2.57,11.05,2.57,-2.57,-2.50,-2.39,8.48,8.48,8.48
43.03,11.03,2.55,11.03,2.55,-2.55,-2.49,-2.35,8.48,8.48,8.48
43.46,11.01,2.54,11.01,2.54,-2.54,-2.48,-2.31,8.48,8.48,8.48
43.90,10.99,2.52,10.99,2.52,-2.52,-2.46,-2.28,8.48,8.48,8.48
44.33,10.97,2.50,10.97,2.50,-2.50,-2.45,-2.24,8.47,8.47,8.47
44.78,10.94,2.48,10.94,2.48,-2.48,-2.44,-2.21,8.46,8.46,8.46
45.23,10.91,2.45,10.91,2.45,-2.45,-2.43,-2.18,8.46,8.46,8.45
45.68,10.88,2.43,10.88,2.43,-2.43,-2.41,-2.15,8.45,8.45,8.45
46.13,10.84,2.41,10.84,2.41,-2.41,-2.40,-2.12,8.44,8.44,8.44
46.60,10.81,2.38,10.81,2.38,-2.38,-2.38,-2.10,8.43,8.43,8.43
47.06,10.78,2.36,10.78,2.36,-2.36,-2.36,-2.07,8.42,8.42,8.42
47.53,10.74,2.33,10.74,2.33,-2.33,-2.35,-2.05,8.41,8.41,8.42
48.01,10.71,2.30,10.71,2.30,-2.30,-2.33,-2.03,8.41,8.41,8.41
48.49,10.67,2.28,10.67,2.28,-2.28,-2.31,-2.01,8.40,8.40,8.40
48.97,10.64,2.25,10.64,2.25,-2.25,-2.29,-1.99,8.39,8.39,8.39
49.46,10.60,2.22,10.60,2.22,-2.22,-2.27,-1.98,8.38,8.38,8.38
49.96,10.56,2.19,10.56,2.19,-2.19,-2.24,-1.96,8.37,8.37,8.37
50.46,10.52,2.15,10.52,2.15,-2.15,-2.22,-1.95,8.36,8.36,8.36
50.96,10.47,2.12,10.47,2.12,-2.12,-2.20,-1.94,8.35,8.35,8.35
51.47,10.43,2.08,10.43,2.08,-2.09,-2.17,-1.92,8.34,8.34,8.35
51.99,10.38,2.05,10.38,2.05,-2.05,-2.14,-1.91,8.33,8.33,8.33
52.51,10.34,2.01,10.34,2.01,-2.02,-2.12,-1.90,8.32,8.32,8.32
53.03,10.29,1.98,10.29,1.98,-1.98,-2.09,-1.89,8.31,8.31,8.31
53.56,10.25,1.95,10.25,1.95,-1.95,-2.06,-1.88,8.30,8.30,8.30
54.10,10.20,1.91,10.20,1.91,-1.92,-2.03,-1.87,8.29,8.29,8.29
54.64,10.16,1.88,10.16,1.88,-1.88,-2.00,-1.86,8.27,8.27,8.27
55.18,10.11,1.85,10.11,1.85,-1.85,-1.97,-1.86,8.26,8.26,8.26
55.74,10.06,1.82,10.06,1.82,-1.82,-1.94,-1.85,8.25,8.25,8.25
56.29,10.01,1.78,10.01,1.78,-1.78,-1.91,-1.84,8.23,8.23,8.23
56.86,9.96,1.75,9.96,1.75,-1.75,-1.87,-1.83,8.21,8.21,8.21
57.42,9.91,1.72,9.91,1.72,-1.72,-1.84,-1.81,8.20,8.20,8.20
58.00,9.86,1.68,9.86,1.68,-1.68,-1.80,-1.80,8.18,8.18,8.18
58.58,9.81,1.65,9.81,1.65,-1.65,-1.77,-1.79,8.16,8.16,8.16
59.16,9.76,1.61,9.76,1.61,-1.61,-1.73,-1.77,8.14,8.14,8.15
59.76,9.71,1.58,9.71,1.58,-1.58,-1.70,-1.76,8.13,8.13,8.13
60.35,9.66,1.55,9.66,1.55,-1.54,-1.66,-1.74,8.12,8.12,8.11
60.96,9.61,1.51,9.61,1.51,-1.51,-1.62,-1.72,8.10,8.10,8.10
61.57,9.56,1.47,9.56,1.47,-1.47,-1.58,-1.70,8.09,8.09,8.09
62.18,9.51,1.44,9.51,1.44,-1.44,-1.54,-1.68,8.07,8.07,8.07
62.80,9.46,1.40,9.46,1.40,-1.40,-1.51,-1.66,8.06,8.06,8.06
63.43,9.41,1.36,9.41,1.36,-1.36,-1.47,-1.63,8.04,8.04,8.04
64.07,9.35,1.33,9.35,1.33,-1.33,-1.43,-1.60,8.03,8.03,8.03
64.71,9.30,1.29,9.30,1.29,-1.29,-1.39,-1.57,8.01,8.01,8.01
65.35,9.25,1.25,9.25,1.25,-1.25,-1.35,-1.54,8.00,8.00,8.00
66.01,9.20,1.22,9.20,1.22,-1.22,-1.31,-1.51,7.99,7.98,7.98
66.67,9.15,1.18,9.15,1.18,-1.18,-1.27,-1.48,7.97,7.97,7.97
67.33,9.09,1.14,9.09,1.14,-1.14,-1.22,-1.44,7.95,7.95,7.95
68.01,9.04,1.11,9.04,1.11,-1.11,-1.18,-1.40,7.93,7.93,7.93
68.69,8.98,1.07,8.98,1.07,-1.07,-1.14,-1.37,7.91,7.91,7.91
69.37,8.93,1.03,8.93,1.03,-1.04,-1.10,-1.33,7.89,7.89,7.89
70.07,8.87,1.00,8.87,1.00,-1.00,-1.06,-1.28,7.87,7.87,7.87
70.77,8.82,0.97,8.82,0.97,-0.97,-1.02,-1.24,7.85,7.85,7.85
71.48,8.77,0.94,8.77,0.94,-0.95,-0.97,-1.20,7.82,7.82,7.82
72.19,8.72,0.92,8.72,0.92,-0.92,-0.93,-1.16,7.80,7.80,7.80
72.91,8.67,0.90,8.67,0.90,-0.90,-0.89,-1.11,7.77,7.77,7.78
73.64,8.62,0.88,8.62,0.88,-0.88,-0.85,-1.07,7.75,7.75,7.75
74.38,8.58,0.86,8.58,0.86,-0.85,-0.81,-1.02,7.72,7.72,7.72
75.12,8.53,0.83,8.53,0.83,-0.83,-0.76,-0.98,7.70,7.70,7.69
75.87,8.47,0.81,8.47,0.81,-0.80,-0.72,-0.93,7.67,7.67,7.66
76.63,8.42,0.78,8.42,0.78,-0.78,-0.68,-0.89,7.64,7.64,7.63
77.40,8.36,0.75,8.36,0.75,-0.75,-0.64,-0.84,7.61,7.61,7.61
78.17,8.30,0.72,8.30,0.72,-0.72,-0.59,-0.80,7.58,7.58,7.58
78.95,8.24,0.69,8.24,0.69,-0.69,-0.55,-0.75,7.55,7.55,7.55
79.74,8.18,0.65,8.18,0.65,-0.66,-0.51,-0.71,7.52,7.52,7.53
80.54,8.12,0.62,8.12,0.62,-0.62,-0.46,-0.66,7.50,7.50,7.50
81.35,8.06,0.59,8.06,0.59,-0.59,-0.42,-0.62,7.47,7.47,7.47
82.16,8.00,0.56,8.00,0.56,-0.56,-0.38,-0.57,7.44,7.44,7.45
82.98,7.94,0.53,7.94,0.53,-0.53,-0.34,-0.53,7.42,7.42,7.42
83.81,7.88,0.49,7.88,0.49,-0.49,-0.29,-0.48,7.39,7.39,7.38
84.65,7.81,0.46,7.81,0.46,-0.45,-0.25,-0.44,7.36,7.36,7.35
85.50,7.74,0.42,7.74,0.42,-0.41,-0.21,-0.40,7.33,7.33,7.32
86.35,7.66,0.37,7.66,0.37,-0.37,-0.16,-0.35,7.30,7.30,7.29
87.22,7.59,0.32,7.59,0.32,-0.32,-0.12,-0.31,7.26,7.26,7.26
88.09,7.51,0.27,7.51,0.28,-0.28,-0.08,-0.27,7.23,7.23,7.23
88.97,7.43,0.23,7.43,0.23,-0.24,-0.03,-0.22,7.19,7.19,7.20
89.86,7.36,0.19,7.36,0.19,-0.21,0.01,-0.18,7.16,7.16,7.17
90.76,7.30,0.16,7.30,0.16,-0.17,0.06,-0.14,7.13,7.13,7.14
91.66,7.24,0.14,7.24,0.13,-0.14,0.10,-0.10,7.10,7.10,7.10
92.58,7.18,0.11,7.18,0.11,-0.10,0.14,-0.06,7.08,7.07,7.07
93.51,7.11,0.08,7.11,0.08,-0.07,0.19,-0.01,7.05,7.05,7.04
94.44,7.05,0.04,7.05,0.04,-0.03,0.23,0.03,7.02,7.02,7.01
95.39,6.99,-0.00,6.99,-0.01,0.01,0.28,0.07,7.00,7.00,6.99
96.34,6.93,-0.05,6.93,-0.06,0.06,0.32,0.11,6.99,6.99,6.98
97.30,6.87,-0.11,6.87,-0.11,0.11,0.37,0.15,6.97,6.97,6.98
98.28,6.80,-0.17,6.80,-0.17,0.16,0.41,0.19,6.96,6.96,6.97
99.26,6.73,-0.23,6.73,-0.22,0.22,0.46,0.23,6.95,6.94,6.96
100.25,6.64,-0.28,6.64,-0.28,0.27,0.51,0.27,6.92,6.92,6.92
101.25,6.55,-0.32,6.55,-0.33,0.33,0.55,0.31,6.88,6.88,6.87
102.27,6.44,-0.38,6.44,-0.38,0.39,0.60,0.35,6.83,6.83,6.82
103.29,6.33,-0.45,6.33,-0.45,0.45,0.65,0.39,6.78,6.78,6.78
104.32,6.22,-0.51,6.22,-0.51,0.51,0.70,0.43,6.73,6.73,6.73
105.37,6.11,-0.58,6.11,-0.58,0.57,0.75,0.48,6.68,6.68,6.69
106.42,6.00,-0.64,6.00,-0.64,0.64,0.79,0.52,6.64,6.64,6.64
107.48,5.89,-0.71,5.89,-0.71,0.71,0.84,0.56,6.60,6.60,6.60
108.56,5.78,-0.78,5.78,-0.78,0.78,0.89,0.60,6.56,6.56,6.56
109.64,5.68,-0.85,5.68,-0.85,0.86,0.94,0.64,6.53,6.53,6.53
110.74,5.57,-0.93,5.57,-0.93,0.93,1.00,0.68,6.50,6.50,6.50
111.85,5.47,-1.00,5.47,-1.00,1.00,1.05,0.72,6.47,6.47,6.47
112.97,5.37,-1.08,5.37,-1.08,1.07,1.10,0.76,6.44,6.44,6.45
114.10,5.28,-1.15,5.28,-1.15,1.14,1.15,0.80,6.41,6.42,6.42
115.24,5.18,-1.21,5.18,-1.21,1.21,1.21,0.85,6.39,6.39,6.39
116.39,5.09,-1.27,5.09,-1.27,1.27,1.26,0.89,6.36,6.36,6.36
117.55,4.99,-1.33,4.99,-1.34,1.34,1.32,0.93,6.33,6.33,6.33
118.73,4.89,-1.40,4.89,-1.40,1.40,1.37,0.97,6.29,6.29,6.29
119.92,4.79,-1.46,4.79,-1.46,1.46,1.43,1.01,6.25,6.25,6.25
121.12,4.68,-1.53,4.68,-1.53,1.52,1.49,1.06,6.21,6.21,6.21
122.33,4.58,-1.59,4.58,-1.59,1.58,1.55,1.10,6.16,6.16,6.17
123.55,4.47,-1.65,4.47,-1.65,1.64,1.61,1.14,6.12,6.12,6.12
124.79,4.36,-1.71,4.36,-1.71,1.70,1.67,1.19,6.07,6.07,6.07
126.03,4.26,-1.76,4.26,-1.76,1.76,1.73,1.23,6.02,6.02,6.02
127.29,4.15,-1.82,4.15,-1.82,1.82,1.79,1.28,5.97,5.97,5.97
128.57,4.04,-1.88,4.04,-1.88,1.87,1.86,1.32,5.91,5.91,5.91
129.85,3.93,-1.93,3.93,-1.93,1.93,1.93,1.37,5.86,5.86,5.86
131.15,3.82,-1.99,3.82,-1.99,1.99,1.99,1.42,5.81,5.81,5.81
132.46,3.70,-2.06,3.70,-2.05,2.05,2.06,1.46,5.75,5.75,5.76
133.79,3.58,-2.12,3.58,-2.12,2.12,2.13,1.51,5.70,5.70,5.70
135.12,3.46,-2.19,3.46,-2.19,2.19,2.20,1.56,5.66,5.66,5.66
136.48,3.34,-2.27,3.35,-2.27,2.27,2.27,1.61,5.62,5.62,5.61
137.84,3.23,-2.35,3.23,-2.35,2.36,2.34,1.66,5.59,5.59,5.58
139.22,3.12,-2.44,3.12,-2.44,2.45,2.42,1.71,5.57,5.57,5.55
140.61,3.00,-2.54,3.00,-2.54,2.55,2.49,1.76,5.55,5.55,5.54
142.02,2.89,-2.65,2.89,-2.65,2.65,2.57,1.82,5.54,5.54,5.54
143.44,2.78,-2.76,2.78,-2.76,2.75,2.65,1.87,5.54,5.54,5.54
144.87,2.67,-2.87,2.67,-2.86,2.86,2.72,1.93,5.53,5.53,5.54
146.32,2.56,-2.97,2.56,-2.97,2.96,2.80,1.99,5.52,5.52,5.53
147.78,2.45,-3.06,2.45,-3.06,3.05,2.88,2.05,5.50,5.51,5.52
149.26,2.35,-3.15,2.35,-3.15,3.14,2.96,2.11,5.49,5.49,5.49
150.75,2.24,-3.22,2.24,-3.22,3.22,3.04,2.17,5.46,5.46,5.46
152.26,2.14,-3.29,2.14,-3.29,3.29,3.12,2.24,5.43,5.43,5.43
153.78,2.03,-3.36,2.03,-3.36,3.36,3.19,2.30,5.39,5.39,5.39
155.32,1.92,-3.42,1.92,-3.42,3.42,3.27,2.37,5.34,5.34,5.34
156.88,1.81,-3.48,1.81,-3.48,3.48,3.35,2.44,5.29,5.29,5.29
158.44,1.70,-3.53,1.70,-3.53,3.53,3.42,2.51,5.24,5.24,5.24
160.03,1.59,-3.59,1.60,-3.59,3.59,3.49,2.59,5.18,5.18,5.18
161.63,1.49,-3.64,1.49,-3.64,3.64,3.56,2.67,5.13,5.13,5.13
163.24,1.38,-3.69,1.38,-3.69,3.69,3.63,2.74,5.07,5.07,5.07
164.88,1.28,-3.74,1.28,-3.74,3.74,3.69,2.82,5.02,5.02,5.02
166.53,1.18,-3.79,1.18,-3.79,3.79,3.75,2.91,4.96,4.96,4.96
168.19,1.08,-3.83,1.08,-3.83,3.83,3.81,2.99,4.91,4.91,4.91
169.87,0.98,-3.88,0.98,-3.88,3.88,3.86,3.08,4.86,4.86,4.86
171.57,0.88,-3.93,0.88,-3.93,3.93,3.92,3.17,4.80,4.80,4.80
173.29,0.78,-3.97,0.78,-3.97,3.97,3.97,3.27,4.75,4.75,4.75
175.02,0.68,-4.02,0.68,-4.02,4.02,4.01,3.36,4.70,4.70,4.70
176.77,0.58,-4.06,0.58,-4.06,4.06,4.06,3.46,4.64,4.64,4.64
178.54,0.48,-4.10,0.48,-4.10,4.11,4.10,3.56,4.59,4.59,4.59
180.32,0.38,-4.15,0.38,-4.15,4.15,4.14,3.67,4.53,4.53,4.53
182.13,0.28,-4.19,0.28,-4.19,4.20,4.18,3.77,4.48,4.48,4.48
183.95,0.19,-4.24,0.19,-4.24,4.24,4.22,3.88,4.43,4.43,4.43
185.79,0.09,-4.29,0.09,-4.29,4.29,4.25,3.99,4.38,4.38,4.38
187.65,-0.01,-4.33,-0.01,-4.33,4.33,4.29,4.11,4.33,4.33,4.33
189.52,-0.10,-4.38,-0.10,-4.38,4.38,4.33,4.23,4.28,4.28,4.28
191.42,-0.19,-4.42,-0.19,-4.42,4.42,4.36,4.34,4.23,4.23,4.23
193.33,-0.28,-4.46,-0.28,-4.46,4.46,4.40,4.47,4.19,4.19,4.18
195.27,-0.37,-4.50,-0.37,-4.51,4.51,4.43,4.59,4.14,4.14,4.14
197.22,-0.45,-4.55,-0.45,-4.55,4.55,4.46,4.71,4.09,4.09,4.10
199.19,-0.54,-4.59,-0.54,-4.59,4.58,4.50,4.84,4.05,4.05,4.05
201.18,-0.62,-4.62,-0.63,-4.62,4.62,4.53,4.97,4.00,4.00,4.00
203.19,-0.71,-4.66,-0.71,-4.66,4.66,4.57,5.10,3.94,3.94,3.94
205.23,-0.80,-4.69,-0.80,-4.69,4.69,4.60,5.23,3.89,3.89,3.89
207.28,-0.89,-4.72,-0.89,-4.72,4.72,4.64,5.36,3.84,3.84,3.84
209.35,-0.97,-4.75,-0.97,-4.76,4.76,4.67,5.49,3.79,3.79,3.78
211.44,-1.05,-4.79,-1.05,-4.79,4.79,4.71,5.62,3.73,3.73,3.73
213.56,-1.14,-4.82,-1.14,-4.82,4.82,4.74,5.74,3.68,3.68,3.68
215.69,-1.21,-4.85,-1.21,-4.85,4.84,4.77,5.87,3.63,3.63,3.63
217.85,-1.29,-4.87,-1.29,-4.87,4.87,4.81,5.99,3.58,3.58,3.58
220.03,-1.37,-4.90,-1.37,-4.90,4.90,4.84,6.11,3.53,3.53,3.53
222.23,-1.44,-4.92,-1.44,-4.92,4.92,4.87,6.23,3.48,3.48,3.48
224.45,-1.51,-4.94,-1.51,-4.94,4.94,4.90,6.34,3.43,3.43,3.43
226.70,-1.58,-4.96,-1.58,-4.96,4.96,4.93,6.44,3.38,3.38,3.38
228.96,-1.65,-4.98,-1.65,-4.98,4.98,4.96,6.54,3.33,3.33,3.33
231.25,-1.72,-5.00,-1.72,-5.00,5.00,4.99,6.63,3.28,3.28,3.28
233.57,-1.79,-5.01,-1.79,-5.01,5.01,5.02,6.71,3.23,3.23,3.23
235.90,-1.85,-5.03,-1.85,-5.03,5.03,5.04,6.78,3.18,3.18,3.18
238.26,-1.92,-5.04,-1.92,-5.04,5.04,5.07,6.85,3.13,3.13,3.12
240.64,-1.98,-5.06,-1.98,-5.06,5.06,5.09,6.90,3.07,3.07,3.07
243.05,-2.05,-5.07,-2.05,-5.07,5.07,5.11,6.94,3.02,3.02,3.02
245.48,-2.11,-5.08,-2.11,-5.08,5.08,5.13,6.97,2.97,2.97,2.97
247.93,-2.18,-5.09,-2.18,-5.10,5.10,5.15,6.99,2.92,2.92,2.92
250.41,-2.24,-5.11,-2.24,-5.11,5.11,5.16,6.99,2.87,2.87,2.87
252.92,-2.30,-5.12,-2.30,-5.12,5.11,5.18,6.98,2.81,2.81,2.82
255.45,-2.36,-5.12,-2.36,-5.12,5.12,5.19,6.96,2.76,2.76,2.77
258.00,-2.41,-5.13,-2.41,-5.13,5.13,5.20,6.93,2.71,2.71,2.71
260.58,-2.47,-5.13,-2.47,-5.13,5.13,5.20,6.88,2.66,2.66,2.66
263.19,-2.52,-5.13,-2.52,-5.13,5.13,5.21,6.83,2.61,2.61,2.61
265.82,-2.57,-5.13,-2.57,-5.13,5.13,5.21,6.76,2.56,2.56,2.56
268.48,-2.62,-5.13,-2.62,-5.13,5.13,5.21,6.69,2.51,2.51,2.50
271.16,-2.68,-5.13,-2.68,-5.13,5.13,5.21,6.60,2.45,2.45,2.45
273.87,-2.73,-5.13,-2.73,-5.13,5.12,5.21,6.51,2.40,2.40,2.40
276.61,-2.78,-5.12,-2.77,-5.12,5.12,5.20,6.41,2.34,2.34,2.35
279.38,-2.82,-5.11,-2.82,-5.11,5.11,5.20,6.31,2.29,2.29,2.29
282.17,-2.86,-5.10,-2.86,-5.10,5.10,5.19,6.19,2.24,2.24,2.24
284.99,-2.90,-5.09,-2.90,-5.09,5.09,5.17,6.08,2.19,2.19,2.19
287.84,-2.94,-5.08,-2.94,-5.08,5.08,5.16,5.96,2.13,2.13,2.13
290.72,-2.98,-5.06,-2.98,-5.06,5.06,5.15,5.83,2.08,2.08,2.08
293.63,-3.02,-5.05,-3.02,-5.05,5.04,5.13,5.71,2.02,2.03,2.03
296.57,-3.06,-5.03,-3.06,-5.03,5.03,5.11,5.58,1.97,1.97,1.97
299.53,-3.09,-5.01,-3.09,-5.01,5.01,5.09,5.45,1.92,1.92,1.92
302.53,-3.12,-4.99,-3.12,-4.99,4.99,5.07,5.32,1.86,1.86,1.87
305.55,-3.16,-4.97,-3.16,-4.97,4.97,5.05,5.19,1.81,1.81,1.81
308.61,-3.18,-4.95,-3.18,-4.95,4.95,5.02,5.06,1.76,1.76,1.76
311.69,-3.21,-4.93,-3.21,-4.93,4.93,5.00,4.94,1.72,1.72,1.72
314.81,-3.24,-4.91,-3.24,-4.91,4.92,4.97,4.81,1.68,1.68,1.68
317.96,-3.26,-4.90,-3.26,-4.90,4.91,4.94,4.68,1.65,1.65,1.65
321.14,-3.28,-4.90,-3.28,-4.90,4.91,4.92,4.56,1.63,1.63,1.62
324.35,-3.30,-4.90,-3.29,-4.90,4.91,4.89,4.44,1.61,1.61,1.60
327.59,-3.31,-4.90,-3.31,-4.90,4.90,4.86,4.32,1.59,1.59,1.59
330.87,-3.32,-4.90,-3.32,-4.90,4.90,4.83,4.20,1.58,1.58,1.58
334.18,-3.34,-4.90,-3.34,-4.90,4.90,4.80,4.08,1.56,1.56,1.57
337.52,-3.35,-4.90,-3.35,-4.90,4.89,4.77,3.97,1.54,1.54,1.55
340.90,-3.36,-4.88,-3.36,-4.88,4.88,4.74,3.86,1.52,1.52,1.53
344.30,-3.37,-4.86,-3.37,-4.86,4.86,4.71,3.75,1.49,1.49,1.49
347.75,-3.37,-4.83,-3.37,-4.83,4.83,4.67,3.64,1.45,1.45,1.46
351.23,-3.38,-4.79,-3.38,-4.79,4.79,4.64,3.54,1.41,1.41,1.42
354.74,-3.38,-4.75,-3.38,-4.75,4.75,4.61,3.44,1.37,1.37,1.37
358.28,-3.38,-4.70,-3.38,-4.70,4.70,4.57,3.34,1.32,1.32,1.32
361.87,-3.37,-4.65,-3.37,-4.65,4.65,4.53,3.25,1.28,1.28,1.28
365.49,-3.36,-4.59,-3.36,-4.59,4.59,4.50,3.16,1.23,1.23,1.23
369.14,-3.35,-4.53,-3.35,-4.53,4.54,4.45,3.07,1.19,1.19,1.18
372.83,-3.33,-4.47,-3.33,-4.47,4.48,4.41,2.98,1.14,1.14,1.14
376.56,-3.32,-4.41,-3.32,-4.41,4.42,4.36,2.90,1.10,1.10,1.09
380.33,-3.30,-4.35,-3.30,-4.35,4.35,4.31,2.81,1.05,1.05,1.05
384.13,-3.29,-4.29,-3.29,-4.29,4.29,4.26,2.73,1.00,1.00,1.00
387.97,-3.27,-4.23,-3.27,-4.23,4.23,4.20,2.66,0.96,0.96,0.96
391.85,-3.25,-4.16,-3.25,-4.16,4.16,4.14,2.58,0.91,0.91,0.91
395.77,-3.23,-4.10,-3.23,-4.10,4.09,4.07,2.51,0.87,0.87,0.87
399.73,-3.20,-4.03,-3.20,-4.02,4.02,4.00,2.44,0.82,0.82,0.83
403.72,-3.17,-3.95,-3.17,-3.95,3.95,3.92,2.37,0.78,0.78,0.78
407.76,-3.13,-3.87,-3.13,-3.87,3.87,3.85,2.30,0.74,0.74,0.74
411.84,-3.10,-3.79,-3.10,-3.79,3.80,3.77,2.24,0.70,0.70,0.70
415.96,-3.06,-3.72,-3.06,-3.72,3.72,3.68,2.18,0.66,0.66,0.66
420.12,-3.02,-3.64,-3.03,-3.64,3.64,3.60,2.12,0.62,0.62,0.61
424.32,-2.99,-3.56,-2.99,-3.56,3.56,3.51,2.06,0.57,0.57,0.57
428.56,-2.95,-3.48,-2.95,-3.48,3.48,3.42,2.00,0.53,0.53,0.53
432.85,-2.91,-3.40,-2.91,-3.40,3.40,3.33,1.95,0.49,0.49,0.50
437.18,-2.86,-3.32,-2.86,-3.32,3.32,3.24,1.90,0.45,0.45,0.46
441.55,-2.81,-3.23,-2.81,-3.23,3.23,3.15,1.84,0.42,0.42,0.42
445.96,-2.76,-3.15,-2.76,-3.15,3.14,3.06,1.79,0.38,0.38,0.38
450.42,-2.71,-3.05,-2.71,-3.05,3.06,2.97,1.75,0.35,0.35,0.35
454.93,-2.65,-2.96,-2.65,-2.96,2.97,2.88,1.70,0.31,0.31,0.31
459.48,-2.60,-2.87,-2.60,-2.87,2.87,2.79,1.66,0.28,0.28,0.28
464.07,-2.54,-2.78,-2.54,-2.78,2.78,2.71,1.61,0.24,0.24,0.24
468.71,-2.48,-2.69,-2.48,-2.69,2.69,2.62,1.57,0.20,0.20,0.20
473.40,-2.43,-2.60,-2.43,-2.60,2.60,2.53,1.53,0.17,0.17,0.17
478.13,-2.37,-2.50,-2.37,-2.50,2.50,2.45,1.49,0.13,0.13,0.13
482.91,-2.31,-2.41,-2.31,-2.41,2.41,2.36,1.46,0.10,0.10,0.10
487.74,-2.25,-2.32,-2.25,-2.32,2.32,2.28,1.42,0.07,0.07,0.07
492.62,-2.19,-2.22,-2.19,-2.22,2.22,2.19,1.39,0.03,0.03,0.03
497.55,-2.13,-2.13,-2.13,-2.13,2.13,2.11,1.35,-0.00,-0.00,-0.00
502.52,-2.07,-2.03,-2.07,-2.03,2.03,2.02,1.32,-0.03,-0.03,-0.03
507.55,-2.00,-1.94,-2.00,-1.94,1.94,1.94,1.29,-0.07,-0.07,-0.06
512.62,-1.93,-1.84,-1.93,-1.84,1.84,1.85,1.26,-0.10,-0.10,-0.10
517.75,-1.87,-1.74,-1.87,-1.74,1.74,1.77,1.23,-0.12,-0.12,-0.13
522.93,-1.80,-1.65,-1.80,-1.65,1.65,1.69,1.21,-0.15,-0.15,-0.15
