frequency,raw,error,smoothed,error_smoothed,equalization,parametric_eq,fixed_band_eq,equalized_raw,equalized_smoothed,target
20.00,7.92,-3.81,7.90,-3.85,4.02,2.58,1.02,11.94,11.92,11.73
20.20,7.98,-3.75,8.00,-3.71,3.72,2.59,1.05,11.70,11.72,11.73
20.40,8.12,-3.58,8.15,-3.53,3.44,2.60,1.08,11.56,11.59,11.70
20.61,8.33,-3.31,8.34,-3.32,3.18,2.60,1.11,11.51,11.52,11.63
20.81,8.60,-3.03,8.59,-3.04,2.95,2.61,1.14,11.55,11.54,11.63
21.02,8.86,-2.77,8.86,-2.77,2.74,2.62,1.18,11.60,11.60,11.63
21.23,9.11,-2.52,9.10,-2.53,2.55,2.62,1.21,11.66,11.65,11.63
21.44,9.31,-2.33,9.30,-2.33,2.38,2.63,1.25,11.69,11.69,11.63
21.66,9.46,-2.18,9.46,-2.17,2.22,2.63,1.29,11.67,11.68,11.63
21.87,9.58,-2.05,9.58,-2.06,2.09,2.63,1.33,11.67,11.66,11.63
22.09,9.66,-1.98,9.66,-1.97,1.99,2.63,1.37,11.65,11.65,11.63
22.31,9.71,-1.92,9.71,-1.93,1.93,2.63,1.41,11.64,11.65,11.63
22.54,9.75,-1.90,9.75,-1.92,1.89,2.63,1.45,11.64,11.64,11.65
22.76,9.78,-1.94,9.78,-1.92,1.87,2.63,1.49,11.66,11.66,11.72
22.99,9.81,-1.93,9.81,-1.91,1.87,2.63,1.54,11.68,11.68,11.73
23.22,9.83,-1.90,9.83,-1.91,1.88,2.62,1.58,11.72,11.72,11.73
23.45,9.84,-1.89,9.85,-1.91,1.92,2.62,1.63,11.76,11.76,11.73
23.69,9.84,-1.96,9.84,-1.94,1.97,2.61,1.67,11.81,11.81,11.80
23.92,9.82,-2.02,9.81,-2.01,2.05,2.60,1.72,11.86,11.86,11.83
24.16,9.76,-2.08,9.75,-2.11,2.15,2.59,1.77,11.91,11.90,11.83
24.40,9.66,-2.25,9.65,-2.24,2.28,2.58,1.82,11.94,11.94,11.90
24.65,9.52,-2.41,9.52,-2.40,2.44,2.57,1.87,11.96,11.96,11.93
24.89,9.36,-2.58,9.35,-2.59,2.61,2.56,1.92,11.97,11.96,11.93
25.14,9.18,-2.76,9.17,-2.77,2.78,2.54,1.97,11.95,11.95,11.93
25.39,8.99,-2.94,9.00,-2.94,2.93,2.53,2.02,11.92,11.92,11.93
25.65,8.86,-3.08,8.85,-3.08,3.03,2.51,2.07,11.89,11.89,11.93
25.91,8.77,-3.17,8.77,-3.17,3.08,2.50,2.12,11.85,11.85,11.93
26.16,8.75,-3.18,8.77,-3.17,3.07,2.48,2.17,11.82,11.83,11.93
26.43,8.84,-3.10,8.85,-3.09,2.99,2.46,2.22,11.83,11.84,11.93
26.69,9.01,-2.93,9.00,-2.94,2.86,2.45,2.27,11.86,11.86,11.93
26.96,9.21,-2.73,9.21,-2.72,2.69,2.43,2.31,11.89,11.89,11.93
27.23,9.43,-2.50,9.43,-2.47,2.50,2.41,2.36,11.93,11.92,11.93
27.50,9.63,-2.20,9.63,-2.24,2.31,2.39,2.41,11.95,11.94,11.83
27.77,9.78,-2.05,9.78,-2.06,2.16,2.37,2.45,11.94,11.94,11.83
28.05,9.88,-1.95,9.87,-1.95,2.05,2.34,2.49,11.94,11.93,11.83
28.33,9.90,-1.94,9.90,-1.93,2.01,2.32,2.53,11.90,11.91,11.83
28.62,9.87,-1.97,9.87,-1.97,2.02,2.30,2.56,11.89,11.89,11.83
28.90,9.78,-2.05,9.78,-2.05,2.09,2.28,2.60,11.88,11.87,11.83
29.19,9.66,-2.17,9.66,-2.17,2.20,2.25,2.63,11.86,11.86,11.83
29.48,9.52,-2.32,9.52,-2.32,2.33,2.23,2.65,11.85,11.85,11.83
29.78,9.37,-2.47,9.37,-2.46,2.44,2.21,2.68,11.81,11.81,11.83
30.08,9.23,-2.59,9.23,-2.58,2.51,2.18,2.69,11.75,11.74,11.82
30.38,9.13,-2.63,9.14,-2.63,2.52,2.16,2.71,11.66,11.66,11.76
30.68,9.11,-2.62,9.13,-2.62,2.47,2.13,2.72,11.58,11.60,11.73
30.99,9.22,-2.52,9.22,-2.51,2.35,2.11,2.73,11.56,11.57,11.73
31.30,9.40,-2.33,9.41,-2.30,2.19,2.08,2.73,11.59,11.60,11.73
31.61,9.65,-2.04,9.65,-2.03,2.02,2.06,2.72,11.67,11.67,11.68
31.93,9.91,-1.73,9.89,-1.76,1.87,2.03,2.72,11.78,11.76,11.63
32.24,10.07,-1.56,10.07,-1.56,1.77,2.00,2.71,11.84,11.84,11.63
32.57,10.16,-1.47,10.13,-1.50,1.73,1.98,2.69,11.89,11.86,11.63
32.89,10.08,-1.55,10.07,-1.57,1.74,1.95,2.67,11.82,11.81,11.63
33.22,9.89,-1.74,9.89,-1.75,1.81,1.93,2.65,11.71,11.70,11.63
33.55,9.65,-1.98,9.65,-1.98,1.92,1.90,2.62,11.57,11.57,11.63
33.89,9.42,-2.22,9.44,-2.20,2.04,1.88,2.59,11.46,11.48,11.63
34.23,9.30,-2.34,9.31,-2.33,2.16,1.85,2.56,11.45,11.46,11.63
34.57,9.26,-2.38,9.28,-2.36,2.24,1.82,2.52,11.50,11.52,11.63
34.92,9.34,-2.30,9.33,-2.30,2.27,1.80,2.48,11.61,11.60,11.63
35.27,9.43,-2.20,9.42,-2.22,2.25,1.77,2.44,11.68,11.67,11.63
35.62,9.52,-2.11,9.51,-2.13,2.18,1.75,2.40,11.70,11.68,11.63
35.97,9.58,-2.05,9.59,-2.05,2.06,1.72,2.36,11.65,11.65,11.63
36.33,9.66,-1.97,9.67,-1.96,1.94,1.70,2.31,11.60,11.61,11.63
36.70,9.77,-1.86,9.78,-1.85,1.82,1.68,2.26,11.59,11.60,11.63
37.06,9.92,-1.72,9.92,-1.71,1.71,1.65,2.21,11.63,11.63,11.63
37.43,10.08,-1.55,10.07,-1.56,1.61,1.63,2.16,11.70,11.69,11.63
37.81,10.20,-1.43,10.20,-1.45,1.53,1.60,2.11,11.73,11.73,11.63
38.19,10.31,-1.39,10.29,-1.40,1.45,1.58,2.06,11.75,11.74,11.69
38.57,10.33,-1.41,10.33,-1.39,1.37,1.56,2.01,11.70,11.70,11.73
38.95,10.34,-1.39,10.35,-1.37,1.31,1.53,1.96,11.65,11.65,11.73
39.34,10.35,-1.32,10.35,-1.34,1.26,1.51,1.91,11.60,11.61,11.67
39.74,10.37,-1.27,10.37,-1.27,1.23,1.49,1.86,11.60,11.61,11.63
40.14,10.39,-1.24,10.39,-1.21,1.23,1.47,1.82,11.62,11.62,11.63
40.54,10.40,-1.16,10.39,-1.18,1.25,1.45,1.77,11.65,11.64,11.56
40.94,10.35,-1.18,10.35,-1.20,1.30,1.42,1.72,11.65,11.65,11.53
41.35,10.26,-1.28,10.25,-1.28,1.37,1.40,1.67,11.63,11.62,11.53
41.76,10.12,-1.42,10.11,-1.42,1.46,1.38,1.63,11.58,11.58,11.53
42.18,9.96,-1.58,9.96,-1.58,1.56,1.36,1.58,11.52,11.52,11.53
42.60,9.81,-1.73,9.81,-1.72,1.66,1.34,1.54,11.47,11.47,11.53
43.03,9.70,-1.83,9.71,-1.83,1.73,1.32,1.49,11.43,11.44,11.53
43.46,9.66,-1.88,9.66,-1.87,1.78,1.31,1.45,11.43,11.43,11.53
43.90,9.65,-1.85,9.65,-1.84,1.78,1.29,1.41,11.43,11.43,11.51
44.33,9.68,-1.76,9.68,-1.76,1.74,1.27,1.37,11.42,11.42,11.44
44.78,9.73,-1.64,9.73,-1.66,1.67,1.25,1.33,11.40,11.40,11.37
45.23,9.79,-1.55,9.79,-1.56,1.58,1.23,1.29,11.37,11.37,11.33
45.68,9.85,-1.49,9.85,-1.45,1.48,1.22,1.25,11.33,11.33,11.33
46.13,9.91,-1.35,9.91,-1.36,1.40,1.20,1.22,11.31,11.30,11.26
46.60,9.96,-1.27,9.96,-1.29,1.32,1.18,1.18,11.29,11.29,11.23
47.06,10.00,-1.24,10.00,-1.23,1.27,1.17,1.15,11.27,11.27,11.23
47.53,10.02,-1.21,10.02,-1.21,1.24,1.15,1.11,11.26,11.26,11.23
48.01,10.02,-1.21,10.02,-1.22,1.22,1.14,1.08,11.24,11.24,11.23
48.49,10.01,-1.23,10.01,-1.23,1.21,1.12,1.05,11.22,11.22,11.23
48.97,9.99,-1.25,9.99,-1.23,1.20,1.11,1.02,11.19,11.19,11.23
49.46,9.96,-1.22,9.97,-1.22,1.20,1.10,0.99,11.16,11.16,11.18
49.96,9.95,-1.18,9.95,-1.20,1.19,1.08,0.97,11.14,11.14,11.13
50.46,9.94,-1.19,9.94,-1.17,1.18,1.07,0.94,11.12,11.12,11.13
50.96,9.94,-1.14,9.94,-1.14,1.15,1.06,0.91,11.10,11.09,11.08
51.47,9.94,-1.10,9.94,-1.12,1.12,1.05,0.89,11.06,11.06,11.03
51.99,9.93,-1.10,9.93,-1.08,1.08,1.04,0.87,11.01,11.01,11.03
52.51,9.92,-1.05,9.92,-1.05,1.02,1.03,0.84,10.94,10.94,10.97
53.03,9.91,-0.99,9.92,-0.99,0.96,1.02,0.82,10.88,10.88,10.90
53.56,9.91,-0.92,9.91,-0.92,0.90,1.01,0.80,10.82,10.82,10.83
54.10,9.91,-0.85,9.91,-0.84,0.85,1.00,0.78,10.76,10.76,10.76
54.64,9.92,-0.77,9.92,-0.77,0.79,0.99,0.77,10.71,10.71,10.69
55.18,9.92,-0.70,9.92,-0.70,0.74,0.98,0.75,10.66,10.66,10.62
55.74,9.91,-0.64,9.91,-0.66,0.69,0.97,0.74,10.61,10.60,10.55
56.29,9.89,-0.65,9.89,-0.65,0.66,0.97,0.72,10.55,10.55,10.53
56.86,9.86,-0.66,9.86,-0.64,0.63,0.96,0.71,10.49,10.49,10.51
57.42,9.82,-0.63,9.82,-0.63,0.61,0.95,0.70,10.42,10.42,10.44
58.00,9.77,-0.61,9.77,-0.61,0.59,0.95,0.69,10.36,10.36,10.38
58.58,9.72,-0.59,9.72,-0.59,0.57,0.94,0.68,10.29,10.29,10.31
59.16,9.67,-0.56,9.67,-0.57,0.56,0.94,0.68,10.23,10.23,10.24
59.76,9.62,-0.55,9.63,-0.54,0.55,0.94,0.67,10.17,10.17,10.17
60.35,9.58,-0.53,9.58,-0.52,0.54,0.93,0.67,10.12,10.12,10.11
60.96,9.54,-0.50,9.54,-0.52,0.55,0.93,0.67,10.09,10.09,10.04
61.57,9.50,-0.53,9.50,-0.53,0.56,0.93,0.67,10.06,10.06,10.03
62.18,9.46,-0.57,9.46,-0.57,0.58,0.93,0.67,10.04,10.04,10.03
62.80,9.42,-0.62,9.42,-0.62,0.60,0.93,0.67,10.02,10.02,10.03
63.43,9.38,-0.65,9.38,-0.65,0.63,0.93,0.67,10.01,10.01,10.03
64.07,9.35,-0.69,9.35,-0.68,0.65,0.93,0.68,10.00,10.00,10.03
64.71,9.34,-0.70,9.34,-0.70,0.68,0.93,0.69,10.01,10.02,10.03
65.35,9.33,-0.70,9.33,-0.70,0.70,0.93,0.70,10.03,10.04,10.03
66.01,9.33,-0.71,9.33,-0.71,0.73,0.94,0.71,10.06,10.05,10.03
66.67,9.31,-0.72,9.31,-0.72,0.75,0.94,0.72,10.07,10.06,10.03
67.33,9.28,-0.75,9.28,-0.75,0.78,0.94,0.73,10.06,10.06,10.03
68.01,9.24,-0.79,9.24,-0.80,0.80,0.95,0.75,10.04,10.04,10.03
68.69,9.19,-0.85,9.19,-0.85,0.83,0.96,0.76,10.01,10.01,10.03
69.37,9.13,-0.91,9.13,-0.89,0.86,0.96,0.78,9.99,9.99,10.03
70.07,9.06,-0.90,9.07,-0.90,0.89,0.97,0.80,9.96,9.96,9.97
70.77,9.00,-0.90,9.00,-0.91,0.93,0.98,0.82,9.93,9.93,9.90
71.48,8.93,-0.90,8.93,-0.93,0.96,0.99,0.84,9.89,9.89,9.84
72.19,8.86,-0.97,8.86,-0.96,0.98,1.00,0.87,9.84,9.83,9.83
72.91,8.78,-1.01,8.78,-1.00,0.99,1.02,0.89,9.77,9.77,9.79
73.64,8.71,-1.01,8.71,-1.02,0.99,1.03,0.92,9.69,9.70,9.72
74.38,8.64,-1.01,8.65,-1.01,0.98,1.05,0.95,9.63,9.63,9.65
75.12,8.59,-0.99,8.60,-0.99,0.97,1.06,0.97,9.57,9.57,9.59
75.87,8.56,-0.96,8.56,-0.96,0.96,1.08,1.01,9.52,9.52,9.52
76.63,8.52,-0.93,8.52,-0.93,0.94,1.10,1.04,9.46,9.46,9.45
77.40,8.49,-0.89,8.49,-0.89,0.91,1.12,1.07,9.40,9.40,9.38
78.17,8.44,-0.87,8.44,-0.87,0.89,1.14,1.10,9.33,9.33,9.31
78.95,8.38,-0.86,8.38,-0.86,0.87,1.16,1.14,9.25,9.25,9.25
79.74,8.31,-0.86,8.31,-0.86,0.86,1.19,1.17,9.17,9.17,9.18
80.54,8.23,-0.87,8.24,-0.87,0.86,1.22,1.21,9.10,9.10,9.11
81.35,8.15,-0.89,8.15,-0.89,0.88,1.24,1.25,9.03,9.03,9.04
82.16,8.07,-0.91,8.07,-0.90,0.91,1.27,1.29,8.97,8.98,8.97
82.98,7.98,-0.93,7.98,-0.92,0.95,1.31,1.33,8.93,8.93,8.90
83.81,7.89,-0.95,7.89,-0.97,1.00,1.34,1.38,8.89,8.89,8.83
84.65,7.79,-1.05,7.79,-1.05,1.06,1.37,1.42,8.85,8.85,8.83
85.50,7.68,-1.15,7.68,-1.14,1.12,1.41,1.47,8.81,8.81,8.83
86.35,7.57,-1.25,7.57,-1.23,1.19,1.45,1.51,8.76,8.76,8.82
87.22,7.46,-1.30,7.46,-1.30,1.26,1.50,1.56,8.72,8.72,8.76
88.09,7.34,-1.35,7.34,-1.35,1.34,1.54,1.61,8.68,8.68,8.69
88.97,7.22,-1.39,7.22,-1.39,1.42,1.59,1.66,8.64,8.64,8.61
89.86,7.10,-1.44,7.10,-1.46,1.50,1.64,1.72,8.60,8.60,8.55
90.76,6.98,-1.56,6.98,-1.56,1.58,1.69,1.77,8.56,8.56,8.53
91.66,6.85,-1.68,6.85,-1.68,1.66,1.75,1.82,8.52,8.52,8.53
92.58,6.73,-1.81,6.73,-1.79,1.75,1.80,1.88,8.48,8.48,8.53
93.51,6.60,-1.88,6.60,-1.87,1.85,1.86,1.94,8.44,8.44,8.47
94.44,6.46,-1.94,6.46,-1.95,1.95,1.93,1.99,8.42,8.42,8.40
95.39,6.32,-2.01,6.32,-2.04,2.06,1.99,2.05,8.39,8.39,8.34
96.34,6.18,-2.16,6.17,-2.14,2.17,2.06,2.11,8.35,8.35,8.33
97.30,6.02,-2.28,6.02,-2.27,2.29,2.14,2.17,8.30,8.30,8.30
98.28,5.85,-2.38,5.85,-2.41,2.40,2.21,2.24,8.25,8.25,8.23
99.26,5.68,-2.55,5.69,-2.53,2.52,2.29,2.30,8.21,8.21,8.23
100.25,5.52,-2.66,5.52,-2.65,2.64,2.37,2.36,8.17,8.17,8.19
101.25,5.37,-2.75,5.37,-2.76,2.76,2.45,2.42,8.13,8.13,8.12
102.27,5.22,-2.85,5.22,-2.86,2.86,2.54,2.48,8.09,8.09,8.07
103.29,5.08,-2.95,5.08,-2.96,2.95,2.62,2.55,8.03,8.03,8.03
104.32,4.95,-3.07,4.95,-3.06,3.02,2.71,2.61,7.97,7.97,8.02
105.37,4.82,-3.15,4.82,-3.12,3.08,2.80,2.67,7.90,7.90,7.97
106.42,4.69,-3.16,4.69,-3.16,3.14,2.89,2.73,7.83,7.83,7.85
107.48,4.56,-3.15,4.56,-3.18,3.19,2.98,2.78,7.76,7.76,7.71
108.56,4.44,-3.22,4.44,-3.20,3.25,3.07,2.84,7.69,7.69,7.66
109.64,4.32,-3.25,4.32,-3.27,3.31,3.17,2.89,7.63,7.63,7.57
110.74,4.19,-3.34,4.19,-3.35,3.38,3.25,2.94,7.57,7.57,7.53
111.85,4.07,-3.46,4.07,-3.43,3.44,3.34,2.99,7.52,7.52,7.53
112.97,3.95,-3.49,3.95,-3.52,3.51,3.42,3.03,7.46,7.46,7.44
114.10,3.83,-3.60,3.83,-3.61,3.58,3.50,3.07,7.41,7.42,7.43
115.24,3.72,-3.70,3.73,-3.68,3.65,3.56,3.11,7.37,7.37,7.42
116.39,3.63,-3.73,3.63,-3.73,3.70,3.63,3.14,7.33,7.33,7.36
117.55,3.54,-3.74,3.55,-3.74,3.73,3.68,3.16,7.27,7.28,7.28
118.73,3.47,-3.73,3.47,-3.74,3.75,3.73,3.18,7.22,7.22,7.20
119.92,3.41,-3.73,3.40,-3.73,3.75,3.77,3.20,7.15,7.15,7.14
121.12,3.35,-3.73,3.35,-3.73,3.73,3.79,3.21,7.08,7.08,7.08
122.33,3.30,-3.72,3.30,-3.72,3.71,3.80,3.21,7.01,7.01,7.02
123.55,3.26,-3.70,3.26,-3.69,3.67,3.81,3.20,6.93,6.93,6.96
124.79,3.23,-3.63,3.23,-3.64,3.63,3.79,3.19,6.86,6.86,6.86
126.03,3.20,-3.58,3.20,-3.58,3.59,3.77,3.17,6.80,6.80,6.78
127.29,3.19,-3.53,3.19,-3.53,3.55,3.73,3.15,6.73,6.73,6.72
128.57,3.17,-3.48,3.17,-3.48,3.50,3.68,3.12,6.67,6.67,6.66
129.85,3.16,-3.43,3.16,-3.43,3.45,3.62,3.08,6.61,6.61,6.59
131.15,3.14,-3.38,3.14,-3.38,3.39,3.55,3.03,6.54,6.54,6.53
132.46,3.13,-3.33,3.13,-3.33,3.33,3.46,2.98,6.46,6.46,6.46
133.79,3.13,-3.27,3.13,-3.27,3.26,3.37,2.93,6.38,6.38,6.39
135.12,3.13,-3.20,3.13,-3.20,3.17,3.27,2.86,6.30,6.30,6.33
136.48,3.15,-3.11,3.15,-3.10,3.07,3.16,2.80,6.22,6.22,6.26
137.84,3.17,-2.98,3.17,-2.98,2.96,3.04,2.73,6.13,6.13,6.15
139.22,3.20,-2.82,3.20,-2.85,2.83,2.92,2.65,6.03,6.03,6.02
140.61,3.23,-2.72,3.23,-2.70,2.71,2.80,2.57,5.94,5.94,5.95
142.02,3.27,-2.57,3.27,-2.56,2.58,2.67,2.49,5.85,5.85,5.83
143.44,3.30,-2.41,3.30,-2.43,2.46,2.54,2.40,5.76,5.76,5.71
144.87,3.33,-2.31,3.33,-2.30,2.35,2.41,2.31,5.68,5.68,5.64
146.32,3.36,-2.21,3.36,-2.22,2.24,2.28,2.22,5.61,5.61,5.57
147.78,3.39,-2.14,3.39,-2.15,2.15,2.14,2.12,5.54,5.54,5.53
149.26,3.43,-2.10,3.43,-2.07,2.06,2.01,2.03,5.48,5.48,5.52
150.75,3.46,-1.99,3.46,-2.00,1.97,1.88,1.93,5.43,5.43,5.45
152.26,3.49,-1.90,3.49,-1.91,1.88,1.75,1.83,5.37,5.37,5.39
153.78,3.53,-1.81,3.53,-1.80,1.79,1.62,1.73,5.32,5.32,5.34
155.32,3.57,-1.70,3.57,-1.69,1.70,1.50,1.63,5.27,5.28,5.27
156.88,3.62,-1.57,3.62,-1.58,1.60,1.37,1.53,5.22,5.22,5.19
158.44,3.67,-1.46,3.67,-1.48,1.50,1.25,1.43,5.17,5.17,5.13
160.03,3.72,-1.41,3.72,-1.39,1.39,1.13,1.32,5.11,5.11,5.13
161.63,3.78,-1.30,3.78,-1.29,1.27,1.01,1.22,5.05,5.05,5.08
163.24,3.84,-1.18,3.84,-1.18,1.15,0.90,1.12,4.99,4.99,5.02
164.88,3.91,-1.03,3.91,-1.04,1.02,0.79,1.02,4.93,4.93,4.94
166.53,3.98,-0.91,3.98,-0.91,0.90,0.67,0.91,4.88,4.88,4.88
168.19,4.04,-0.78,4.04,-0.77,0.78,0.57,0.81,4.82,4.82,4.82
169.87,4.11,-0.63,4.11,-0.63,0.66,0.46,0.71,4.77,4.76,4.74
171.57,4.17,-0.49,4.17,-0.50,0.54,0.36,0.61,4.71,4.71,4.66
173.29,4.23,-0.40,4.23,-0.41,0.43,0.26,0.51,4.67,4.67,4.63
175.02,4.30,-0.34,4.30,-0.33,0.34,0.16,0.41,4.63,4.63,4.63
176.77,4.36,-0.27,4.36,-0.25,0.24,0.06,0.31,4.60,4.60,4.63
178.54,4.42,-0.16,4.42,-0.17,0.15,-0.04,0.20,4.57,4.57,4.58
180.32,4.48,-0.05,4.48,-0.08,0.06,-0.13,0.10,4.54,4.54,4.53
182.13,4.54,0.00,4.54,0.02,-0.03,-0.22,0.00,4.50,4.50,4.53
183.95,4.59,0.10,4.59,0.11,-0.13,-0.31,-0.10,4.46,4.46,4.49
185.79,4.64,0.23,4.64,0.22,-0.23,-0.40,-0.19,4.41,4.41,4.41
187.65,4.69,0.35,4.69,0.35,-0.33,-0.49,-0.29,4.36,4.36,4.35
189.52,4.75,0.46,4.75,0.46,-0.44,-0.58,-0.39,4.31,4.31,4.28
191.42,4.80,0.56,4.80,0.55,-0.54,-0.66,-0.49,4.26,4.26,4.23
193.33,4.85,0.62,4.85,0.64,-0.65,-0.75,-0.59,4.20,4.20,4.23
195.27,4.90,0.73,4.90,0.74,-0.76,-0.83,-0.69,4.15,4.15,4.17
197.22,4.95,0.86,4.95,0.85,-0.86,-0.91,-0.78,4.09,4.09,4.09
199.19,5.00,0.97,5.00,0.97,-0.97,-0.99,-0.88,4.03,4.03,4.03
201.18,5.04,1.08,5.04,1.08,-1.07,-1.07,-0.98,3.97,3.97,3.96
203.19,5.08,1.18,5.08,1.18,-1.17,-1.16,-1.07,3.90,3.90,3.89
205.23,5.11,1.29,5.11,1.29,-1.28,-1.23,-1.17,3.84,3.84,3.83
207.28,5.15,1.39,5.15,1.39,-1.38,-1.31,-1.26,3.76,3.76,3.76
209.35,5.18,1.49,5.18,1.48,-1.49,-1.39,-1.35,3.69,3.70,3.69
211.44,5.22,1.58,5.22,1.56,-1.59,-1.47,-1.45,3.63,3.63,3.63
213.56,5.25,1.62,5.25,1.66,-1.68,-1.55,-1.54,3.57,3.57,3.63
215.69,5.29,1.76,5.29,1.77,-1.78,-1.63,-1.63,3.51,3.51,3.52
217.85,5.32,1.91,5.32,1.89,-1.87,-1.71,-1.71,3.45,3.45,3.41
220.03,5.35,2.01,5.35,1.99,-1.96,-1.78,-1.80,3.39,3.39,3.33
222.23,5.37,2.04,5.38,2.05,-2.04,-1.86,-1.89,3.33,3.33,3.33
224.45,5.40,2.08,5.40,2.11,-2.12,-1.94,-1.97,3.28,3.28,3.32
226.70,5.43,2.19,5.43,2.19,-2.20,-2.02,-2.05,3.23,3.23,3.24
228.96,5.46,2.29,5.45,2.26,-2.26,-2.09,-2.13,3.19,3.19,3.17
231.25,5.48,2.34,5.48,2.34,-2.32,-2.17,-2.20,3.16,3.16,3.13
233.57,5.50,2.37,5.50,2.39,-2.37,-2.25,-2.28,3.13,3.13,3.13
235.90,5.52,2.45,5.52,2.44,-2.43,-2.33,-2.35,3.09,3.09,3.07
238.26,5.54,2.50,5.54,2.49,-2.50,-2.40,-2.42,3.04,3.04,3.03
240.64,5.56,2.54,5.56,2.55,-2.58,-2.48,-2.48,2.98,2.98,3.02
243.05,5.57,2.62,5.57,2.62,-2.66,-2.56,-2.54,2.92,2.92,2.96
245.48,5.59,2.70,5.59,2.71,-2.74,-2.64,-2.60,2.85,2.85,2.88
247.93,5.60,2.81,5.60,2.82,-2.83,-2.71,-2.66,2.77,2.77,2.79
250.41,5.61,2.95,5.61,2.93,-2.92,-2.79,-2.71,2.69,2.70,2.66
252.92,5.62,3.04,5.62,3.04,-3.01,-2.87,-2.76,2.62,2.62,2.59
255.45,5.63,3.11,5.63,3.13,-3.09,-2.95,-2.81,2.54,2.54,2.52
258.00,5.64,3.21,5.64,3.18,-3.16,-3.02,-2.85,2.48,2.48,2.43
260.58,5.65,3.22,5.65,3.23,-3.23,-3.10,-2.89,2.42,2.42,2.43
263.19,5.66,3.25,5.66,3.27,-3.28,-3.18,-2.93,2.37,2.37,2.40
265.82,5.66,3.32,5.66,3.32,-3.33,-3.25,-2.97,2.33,2.33,2.34
268.48,5.66,3.39,5.66,3.37,-3.38,-3.33,-3.00,2.29,2.29,2.27
271.16,5.66,3.43,5.66,3.42,-3.42,-3.40,-3.03,2.25,2.25,2.23
273.87,5.66,3.43,5.66,3.45,-3.46,-3.47,-3.06,2.21,2.21,2.23
276.61,5.66,3.49,5.66,3.50,-3.50,-3.54,-3.09,2.16,2.16,2.17
279.38,5.66,3.56,5.66,3.55,-3.55,-3.61,-3.12,2.11,2.11,2.10
282.17,5.65,3.62,5.66,3.60,-3.60,-3.68,-3.15,2.06,2.06,2.03
284.99,5.65,3.62,5.65,3.63,-3.65,-3.75,-3.17,2.01,2.01,2.03
287.84,5.65,3.66,5.65,3.67,-3.69,-3.81,-3.20,1.95,1.95,1.99
290.72,5.64,3.72,5.64,3.72,-3.74,-3.87,-3.22,1.90,1.90,1.92
293.63,5.63,3.79,5.63,3.79,-3.78,-3.92,-3.25,1.86,1.86,1.84
296.57,5.62,3.85,5.62,3.84,-3.81,-3.97,-3.28,1.81,1.81,1.77
299.53,5.61,3.88,5.61,3.87,-3.84,-4.02,-3.30,1.77,1.77,1.73
302.53,5.60,3.87,5.60,3.87,-3.87,-4.06,-3.33,1.73,1.73,1.73
305.55,5.59,3.85,5.59,3.87,-3.88,-4.09,-3.36,1.70,1.70,1.73
308.61,5.57,3.87,5.57,3.88,-3.89,-4.11,-3.40,1.68,1.69,1.70
311.69,5.56,3.92,5.56,3.90,-3.89,-4.13,-3.43,1.67,1.67,1.64
314.81,5.54,3.91,5.54,3.91,-3.88,-4.13,-3.46,1.66,1.66,1.63
317.96,5.52,3.89,5.52,3.89,-3.89,-4.13,-3.50,1.64,1.64,1.63
321.14,5.50,3.87,5.50,3.87,-3.90,-4.11,-3.54,1.60,1.60,1.63
324.35,5.48,3.85,5.48,3.86,-3.92,-4.07,-3.58,1.56,1.56,1.63
327.59,5.46,3.88,5.46,3.89,-3.94,-4.02,-3.63,1.52,1.52,1.58
330.87,5.44,3.92,5.44,3.92,-3.96,-3.96,-3.67,1.49,1.49,1.52
334.18,5.42,3.97,5.42,3.96,-3.95,-3.87,-3.72,1.47,1.47,1.45
337.52,5.40,3.96,5.40,3.96,-3.92,-3.77,-3.78,1.48,1.48,1.43
340.90,5.38,3.92,5.38,3.92,-3.85,-3.66,-3.83,1.53,1.53,1.45
344.30,5.35,3.83,5.35,3.83,-3.71,-3.53,-3.89,1.64,1.64,1.52
347.75,5.33,3.68,5.33,3.68,-3.53,-3.40,-3.95,1.80,1.80,1.64
351.23,5.30,3.47,5.30,3.45,-3.34,-3.26,-4.02,1.97,1.97,1.83
354.74,5.28,3.17,5.28,3.17,-3.16,-3.14,-4.08,2.12,2.12,2.11
358.28,5.25,2.86,5.26,2.85,-3.01,-3.05,-4.16,2.24,2.24,2.40
361.87,5.23,2.58,5.23,2.57,-2.92,-2.99,-4.23,2.31,2.31,2.65
365.49,5.20,2.38,5.20,2.41,-2.89,-2.98,-4.31,2.31,2.31,2.83
369.14,5.17,2.41,5.17,2.44,-2.94,-3.03,-4.39,2.23,2.23,2.77
372.83,5.14,2.63,5.14,2.65,-3.08,-3.15,-4.47,2.06,2.06,2.51
376.56,5.11,3.04,5.11,3.02,-3.29,-3.31,-4.56,1.82,1.82,2.07
380.33,5.07,3.45,5.07,3.42,-3.57,-3.52,-4.65,1.51,1.51,1.63
384.13,5.04,3.82,5.04,3.81,-3.88,-3.76,-4.74,1.16,1.16,1.22
387.97,5.01,4.16,5.01,4.15,-4.20,-4.03,-4.84,0.81,0.81,0.85
391.85,4.97,4.45,4.98,4.45,-4.49,-4.29,-4.93,0.49,0.49,0.53
395.77,4.94,4.73,4.94,4.75,-4.72,-4.56,-5.03,0.22,0.22,0.21
399.73,4.91,4.99,4.91,5.00,-4.90,-4.81,-5.14,0.01,0.01,-0.08
403.72,4.87,5.22,4.87,5.18,-5.03,-5.05,-5.24,-0.16,-0.16,-0.35
407.76,4.84,5.27,4.84,5.27,-5.11,-5.26,-5.34,-0.27,-0.27,-0.43
411.84,4.80,5.27,4.80,5.27,-5.16,-5.46,-5.45,-0.36,-0.36,-0.47
415.96,4.76,5.23,4.76,5.23,-5.21,-5.64,-5.56,-0.45,-0.45,-0.47
420.12,4.73,5.19,4.73,5.18,-5.28,-5.80,-5.66,-0.56,-0.56,-0.47
424.32,4.69,5.19,4.69,5.19,-5.40,-5.93,-5.77,-0.71,-0.71,-0.50
428.56,4.65,5.26,4.65,5.32,-5.57,-6.05,-5.87,-0.92,-0.92,-0.61
432.85,4.61,5.58,4.61,5.59,-5.79,-6.16,-5.98,-1.19,-1.19,-0.97
437.18,4.56,5.99,4.56,6.00,-6.06,-6.25,-6.08,-1.50,-1.49,-1.43
441.55,4.52,6.45,4.52,6.44,-6.35,-6.32,-6.18,-1.82,-1.82,-1.92
445.96,4.48,6.85,4.48,6.80,-6.63,-6.38,-6.27,-2.14,-2.14,-2.36
450.42,4.44,7.06,4.44,7.06,-6.87,-6.43,-6.36,-2.43,-2.43,-2.61
454.93,4.40,7.18,4.40,7.19,-7.06,-6.47,-6.45,-2.65,-2.65,-2.78
459.48,4.36,7.22,4.36,7.22,-7.16,-6.50,-6.53,-2.80,-2.80,-2.86
464.07,4.32,7.18,4.32,7.19,-7.19,-6.52,-6.60,-2.87,-2.87,-2.87
468.71,4.27,7.11,4.27,7.11,-7.15,-6.53,-6.66,-2.87,-2.87,-2.84
473.40,4.23,7.00,4.23,7.01,-7.05,-6.53,-6.72,-2.82,-2.82,-2.77
478.13,4.18,6.89,4.18,6.89,-6.92,-6.53,-6.77,-2.74,-2.74,-2.71
482.91,4.14,6.77,4.13,6.78,-6.78,-6.52,-6.81,-2.65,-2.65,-2.64
487.74,4.09,6.66,4.09,6.66,-6.64,-6.50,-6.83,-2.56,-2.56,-2.57
492.62,4.04,6.54,4.04,6.51,-6.51,-6.48,-6.85,-2.48,-2.48,-2.50
497.55,3.98,6.38,3.98,6.37,-6.39,-6.46,-6.85,-2.41,-2.41,-2.39
502.52,3.93,6.20,3.93,6.24,-6.28,-6.43,-6.85,-2.35,-2.35,-2.27
507.55,3.88,6.14,3.88,6.14,-6.18,-6.39,-6.83,-2.31,-2.31,-2.27
512.62,3.82,6.09,3.82,6.08,-6.09,-6.36,-6.81,-2.27,-2.27,-2.27
517.75,3.77,6.03,3.77,6.03,-6.02,-6.32,-6.77,-2.25,-2.25,-2.27
522.93,3.71,5.98,3.71,5.98,-5.95,-6.27,-6.72,-2.24,-2.24,-2.27
