frequency,raw,error,smoothed,error_smoothed,equalization,parametric_eq,fixed_band_eq,equalized_raw,equalized_smoothed,target
20.00,1.91,-8.70,1.91,-8.70,6.00,6.11,2.12,7.91,7.91,10.60
20.20,1.98,-8.59,1.98,-8.59,6.00,6.12,2.19,7.98,7.98,10.58
20.40,2.06,-8.49,2.06,-8.49,6.00,6.12,2.25,8.06,8.06,10.55
20.61,2.13,-8.39,2.13,-8.39,6.00,6.11,2.32,8.13,8.13,10.53
20.81,2.21,-8.28,2.21,-8.28,6.00,6.09,2.39,8.21,8.21,10.49
21.02,2.28,-8.18,2.28,-8.18,6.00,6.06,2.46,8.28,8.28,10.46
21.23,2.36,-8.07,2.36,-8.07,6.00,6.01,2.53,8.36,8.36,10.43
21.44,2.43,-7.97,2.43,-7.97,6.00,5.95,2.61,8.43,8.43,10.40
21.66,2.50,-7.87,2.50,-7.87,6.00,5.89,2.68,8.50,8.50,10.37
21.87,2.57,-7.77,2.57,-7.77,6.00,5.84,2.77,8.57,8.57,10.34
22.09,2.64,-7.67,2.64,-7.67,6.00,5.79,2.85,8.64,8.64,10.31
22.31,2.71,-7.58,2.71,-7.58,6.00,5.79,2.93,8.71,8.71,10.29
22.54,2.77,-7.49,2.77,-7.49,6.00,5.79,3.02,8.77,8.77,10.26
22.76,2.84,-7.39,2.84,-7.39,6.00,5.83,3.11,8.84,8.84,10.23
22.99,2.91,-7.30,2.91,-7.30,6.00,5.88,3.20,8.91,8.91,10.21
23.22,2.97,-7.21,2.97,-7.21,6.00,5.94,3.29,8.97,8.97,10.18
23.45,3.04,-7.12,3.04,-7.12,6.00,6.01,3.39,9.04,9.04,10.15
23.69,3.10,-7.02,3.10,-7.02,6.00,6.06,3.48,9.10,9.10,10.12
23.92,3.16,-6.93,3.16,-6.93,6.00,6.11,3.58,9.16,9.16,10.09
24.16,3.23,-6.83,3.23,-6.83,6.00,6.14,3.68,9.23,9.23,10.06
24.40,3.29,-6.74,3.29,-6.74,6.00,6.16,3.78,9.29,9.29,10.03
24.65,3.35,-6.64,3.35,-6.64,6.00,6.16,3.89,9.36,9.36,9.99
24.89,3.42,-6.54,3.42,-6.54,6.01,6.15,3.99,9.43,9.43,9.96
25.14,3.48,-6.44,3.48,-6.44,6.02,6.12,4.10,9.50,9.50,9.92
25.39,3.54,-6.35,3.54,-6.35,6.02,6.09,4.20,9.56,9.56,9.89
25.65,3.61,-6.25,3.61,-6.25,6.01,6.04,4.31,9.62,9.62,9.86
25.91,3.67,-6.15,3.67,-6.15,5.99,5.99,4.41,9.66,9.66,9.82
26.16,3.73,-6.06,3.74,-6.06,5.96,5.92,4.52,9.69,9.69,9.79
26.43,3.80,-5.96,3.80,-5.96,5.91,5.85,4.62,9.71,9.71,9.76
26.69,3.86,-5.86,3.86,-5.86,5.84,5.76,4.73,9.70,9.70,9.72
26.96,3.93,-5.75,3.93,-5.75,5.76,5.68,4.83,9.69,9.69,9.68
27.23,3.99,-5.65,3.99,-5.65,5.67,5.59,4.92,9.66,9.66,9.65
27.50,4.06,-5.55,4.06,-5.55,5.57,5.50,5.02,9.63,9.63,9.61
27.77,4.13,-5.44,4.13,-5.44,5.46,5.40,5.11,9.58,9.58,9.57
28.05,4.19,-5.34,4.19,-5.34,5.35,5.31,5.19,9.54,9.54,9.53
28.33,4.26,-5.24,4.26,-5.24,5.24,5.21,5.27,9.50,9.50,9.50
28.62,4.32,-5.14,4.32,-5.14,5.14,5.11,5.35,9.46,9.46,9.46
28.90,4.39,-5.03,4.39,-5.03,5.03,5.01,5.41,9.42,9.42,9.42
29.19,4.45,-4.93,4.45,-4.93,4.93,4.90,5.47,9.38,9.38,9.39
29.48,4.52,-4.83,4.52,-4.83,4.83,4.80,5.52,9.35,9.35,9.35
29.78,4.58,-4.72,4.59,-4.72,4.72,4.70,5.56,9.31,9.31,9.31
30.08,4.65,-4.62,4.65,-4.62,4.62,4.60,5.59,9.27,9.27,9.27
30.38,4.71,-4.51,4.71,-4.52,4.52,4.49,5.61,9.23,9.23,9.23
30.68,4.78,-4.41,4.78,-4.41,4.41,4.39,5.61,9.19,9.19,9.19
30.99,4.84,-4.31,4.84,-4.31,4.31,4.29,5.62,9.15,9.15,9.15
31.30,4.90,-4.21,4.90,-4.21,4.21,4.19,5.60,9.11,9.11,9.11
31.61,4.97,-4.10,4.97,-4.10,4.10,4.09,5.58,9.07,9.07,9.07
31.93,5.03,-4.00,5.03,-4.00,4.00,3.99,5.54,9.03,9.03,9.03
32.24,5.09,-3.90,5.09,-3.90,3.90,3.89,5.49,8.99,8.99,8.99
32.57,5.15,-3.79,5.15,-3.79,3.80,3.79,5.43,8.95,8.95,8.94
32.89,5.21,-3.69,5.21,-3.69,3.69,3.69,5.37,8.90,8.90,8.90
33.22,5.27,-3.59,5.27,-3.59,3.59,3.59,5.29,8.86,8.86,8.86
33.55,5.33,-3.49,5.33,-3.49,3.49,3.49,5.20,8.82,8.82,8.82
33.89,5.39,-3.39,5.39,-3.39,3.40,3.39,5.11,8.78,8.78,8.78
34.23,5.44,-3.30,5.44,-3.30,3.30,3.30,5.00,8.74,8.74,8.74
34.57,5.50,-3.20,5.50,-3.20,3.20,3.20,4.89,8.70,8.70,8.70
34.92,5.56,-3.10,5.56,-3.10,3.10,3.10,4.77,8.65,8.65,8.66
35.27,5.61,-3.00,5.61,-3.00,3.00,3.01,4.65,8.61,8.61,8.61
35.62,5.67,-2.90,5.67,-2.90,2.90,2.91,4.52,8.57,8.57,8.57
35.97,5.72,-2.80,5.72,-2.80,2.80,2.82,4.39,8.52,8.52,8.52
36.33,5.78,-2.70,5.78,-2.70,2.70,2.72,4.25,8.48,8.48,8.48
36.70,5.83,-2.60,5.83,-2.60,2.60,2.63,4.11,8.43,8.43,8.43
37.06,5.89,-2.50,5.89,-2.50,2.50,2.53,3.97,8.39,8.39,8.39
37.43,5.94,-2.40,5.94,-2.40,2.40,2.44,3.82,8.34,8.34,8.34
37.81,5.99,-2.31,5.99,-2.31,2.31,2.34,3.68,8.30,8.30,8.30
38.19,6.05,-2.21,6.05,-2.21,2.21,2.25,3.53,8.25,8.25,8.26
38.57,6.10,-2.11,6.10,-2.11,2.11,2.16,3.38,8.21,8.21,8.21
38.95,6.15,-2.02,6.15,-2.02,2.02,2.06,3.23,8.17,8.17,8.16
39.34,6.20,-1.92,6.20,-1.92,1.92,1.97,3.09,8.12,8.12,8.12
39.74,6.25,-1.82,6.25,-1.82,1.82,1.88,2.94,8.07,8.07,8.07
40.14,6.30,-1.73,6.30,-1.73,1.73,1.79,2.79,8.03,8.03,8.03
40.54,6.35,-1.63,6.35,-1.63,1.63,1.69,2.64,7.98,7.98,7.98
40.94,6.40,-1.54,6.40,-1.54,1.54,1.60,2.49,7.94,7.94,7.94
41.35,6.44,-1.45,6.44,-1.45,1.45,1.51,2.35,7.89,7.89,7.89
41.76,6.49,-1.35,6.49,-1.35,1.36,1.42,2.20,7.85,7.85,7.85
42.18,6.54,-1.27,6.54,-1.27,1.27,1.33,2.06,7.80,7.80,7.80
42.60,6.58,-1.18,6.58,-1.18,1.17,1.24,1.91,7.76,7.76,7.76
43.03,6.63,-1.09,6.63,-1.09,1.08,1.15,1.77,7.71,7.71,7.72
43.46,6.67,-1.00,6.67,-1.00,1.00,1.06,1.63,7.67,7.67,7.67
43.90,6.72,-0.91,6.72,-0.91,0.91,0.97,1.49,7.62,7.62,7.62
44.33,6.76,-0.82,6.76,-0.82,0.82,0.88,1.35,7.58,7.58,7.58
44.78,6.80,-0.73,6.80,-0.73,0.73,0.79,1.21,7.53,7.53,7.53
45.23,6.84,-0.64,6.84,-0.64,0.64,0.70,1.07,7.48,7.48,7.48
45.68,6.88,-0.55,6.88,-0.55,0.55,0.61,0.94,7.44,7.44,7.44
46.13,6.92,-0.47,6.92,-0.47,0.47,0.52,0.80,7.39,7.39,7.39
46.60,6.96,-0.38,6.96,-0.38,0.38,0.43,0.67,7.34,7.34,7.34
47.06,7.00,-0.30,7.00,-0.30,0.30,0.35,0.53,7.30,7.30,7.30
47.53,7.03,-0.22,7.03,-0.22,0.22,0.26,0.40,7.25,7.25,7.25
48.01,7.07,-0.14,7.07,-0.14,0.14,0.17,0.27,7.20,7.21,7.20
48.49,7.10,-0.06,7.10,-0.06,0.06,0.09,0.14,7.16,7.16,7.16
48.97,7.14,0.02,7.14,0.02,-0.02,-0.00,0.01,7.11,7.11,7.11
49.46,7.17,0.10,7.17,0.10,-0.10,-0.09,-0.11,7.07,7.07,7.07
49.96,7.20,0.18,7.20,0.18,-0.18,-0.17,-0.24,7.02,7.02,7.02
50.46,7.23,0.26,7.23,0.26,-0.26,-0.26,-0.36,6.97,6.97,6.97
50.96,7.26,0.33,7.26,0.33,-0.34,-0.34,-0.49,6.93,6.93,6.93
51.47,7.29,0.41,7.29,0.41,-0.41,-0.42,-0.61,6.88,6.88,6.89
51.99,7.33,0.49,7.33,0.49,-0.49,-0.51,-0.73,6.83,6.83,6.83
52.51,7.36,0.57,7.36,0.57,-0.57,-0.59,-0.85,6.79,6.79,6.78
53.03,7.39,0.64,7.39,0.64,-0.64,-0.67,-0.97,6.74,6.74,6.74
53.56,7.42,0.71,7.42,0.72,-0.72,-0.76,-1.08,6.69,6.69,6.70
54.10,7.45,0.80,7.45,0.80,-0.80,-0.84,-1.19,6.65,6.65,6.65
54.64,7.48,0.89,7.48,0.88,-0.88,-0.92,-1.30,6.60,6.60,6.59
55.18,7.51,0.96,7.51,0.95,-0.95,-1.00,-1.41,6.55,6.55,6.55
55.74,7.54,1.02,7.54,1.03,-1.03,-1.08,-1.51,6.51,6.51,6.52
56.29,7.57,1.10,7.57,1.11,-1.11,-1.16,-1.61,6.46,6.46,6.47
56.86,7.60,1.21,7.60,1.19,-1.19,-1.23,-1.71,6.41,6.41,6.40
57.42,7.63,1.27,7.63,1.27,-1.27,-1.31,-1.81,6.37,6.37,6.36
58.00,7.67,1.33,7.67,1.34,-1.35,-1.39,-1.90,6.32,6.32,6.34
58.58,7.70,1.42,7.70,1.42,-1.43,-1.47,-1.98,6.27,6.27,6.28
59.16,7.73,1.51,7.73,1.51,-1.51,-1.54,-2.07,6.23,6.22,6.22
59.76,7.76,1.60,7.76,1.59,-1.58,-1.62,-2.14,6.18,6.18,6.16
60.35,7.79,1.66,7.79,1.66,-1.66,-1.69,-2.22,6.13,6.13,6.13
60.96,7.82,1.71,7.82,1.74,-1.74,-1.76,-2.29,6.09,6.09,6.11
61.57,7.85,1.82,7.85,1.81,-1.81,-1.84,-2.35,6.04,6.04,6.04
62.18,7.88,1.92,7.88,1.89,-1.89,-1.91,-2.41,6.00,6.00,5.96
62.80,7.91,1.94,7.91,1.96,-1.96,-1.98,-2.47,5.96,5.96,5.97
63.43,7.94,2.01,7.94,2.02,-2.03,-2.05,-2.52,5.91,5.91,5.93
64.07,7.97,2.09,7.97,2.10,-2.10,-2.12,-2.56,5.87,5.87,5.87
64.71,7.99,2.19,7.99,2.17,-2.17,-2.19,-2.60,5.82,5.82,5.80
65.35,8.02,2.25,8.02,2.23,-2.24,-2.26,-2.64,5.78,5.78,5.77
66.01,8.04,2.26,8.04,2.30,-2.30,-2.33,-2.68,5.74,5.74,5.78
66.67,8.06,2.37,8.06,2.37,-2.37,-2.39,-2.71,5.69,5.69,5.70
67.33,8.08,2.46,8.08,2.44,-2.44,-2.46,-2.73,5.64,5.64,5.63
68.01,8.10,2.53,8.10,2.51,-2.50,-2.52,-2.76,5.60,5.60,5.57
68.69,8.12,2.54,8.12,2.56,-2.57,-2.59,-2.78,5.56,5.56,5.58
69.37,8.14,2.60,8.14,2.63,-2.63,-2.65,-2.80,5.51,5.51,5.54
70.07,8.16,2.71,8.16,2.70,-2.69,-2.71,-2.81,5.47,5.47,5.45
70.77,8.18,2.79,8.18,2.76,-2.75,-2.77,-2.83,5.42,5.42,5.39
71.48,8.19,2.81,8.19,2.81,-2.81,-2.83,-2.84,5.38,5.38,5.38
72.19,8.21,2.83,8.21,2.85,-2.87,-2.89,-2.85,5.34,5.34,5.38
72.91,8.22,2.91,8.22,2.92,-2.92,-2.95,-2.86,5.30,5.30,5.31
73.64,8.23,3.01,8.23,2.99,-2.98,-3.01,-2.87,5.25,5.25,5.22
74.38,8.24,3.07,8.24,3.05,-3.04,-3.07,-2.88,5.20,5.20,5.17
75.12,8.25,3.08,8.25,3.09,-3.09,-3.12,-2.89,5.16,5.16,5.17
75.87,8.26,3.11,8.26,3.13,-3.14,-3.18,-2.90,5.12,5.12,5.16
76.63,8.27,3.18,8.27,3.19,-3.19,-3.23,-2.91,5.08,5.08,5.09
77.40,8.28,3.28,8.28,3.26,-3.24,-3.29,-2.93,5.03,5.03,5.00
78.17,8.29,3.32,8.29,3.31,-3.29,-3.34,-2.94,4.99,4.99,4.97
78.95,8.29,3.34,8.29,3.34,-3.34,-3.39,-2.96,4.95,4.95,4.96
79.74,8.30,3.34,8.30,3.37,-3.39,-3.44,-2.97,4.91,4.91,4.95
80.54,8.30,3.41,8.30,3.42,-3.43,-3.49,-2.99,4.87,4.87,4.89
81.35,8.31,3.50,8.30,3.49,-3.47,-3.54,-3.01,4.83,4.83,4.80
82.16,8.31,3.56,8.31,3.54,-3.52,-3.58,-3.03,4.79,4.79,4.75
82.98,8.31,3.58,8.31,3.57,-3.56,-3.63,-3.05,4.75,4.75,4.73
83.81,8.31,3.56,8.31,3.58,-3.61,-3.67,-3.08,4.70,4.70,4.75
84.65,8.31,3.61,8.31,3.62,-3.65,-3.72,-3.11,4.66,4.66,4.70
85.50,8.31,3.69,8.31,3.69,-3.69,-3.76,-3.14,4.62,4.62,4.63
86.35,8.31,3.78,8.31,3.76,-3.73,-3.80,-3.17,4.59,4.59,4.54
87.22,8.31,3.82,8.31,3.80,-3.77,-3.85,-3.21,4.55,4.55,4.50
88.09,8.31,3.82,8.31,3.82,-3.81,-3.89,-3.25,4.50,4.50,4.50
88.97,8.31,3.82,8.31,3.83,-3.86,-3.92,-3.29,4.46,4.46,4.49
89.86,8.31,3.84,8.31,3.86,-3.90,-3.96,-3.33,4.41,4.41,4.47
90.76,8.31,3.92,8.31,3.92,-3.94,-4.00,-3.38,4.38,4.38,4.39
91.66,8.31,3.99,8.31,3.99,-3.97,-4.04,-3.43,4.35,4.35,4.32
92.58,8.31,4.06,8.31,4.04,-4.00,-4.07,-3.48,4.31,4.31,4.26
93.51,8.31,4.06,8.31,4.06,-4.03,-4.10,-3.53,4.28,4.28,4.24
94.44,8.31,4.06,8.31,4.07,-4.07,-4.14,-3.59,4.23,4.23,4.24
95.39,8.31,4.07,8.31,4.08,-4.11,-4.17,-3.65,4.19,4.19,4.23
96.34,8.30,4.11,8.30,4.12,-4.15,-4.20,-3.71,4.15,4.15,4.20
97.30,8.30,4.17,8.30,4.17,-4.19,-4.23,-3.77,4.12,4.12,4.13
98.28,8.30,4.23,8.30,4.23,-4.22,-4.26,-3.84,4.08,4.08,4.07
99.26,8.30,4.28,8.30,4.28,-4.25,-4.29,-3.90,4.05,4.05,4.01
100.25,8.29,4.31,8.29,4.31,-4.28,-4.31,-3.97,4.01,4.01,3.98
101.25,8.29,4.33,8.29,4.33,-4.32,-4.34,-4.04,3.97,3.97,3.96
102.27,8.28,4.34,8.28,4.34,-4.35,-4.37,-4.11,3.93,3.93,3.94
103.29,8.27,4.36,8.27,4.36,-4.38,-4.39,-4.18,3.90,3.90,3.92
104.32,8.27,4.38,8.27,4.38,-4.40,-4.41,-4.25,3.87,3.87,3.89
105.37,8.26,4.41,8.26,4.41,-4.42,-4.44,-4.33,3.83,3.83,3.84
106.42,8.25,4.45,8.25,4.45,-4.45,-4.46,-4.40,3.80,3.80,3.80
107.48,8.24,4.49,8.24,4.48,-4.48,-4.48,-4.47,3.76,3.76,3.75
108.56,8.23,4.51,8.23,4.51,-4.51,-4.50,-4.54,3.72,3.72,3.71
109.64,8.22,4.54,8.22,4.54,-4.54,-4.52,-4.61,3.68,3.68,3.67
110.74,8.20,4.57,8.20,4.57,-4.56,-4.53,-4.68,3.64,3.64,3.64
111.85,8.19,4.59,8.19,4.59,-4.59,-4.55,-4.74,3.60,3.60,3.60
112.97,8.17,4.61,8.17,4.61,-4.61,-4.56,-4.80,3.57,3.57,3.57
114.10,8.16,4.62,8.16,4.62,-4.62,-4.58,-4.86,3.54,3.54,3.54
115.24,8.14,4.64,8.14,4.64,-4.64,-4.59,-4.92,3.51,3.51,3.51
116.39,8.13,4.65,8.13,4.65,-4.65,-4.61,-4.97,3.47,3.47,3.48
117.55,8.11,4.66,8.11,4.66,-4.66,-4.62,-5.02,3.44,3.44,3.45
118.73,8.09,4.68,8.09,4.68,-4.68,-4.63,-5.06,3.41,3.41,3.41
119.92,8.07,4.69,8.07,4.69,-4.69,-4.64,-5.09,3.38,3.38,3.38
121.12,8.05,4.70,8.05,4.70,-4.71,-4.65,-5.13,3.34,3.34,3.35
122.33,8.03,4.72,8.03,4.72,-4.72,-4.66,-5.15,3.31,3.31,3.31
123.55,8.01,4.73,8.01,4.73,-4.73,-4.67,-5.17,3.27,3.27,3.28
124.79,7.98,4.75,7.98,4.75,-4.75,-4.67,-5.18,3.24,3.24,3.24
126.03,7.96,4.76,7.96,4.76,-4.76,-4.68,-5.19,3.20,3.20,3.20
127.29,7.94,4.77,7.94,4.77,-4.77,-4.68,-5.19,3.17,3.17,3.16
128.57,7.91,4.78,7.91,4.78,-4.77,-4.69,-5.18,3.14,3.14,3.13
129.85,7.89,4.78,7.89,4.78,-4.77,-4.69,-5.17,3.11,3.11,3.11
131.15,7.86,4.78,7.86,4.78,-4.77,-4.70,-5.15,3.09,3.09,3.08
132.46,7.84,4.77,7.84,4.77,-4.77,-4.70,-5.13,3.06,3.06,3.06
133.79,7.81,4.76,7.81,4.76,-4.77,-4.70,-5.10,3.04,3.04,3.05
135.12,7.78,4.75,7.78,4.76,-4.77,-4.70,-5.07,3.01,3.01,3.03
136.48,7.75,4.76,7.75,4.76,-4.77,-4.70,-5.03,2.98,2.98,3.00
137.84,7.72,4.77,7.72,4.77,-4.77,-4.70,-4.99,2.95,2.95,2.95
139.22,7.69,4.79,7.69,4.79,-4.77,-4.70,-4.94,2.92,2.92,2.90
140.61,7.66,4.80,7.66,4.79,-4.77,-4.70,-4.90,2.89,2.89,2.87
142.02,7.63,4.79,7.63,4.78,-4.77,-4.70,-4.85,2.86,2.86,2.85
143.44,7.60,4.77,7.60,4.77,-4.77,-4.69,-4.80,2.83,2.83,2.83
144.87,7.57,4.74,7.57,4.76,-4.77,-4.69,-4.74,2.80,2.80,2.82
146.32,7.54,4.76,7.54,4.76,-4.77,-4.68,-4.69,2.77,2.77,2.78
147.78,7.50,4.77,7.50,4.76,-4.76,-4.68,-4.64,2.74,2.74,2.73
149.26,7.47,4.77,7.47,4.76,-4.75,-4.67,-4.58,2.71,2.71,2.70
150.75,7.43,4.75,7.43,4.75,-4.75,-4.67,-4.53,2.69,2.69,2.68
152.26,7.40,4.72,7.40,4.74,-4.74,-4.66,-4.48,2.66,2.66,2.68
153.78,7.36,4.73,7.36,4.73,-4.73,-4.65,-4.42,2.63,2.63,2.63
155.32,7.32,4.74,7.32,4.72,-4.72,-4.65,-4.37,2.60,2.60,2.58
156.88,7.28,4.71,7.28,4.72,-4.71,-4.64,-4.32,2.57,2.57,2.57
158.44,7.25,4.69,7.25,4.70,-4.70,-4.63,-4.28,2.55,2.55,2.55
160.03,7.21,4.69,7.21,4.68,-4.69,-4.62,-4.23,2.52,2.52,2.52
161.63,7.17,4.67,7.17,4.67,-4.67,-4.61,-4.19,2.49,2.49,2.49
163.24,7.13,4.66,7.13,4.66,-4.66,-4.60,-4.15,2.47,2.47,2.47
164.88,7.08,4.64,7.08,4.64,-4.64,-4.59,-4.11,2.44,2.44,2.44
166.53,7.04,4.63,7.04,4.63,-4.63,-4.57,-4.07,2.42,2.42,2.41
168.19,7.00,4.61,7.00,4.61,-4.61,-4.56,-4.04,2.39,2.39,2.39
169.87,6.95,4.59,6.95,4.59,-4.59,-4.55,-4.01,2.36,2.36,2.36
171.57,6.91,4.57,6.91,4.57,-4.57,-4.54,-3.99,2.34,2.34,2.34
173.29,6.86,4.55,6.86,4.55,-4.55,-4.52,-3.96,2.31,2.32,2.32
175.02,6.82,4.53,6.82,4.53,-4.53,-4.51,-3.94,2.29,2.29,2.29
176.77,6.77,4.50,6.77,4.50,-4.50,-4.49,-3.92,2.27,2.27,2.27
178.54,6.72,4.47,6.72,4.47,-4.48,-4.48,-3.91,2.24,2.24,2.25
180.32,6.67,4.45,6.67,4.45,-4.45,-4.46,-3.90,2.22,2.22,2.22
182.13,6.62,4.42,6.62,4.42,-4.42,-4.45,-3.89,2.19,2.19,2.19
183.95,6.56,4.39,6.56,4.39,-4.39,-4.43,-3.88,2.17,2.17,2.17
185.79,6.51,4.36,6.51,4.36,-4.36,-4.41,-3.88,2.15,2.15,2.14
187.65,6.45,4.33,6.45,4.33,-4.33,-4.40,-3.88,2.12,2.12,2.12
189.52,6.40,4.30,6.40,4.30,-4.30,-4.38,-3.89,2.10,2.10,2.10
191.42,6.34,4.26,6.34,4.26,-4.26,-4.36,-3.89,2.07,2.08,2.07
193.33,6.28,4.23,6.28,4.23,-4.23,-4.34,-3.90,2.05,2.05,2.05
195.27,6.22,4.19,6.22,4.19,-4.19,-4.32,-3.91,2.03,2.03,2.03
197.22,6.16,4.15,6.16,4.15,-4.15,-4.30,-3.92,2.01,2.01,2.01
199.19,6.09,4.11,6.09,4.11,-4.11,-4.28,-3.94,1.98,1.98,1.98
201.18,6.03,4.07,6.03,4.07,-4.07,-4.26,-3.96,1.96,1.96,1.96
203.19,5.97,4.03,5.97,4.03,-4.03,-4.24,-3.97,1.94,1.94,1.94
205.23,5.91,3.99,5.91,3.99,-3.99,-4.22,-4.00,1.92,1.92,1.92
207.28,5.85,3.95,5.85,3.95,-3.95,-4.20,-4.02,1.89,1.89,1.89
209.35,5.79,3.92,5.79,3.92,-3.92,-4.18,-4.04,1.87,1.87,1.87
211.44,5.74,3.89,5.74,3.88,-3.89,-4.16,-4.06,1.85,1.85,1.85
213.56,5.68,3.85,5.68,3.86,-3.86,-4.13,-4.09,1.83,1.83,1.83
215.69,5.64,3.83,5.64,3.83,-3.83,-4.11,-4.11,1.81,1.80,1.81
217.85,5.59,3.81,5.59,3.81,-3.81,-4.09,-4.13,1.78,1.78,1.78
220.03,5.55,3.79,5.55,3.79,-3.79,-4.06,-4.15,1.76,1.76,1.76
222.23,5.52,3.78,5.52,3.78,-3.78,-4.04,-4.17,1.74,1.74,1.74
224.45,5.49,3.77,5.49,3.77,-3.77,-4.01,-4.19,1.72,1.72,1.72
226.70,5.47,3.76,5.47,3.76,-3.77,-3.99,-4.21,1.70,1.70,1.70
228.96,5.45,3.76,5.44,3.76,-3.76,-3.96,-4.23,1.68,1.68,1.68
231.25,5.43,3.77,5.43,3.77,-3.77,-3.93,-4.24,1.66,1.66,1.66
233.57,5.41,3.77,5.41,3.77,-3.77,-3.91,-4.25,1.64,1.64,1.64
235.90,5.39,3.77,5.39,3.77,-3.77,-3.88,-4.25,1.62,1.62,1.62
238.26,5.37,3.78,5.37,3.78,-3.77,-3.85,-4.26,1.60,1.60,1.60
240.64,5.36,3.78,5.36,3.78,-3.78,-3.82,-4.26,1.58,1.58,1.58
243.05,5.34,3.78,5.34,3.78,-3.78,-3.79,-4.25,1.56,1.56,1.56
245.48,5.31,3.78,5.31,3.78,-3.77,-3.76,-4.24,1.54,1.54,1.54
247.93,5.29,3.77,5.29,3.77,-3.77,-3.74,-4.23,1.52,1.52,1.52
250.41,5.26,3.76,5.26,3.76,-3.76,-3.71,-4.21,1.50,1.50,1.50
252.92,5.23,3.75,5.23,3.75,-3.75,-3.67,-4.19,1.48,1.48,1.48
255.45,5.19,3.73,5.19,3.73,-3.73,-3.64,-4.16,1.46,1.46,1.46
258.00,5.15,3.72,5.15,3.71,-3.71,-3.61,-4.12,1.44,1.44,1.44
260.58,5.11,3.69,5.11,3.69,-3.69,-3.58,-4.09,1.42,1.42,1.42
263.19,5.07,3.67,5.07,3.67,-3.67,-3.55,-4.05,1.40,1.40,1.40
265.82,5.02,3.64,5.02,3.64,-3.64,-3.52,-4.00,1.38,1.38,1.38
268.48,4.97,3.61,4.97,3.61,-3.61,-3.48,-3.95,1.36,1.36,1.36
271.16,4.92,3.58,4.92,3.58,-3.58,-3.45,-3.90,1.35,1.35,1.35
273.87,4.87,3.54,4.87,3.54,-3.54,-3.41,-3.84,1.33,1.33,1.33
276.61,4.82,3.51,4.82,3.51,-3.51,-3.38,-3.78,1.31,1.31,1.31
279.38,4.76,3.47,4.76,3.47,-3.47,-3.34,-3.72,1.29,1.29,1.29
282.17,4.71,3.43,4.71,3.43,-3.43,-3.31,-3.66,1.27,1.27,1.27
284.99,4.65,3.39,4.65,3.39,-3.40,-3.27,-3.59,1.26,1.26,1.26
287.84,4.59,3.36,4.59,3.36,-3.36,-3.24,-3.53,1.24,1.24,1.24
290.72,4.54,3.32,4.54,3.32,-3.31,-3.20,-3.46,1.22,1.22,1.22
293.63,4.48,3.28,4.48,3.27,-3.27,-3.16,-3.39,1.20,1.20,1.20
296.57,4.42,3.23,4.42,3.23,-3.23,-3.13,-3.32,1.19,1.19,1.19
299.53,4.36,3.19,4.36,3.19,-3.19,-3.09,-3.25,1.17,1.17,1.17
302.53,4.30,3.15,4.30,3.15,-3.15,-3.05,-3.18,1.15,1.15,1.15
305.55,4.24,3.11,4.24,3.11,-3.11,-3.01,-3.11,1.14,1.14,1.14
308.61,4.18,3.06,4.18,3.06,-3.06,-2.98,-3.04,1.12,1.12,1.12
311.69,4.12,3.02,4.12,3.02,-3.02,-2.94,-2.97,1.10,1.10,1.10
314.81,4.06,2.98,4.06,2.98,-2.98,-2.90,-2.90,1.09,1.09,1.09
317.96,4.00,2.93,4.01,2.94,-2.93,-2.86,-2.84,1.07,1.07,1.07
321.14,3.95,2.89,3.95,2.89,-2.89,-2.82,-2.77,1.05,1.05,1.05
324.35,3.89,2.85,3.89,2.85,-2.85,-2.78,-2.70,1.04,1.04,1.04
327.59,3.83,2.80,3.83,2.80,-2.80,-2.74,-2.64,1.02,1.02,1.02
330.87,3.77,2.76,3.77,2.76,-2.76,-2.70,-2.58,1.01,1.01,1.01
334.18,3.71,2.72,3.71,2.72,-2.72,-2.66,-2.52,0.99,0.99,0.99
337.52,3.65,2.67,3.65,2.67,-2.67,-2.62,-2.46,0.97,0.97,0.97
340.90,3.59,2.63,3.59,2.63,-2.63,-2.58,-2.40,0.96,0.96,0.96
344.30,3.53,2.59,3.53,2.59,-2.59,-2.53,-2.35,0.94,0.94,0.94
347.75,3.47,2.55,3.47,2.54,-2.54,-2.49,-2.29,0.93,0.93,0.93
351.23,3.41,2.50,3.41,2.50,-2.50,-2.45,-2.24,0.91,0.91,0.91
354.74,3.35,2.46,3.35,2.46,-2.46,-2.41,-2.19,0.90,0.90,0.90
358.28,3.29,2.41,3.29,2.41,-2.41,-2.37,-2.14,0.88,0.88,0.88
361.87,3.23,2.37,3.23,2.37,-2.37,-2.33,-2.10,0.87,0.87,0.87
365.49,3.18,2.32,3.18,2.32,-2.32,-2.29,-2.05,0.85,0.85,0.85
369.14,3.12,2.28,3.12,2.28,-2.28,-2.24,-2.01,0.84,0.84,0.84
372.83,3.06,2.23,3.06,2.23,-2.23,-2.20,-1.96,0.82,0.82,0.82
376.56,3.00,2.19,3.00,2.19,-2.19,-2.16,-1.92,0.81,0.81,0.81
380.33,2.94,2.15,2.94,2.15,-2.15,-2.12,-1.88,0.79,0.79,0.79
384.13,2.88,2.10,2.88,2.10,-2.10,-2.08,-1.85,0.78,0.78,0.78
387.97,2.82,2.06,2.82,2.06,-2.06,-2.03,-1.81,0.77,0.77,0.77
391.85,2.76,2.01,2.76,2.01,-2.01,-1.99,-1.78,0.75,0.75,0.75
395.77,2.70,1.97,2.70,1.97,-1.97,-1.95,-1.74,0.74,0.74,0.74
399.73,2.64,1.92,2.64,1.92,-1.92,-1.91,-1.71,0.72,0.72,0.72
403.72,2.59,1.88,2.59,1.88,-1.88,-1.87,-1.68,0.71,0.71,0.71
407.76,2.53,1.83,2.53,1.83,-1.83,-1.82,-1.65,0.70,0.70,0.69
411.84,2.47,1.79,2.47,1.79,-1.79,-1.78,-1.62,0.68,0.68,0.68
415.96,2.41,1.74,2.41,1.74,-1.74,-1.74,-1.59,0.67,0.67,0.67
420.12,2.35,1.70,2.35,1.70,-1.70,-1.70,-1.57,0.65,0.65,0.66
424.32,2.29,1.65,2.29,1.65,-1.65,-1.66,-1.54,0.64,0.64,0.64
428.56,2.23,1.60,2.23,1.61,-1.61,-1.61,-1.51,0.63,0.63,0.63
432.85,2.18,1.56,2.18,1.56,-1.56,-1.57,-1.49,0.62,0.62,0.62
437.18,2.12,1.52,2.12,1.52,-1.52,-1.53,-1.46,0.60,0.60,0.60
441.55,2.06,1.47,2.06,1.47,-1.47,-1.49,-1.44,0.59,0.59,0.59
445.96,2.00,1.43,2.00,1.43,-1.43,-1.45,-1.41,0.58,0.58,0.58
450.42,1.95,1.38,1.95,1.38,-1.38,-1.41,-1.39,0.56,0.56,0.57
454.93,1.89,1.34,1.89,1.34,-1.34,-1.36,-1.36,0.55,0.55,0.55
459.48,1.83,1.29,1.83,1.29,-1.29,-1.32,-1.34,0.54,0.54,0.54
464.07,1.77,1.25,1.77,1.25,-1.25,-1.28,-1.31,0.53,0.53,0.53
468.71,1.72,1.20,1.72,1.20,-1.20,-1.24,-1.29,0.51,0.51,0.51
473.40,1.66,1.16,1.66,1.16,-1.16,-1.20,-1.26,0.50,0.50,0.50
478.13,1.60,1.12,1.60,1.12,-1.12,-1.16,-1.23,0.49,0.49,0.49
482.91,1.55,1.07,1.55,1.07,-1.07,-1.12,-1.20,0.47,0.47,0.47
487.74,1.49,1.03,1.49,1.03,-1.03,-1.08,-1.18,0.46,0.46,0.46
492.62,1.43,0.99,1.43,0.99,-0.99,-1.04,-1.15,0.45,0.45,0.45
497.55,1.38,0.94,1.38,0.94,-0.94,-1.00,-1.12,0.44,0.44,0.44
502.52,1.32,0.90,1.32,0.90,-0.90,-0.96,-1.08,0.42,0.42,0.42
507.55,1.27,0.86,1.27,0.86,-0.86,-0.92,-1.05,0.41,0.41,0.41
512.62,1.21,0.81,1.21,0.81,-0.81,-0.88,-1.02,0.40,0.40,0.40
517.75,1.16,0.77,1.16,0.77,-0.77,-0.84,-0.98,0.39,0.39,0.39
522.93,1.11,0.73,1.11,0.73,-0.73,-0.80,-0.95,0.37,0.37,0.37
528.16,1.05,0.69,1.05,0.69,-0.69,-0.76,-0.91,0.36,0.36,0.36
533.44,1.00,0.65,1.00,0.65,-0.65,-0.72,-0.87,0.35,0.35,0.35
538.77,0.95,0.61,0.95,0.61,-0.61,-0.68,-0.83,0.34,0.34,0.34
544.16,0.89,0.57,0.89,0.57,-0.57,-0.64,-0.80,0.33,0.33,0.32
549.60,0.84,0.53,0.84,0.53,-0.53,-0.60,-0.75,0.31,0.32,0.31
555.10,0.79,0.49,0.79,0.49,-0.48,-0.56,-0.71,0.30,0.30,0.30
