frequency,raw,error,smoothed,error_smoothed,equalization,parametric_eq,fixed_band_eq,equalized_raw,equalized_smoothed,target
20.00,9.68,8.59,9.68,8.58,-8.57,-9.93,-3.61,1.11,1.11,1.09
20.20,9.70,8.58,9.70,8.59,-8.58,-9.78,-3.71,1.12,1.12,1.11
20.40,9.72,8.58,9.72,8.58,-8.59,-9.63,-3.81,1.13,1.13,1.14
20.61,9.74,8.57,9.74,8.56,-8.58,-9.39,-3.92,1.17,1.17,1.17
20.81,9.77,8.53,9.77,8.54,-8.55,-9.15,-4.02,1.21,1.21,1.23
21.02,9.79,8.49,9.79,8.50,-8.52,-8.92,-4.14,1.27,1.27,1.30
21.23,9.81,8.45,9.81,8.45,-8.47,-8.70,-4.25,1.35,1.35,1.36
21.44,9.84,8.40,9.83,8.41,-8.40,-8.52,-4.37,1.43,1.43,1.43
21.66,9.86,8.34,9.86,8.35,-8.32,-8.34,-4.49,1.53,1.53,1.51
21.87,9.88,8.27,9.88,8.26,-8.22,-8.21,-4.61,1.65,1.65,1.61
22.09,9.90,8.16,9.90,8.16,-8.11,-8.07,-4.74,1.79,1.79,1.74
22.31,9.92,8.02,9.92,8.02,-7.98,-7.97,-4.87,1.94,1.94,1.90
22.54,9.94,7.87,9.94,7.87,-7.85,-7.87,-5.00,2.09,2.09,2.07
22.76,9.96,7.72,9.96,7.72,-7.72,-7.80,-5.14,2.23,2.23,2.24
22.99,9.98,7.58,9.98,7.59,-7.62,-7.72,-5.28,2.35,2.35,2.40
23.22,10.00,7.49,10.00,7.49,-7.56,-7.67,-5.43,2.44,2.44,2.51
23.45,10.01,7.45,10.01,7.45,-7.53,-7.61,-5.57,2.48,2.48,2.56
23.69,10.03,7.48,10.03,7.48,-7.55,-7.57,-5.72,2.48,2.48,2.56
23.92,10.05,7.56,10.05,7.56,-7.62,-7.54,-5.88,2.43,2.43,2.49
24.16,10.07,7.68,10.07,7.69,-7.71,-7.51,-6.04,2.35,2.35,2.38
24.40,10.08,7.83,10.08,7.84,-7.82,-7.49,-6.20,2.26,2.26,2.25
24.65,10.10,7.99,10.10,7.98,-7.92,-7.47,-6.36,2.17,2.17,2.11
24.89,10.11,8.11,10.11,8.10,-8.01,-7.45,-6.52,2.10,2.10,2.01
25.14,10.13,8.16,10.13,8.16,-8.08,-7.45,-6.69,2.05,2.05,1.97
25.39,10.14,8.18,10.14,8.17,-8.11,-7.44,-6.86,2.03,2.03,1.96
25.65,10.16,8.14,10.16,8.14,-8.13,-7.44,-7.03,2.03,2.03,2.02
25.91,10.17,8.09,10.17,8.09,-8.12,-7.44,-7.21,2.05,2.05,2.08
26.16,10.19,8.04,10.19,8.04,-8.10,-7.44,-7.38,2.08,2.08,2.15
26.43,10.20,8.01,10.20,8.02,-8.08,-7.45,-7.55,2.11,2.11,2.19
26.69,10.21,8.02,10.21,8.02,-8.06,-7.45,-7.73,2.14,2.14,2.19
26.96,10.22,8.04,10.22,8.04,-8.05,-7.46,-7.90,2.17,2.17,2.18
27.23,10.23,8.06,10.23,8.06,-8.03,-7.47,-8.07,2.20,2.20,2.16
27.50,10.23,8.06,10.23,8.06,-8.00,-7.48,-8.23,2.23,2.23,2.17
27.77,10.24,8.03,10.24,8.03,-7.98,-7.49,-8.39,2.26,2.26,2.21
28.05,10.25,7.97,10.25,7.97,-7.94,-7.50,-8.55,2.30,2.30,2.28
28.33,10.25,7.89,10.25,7.89,-7.90,-7.52,-8.70,2.35,2.35,2.37
28.62,10.26,7.82,10.26,7.82,-7.86,-7.53,-8.85,2.40,2.40,2.44
28.90,10.27,7.76,10.27,7.77,-7.81,-7.54,-8.98,2.46,2.46,2.51
29.19,10.28,7.73,10.28,7.74,-7.76,-7.56,-9.11,2.52,2.52,2.55
29.48,10.30,7.72,10.30,7.72,-7.71,-7.57,-9.22,2.58,2.58,2.57
29.78,10.31,7.71,10.31,7.70,-7.67,-7.58,-9.32,2.64,2.64,2.60
30.08,10.32,7.68,10.32,7.68,-7.63,-7.60,-9.41,2.69,2.69,2.63
30.38,10.33,7.64,10.33,7.63,-7.60,-7.61,-9.49,2.72,2.72,2.69
30.68,10.33,7.58,10.33,7.58,-7.60,-7.62,-9.55,2.74,2.74,2.76
30.99,10.34,7.54,10.34,7.54,-7.61,-7.64,-9.60,2.74,2.74,2.80
31.30,10.35,7.54,10.35,7.54,-7.63,-7.65,-9.62,2.72,2.72,2.81
31.61,10.35,7.58,10.35,7.59,-7.66,-7.66,-9.65,2.69,2.69,2.77
31.93,10.35,7.67,10.35,7.68,-7.70,-7.67,-9.64,2.66,2.65,2.68
32.24,10.36,7.77,10.36,7.77,-7.73,-7.68,-9.64,2.63,2.63,2.58
32.57,10.36,7.85,10.36,7.84,-7.74,-7.69,-9.61,2.62,2.62,2.50
32.89,10.36,7.87,10.36,7.85,-7.74,-7.70,-9.57,2.62,2.62,2.50
33.22,10.36,7.81,10.36,7.80,-7.73,-7.71,-9.51,2.63,2.63,2.56
33.55,10.36,7.71,10.36,7.71,-7.70,-7.72,-9.45,2.66,2.67,2.65
33.89,10.37,7.60,10.37,7.61,-7.66,-7.72,-9.38,2.71,2.71,2.77
34.23,10.37,7.53,10.37,7.54,-7.62,-7.73,-9.30,2.75,2.75,2.84
34.57,10.37,7.50,10.37,7.51,-7.58,-7.73,-9.21,2.79,2.79,2.87
34.92,10.37,7.52,10.37,7.53,-7.56,-7.74,-9.11,2.81,2.81,2.85
35.27,10.37,7.57,10.37,7.56,-7.56,-7.74,-9.01,2.81,2.81,2.80
35.62,10.37,7.61,10.37,7.61,-7.58,-7.74,-8.91,2.79,2.79,2.76
35.97,10.37,7.65,10.37,7.64,-7.61,-7.74,-8.80,2.76,2.76,2.73
36.33,10.37,7.66,10.37,7.67,-7.65,-7.74,-8.69,2.72,2.72,2.71
36.70,10.37,7.69,10.37,7.69,-7.69,-7.74,-8.58,2.68,2.68,2.68
37.06,10.37,7.72,10.37,7.72,-7.72,-7.74,-8.46,2.65,2.65,2.66
37.43,10.37,7.75,10.37,7.75,-7.75,-7.74,-8.35,2.63,2.63,2.62
37.81,10.37,7.77,10.37,7.77,-7.77,-7.74,-8.24,2.60,2.60,2.60
38.19,10.37,7.79,10.37,7.79,-7.80,-7.73,-8.13,2.57,2.57,2.58
38.57,10.36,7.80,10.36,7.80,-7.83,-7.73,-8.03,2.54,2.54,2.57
38.95,10.36,7.82,10.36,7.82,-7.84,-7.72,-7.93,2.52,2.52,2.54
39.34,10.36,7.84,10.36,7.84,-7.84,-7.72,-7.83,2.51,2.51,2.51
39.74,10.35,7.86,10.35,7.86,-7.83,-7.71,-7.73,2.52,2.52,2.49
40.14,10.35,7.85,10.35,7.85,-7.79,-7.70,-7.64,2.56,2.56,2.49
40.54,10.34,7.81,10.34,7.79,-7.73,-7.69,-7.55,2.61,2.61,2.54
40.94,10.34,7.70,10.34,7.70,-7.66,-7.68,-7.47,2.68,2.68,2.63
41.35,10.33,7.58,10.33,7.59,-7.58,-7.67,-7.39,2.75,2.75,2.75
41.76,10.32,7.46,10.32,7.47,-7.50,-7.66,-7.32,2.83,2.83,2.86
42.18,10.31,7.38,10.31,7.38,-7.43,-7.64,-7.25,2.89,2.89,2.93
42.60,10.31,7.31,10.31,7.32,-7.38,-7.63,-7.18,2.93,2.93,2.99
43.03,10.30,7.29,10.30,7.29,-7.36,-7.62,-7.12,2.94,2.94,3.01
43.46,10.29,7.30,10.29,7.30,-7.37,-7.60,-7.07,2.92,2.92,2.99
43.90,10.28,7.34,10.28,7.35,-7.39,-7.58,-7.02,2.89,2.89,2.94
44.33,10.27,7.41,10.27,7.42,-7.40,-7.57,-6.98,2.87,2.86,2.86
44.78,10.26,7.48,10.26,7.48,-7.41,-7.55,-6.94,2.85,2.85,2.78
45.23,10.25,7.52,10.25,7.50,-7.39,-7.53,-6.91,2.86,2.86,2.73
45.68,10.24,7.47,10.24,7.46,-7.34,-7.51,-6.88,2.90,2.90,2.77
46.13,10.22,7.35,10.22,7.34,-7.27,-7.49,-6.86,2.96,2.96,2.88
46.60,10.21,7.18,10.21,7.18,-7.19,-7.47,-6.84,3.03,3.03,3.03
47.06,10.20,7.03,10.20,7.03,-7.10,-7.45,-6.83,3.10,3.10,3.17
47.53,10.19,6.91,10.19,6.92,-7.03,-7.43,-6.82,3.16,3.16,3.28
48.01,10.17,6.88,10.17,6.88,-6.99,-7.41,-6.82,3.19,3.19,3.29
48.49,10.16,6.90,10.16,6.90,-6.97,-7.38,-6.82,3.19,3.19,3.27
48.97,10.15,6.96,10.15,6.96,-7.00,-7.36,-6.82,3.15,3.15,3.19
49.46,10.14,7.04,10.14,7.05,-7.04,-7.34,-6.83,3.10,3.10,3.09
49.96,10.12,7.14,10.12,7.13,-7.08,-7.31,-6.84,3.04,3.04,2.99
50.46,10.11,7.19,10.11,7.19,-7.12,-7.29,-6.86,2.99,2.99,2.92
50.96,10.09,7.21,10.09,7.21,-7.12,-7.26,-6.88,2.97,2.97,2.88
51.47,10.08,7.19,10.08,7.18,-7.10,-7.24,-6.90,2.98,2.98,2.89
51.99,10.07,7.11,10.07,7.11,-7.05,-7.21,-6.92,3.01,3.01,2.96
52.51,10.05,7.00,10.05,7.00,-6.99,-7.18,-6.95,3.06,3.06,3.05
53.03,10.04,6.88,10.04,6.89,-6.93,-7.16,-6.98,3.10,3.10,3.15
53.56,10.02,6.79,10.02,6.80,-6.88,-7.13,-7.00,3.14,3.14,3.23
54.10,10.01,6.76,10.01,6.77,-6.85,-7.10,-7.03,3.15,3.15,3.25
54.64,9.99,6.79,9.99,6.79,-6.85,-7.07,-7.06,3.14,3.14,3.21
55.18,9.98,6.87,9.98,6.86,-6.88,-7.05,-7.09,3.09,3.09,3.11
55.74,9.96,6.96,9.96,6.95,-6.94,-7.02,-7.12,3.02,3.02,3.00
56.29,9.94,7.04,9.94,7.03,-7.01,-6.99,-7.14,2.93,2.93,2.90
56.86,9.91,7.11,9.91,7.11,-7.09,-6.96,-7.17,2.82,2.82,2.81
57.42,9.89,7.17,9.89,7.17,-7.16,-6.93,-7.19,2.73,2.73,2.72
58.00,9.86,7.23,9.86,7.23,-7.21,-6.90,-7.21,2.65,2.65,2.63
58.58,9.84,7.26,9.84,7.26,-7.25,-6.87,-7.22,2.59,2.59,2.58
59.16,9.81,7.27,9.81,7.27,-7.25,-6.85,-7.23,2.56,2.56,2.54
59.76,9.79,7.25,9.79,7.25,-7.23,-6.82,-7.23,2.56,2.56,2.54
60.35,9.76,7.21,9.76,7.21,-7.18,-6.79,-7.23,2.58,2.58,2.56
60.96,9.74,7.14,9.74,7.14,-7.11,-6.76,-7.22,2.62,2.62,2.60
61.57,9.71,7.05,9.71,7.04,-7.02,-6.73,-7.21,2.69,2.69,2.66
62.18,9.69,6.93,9.69,6.93,-6.92,-6.70,-7.19,2.77,2.77,2.75
62.80,9.66,6.81,9.66,6.81,-6.82,-6.67,-7.17,2.84,2.84,2.85
63.43,9.63,6.70,9.63,6.69,-6.72,-6.64,-7.14,2.92,2.92,2.94
64.07,9.61,6.59,9.61,6.60,-6.63,-6.61,-7.10,2.98,2.98,3.02
64.71,9.58,6.52,9.58,6.52,-6.57,-6.58,-7.06,3.02,3.02,3.06
65.35,9.56,6.48,9.56,6.48,-6.52,-6.55,-7.01,3.03,3.03,3.08
66.01,9.53,6.46,9.53,6.47,-6.50,-6.52,-6.96,3.04,3.04,3.08
66.67,9.50,6.48,9.50,6.48,-6.48,-6.49,-6.90,3.03,3.03,3.02
67.33,9.48,6.50,9.48,6.50,-6.46,-6.46,-6.83,3.01,3.01,2.97
68.01,9.45,6.52,9.45,6.51,-6.45,-6.43,-6.76,2.99,2.99,2.92
68.69,9.42,6.49,9.42,6.49,-6.44,-6.40,-6.69,2.97,2.97,2.92
69.37,9.38,6.45,9.38,6.45,-6.43,-6.37,-6.62,2.95,2.95,2.93
70.07,9.35,6.39,9.35,6.40,-6.42,-6.34,-6.54,2.93,2.93,2.96
70.77,9.31,6.36,9.31,6.36,-6.41,-6.31,-6.46,2.90,2.90,2.96
71.48,9.27,6.35,9.27,6.35,-6.39,-6.28,-6.38,2.88,2.88,2.93
72.19,9.23,6.35,9.23,6.36,-6.38,-6.26,-6.30,2.86,2.86,2.88
72.91,9.19,6.38,9.19,6.37,-6.36,-6.23,-6.21,2.84,2.84,2.82
73.64,9.15,6.38,9.15,6.37,-6.34,-6.20,-6.13,2.82,2.82,2.78
74.38,9.12,6.36,9.12,6.35,-6.31,-6.17,-6.05,2.81,2.81,2.76
75.12,9.09,6.31,9.09,6.31,-6.28,-6.14,-5.97,2.81,2.81,2.78
75.87,9.06,6.24,9.06,6.25,-6.24,-6.11,-5.89,2.82,2.82,2.81
76.63,9.03,6.18,9.03,6.18,-6.19,-6.08,-5.81,2.84,2.84,2.85
77.40,9.00,6.12,9.00,6.12,-6.14,-6.05,-5.73,2.86,2.86,2.88
78.17,8.98,6.08,8.98,6.07,-6.10,-6.02,-5.65,2.88,2.88,2.90
78.95,8.95,6.03,8.95,6.04,-6.06,-5.99,-5.58,2.90,2.90,2.92
79.74,8.92,6.01,8.92,6.01,-6.02,-5.96,-5.51,2.90,2.90,2.92
80.54,8.89,5.99,8.89,5.99,-6.00,-5.94,-5.44,2.90,2.90,2.91
81.35,8.86,5.97,8.86,5.97,-5.97,-5.91,-5.38,2.89,2.89,2.89
82.16,8.83,5.96,8.83,5.96,-5.95,-5.88,-5.32,2.88,2.88,2.86
82.98,8.80,5.95,8.80,5.95,-5.92,-5.85,-5.26,2.88,2.88,2.85
83.81,8.77,5.92,8.77,5.91,-5.88,-5.82,-5.21,2.88,2.88,2.84
84.65,8.74,5.86,8.74,5.86,-5.85,-5.79,-5.16,2.88,2.88,2.88
85.50,8.71,5.80,8.71,5.80,-5.82,-5.76,-5.11,2.89,2.89,2.91
86.35,8.68,5.74,8.68,5.75,-5.78,-5.73,-5.06,2.90,2.90,2.94
87.22,8.65,5.71,8.65,5.71,-5.74,-5.70,-5.03,2.91,2.91,2.94
88.09,8.62,5.69,8.62,5.69,-5.69,-5.67,-4.99,2.93,2.94,2.93
88.97,8.60,5.67,8.60,5.67,-5.64,-5.64,-4.96,2.96,2.96,2.93
89.86,8.57,5.64,8.57,5.63,-5.59,-5.61,-4.93,2.98,2.98,2.93
90.76,8.52,5.58,8.52,5.57,-5.54,-5.58,-4.90,2.98,2.98,2.94
91.66,8.47,5.50,8.46,5.50,-5.50,-5.55,-4.88,2.96,2.96,2.96
92.58,8.40,5.42,8.40,5.43,-5.47,-5.52,-4.87,2.92,2.92,2.98
93.51,8.33,5.38,8.33,5.39,-5.45,-5.49,-4.85,2.88,2.88,2.95
94.44,8.27,5.38,8.27,5.38,-5.43,-5.46,-4.84,2.85,2.85,2.90
95.39,8.24,5.40,8.24,5.40,-5.41,-5.42,-4.83,2.83,2.83,2.84
96.34,8.22,5.42,8.23,5.42,-5.40,-5.39,-4.83,2.82,2.83,2.80
97.30,8.23,5.42,8.23,5.42,-5.38,-5.36,-4.83,2.85,2.85,2.81
98.28,8.24,5.40,8.24,5.40,-5.36,-5.33,-4.83,2.88,2.88,2.84
99.26,8.23,5.36,8.23,5.36,-5.33,-5.29,-4.83,2.91,2.90,2.87
100.25,8.20,5.30,8.20,5.30,-5.28,-5.26,-4.84,2.92,2.92,2.90
101.25,8.14,5.22,8.14,5.22,-5.22,-5.22,-4.85,2.92,2.92,2.92
102.27,8.06,5.13,8.07,5.13,-5.14,-5.19,-4.86,2.92,2.92,2.93
103.29,7.99,5.05,7.99,5.05,-5.07,-5.15,-4.87,2.92,2.92,2.94
104.32,7.92,4.98,7.92,4.98,-4.99,-5.12,-4.88,2.93,2.93,2.94
105.37,7.87,4.91,7.86,4.91,-4.92,-5.08,-4.90,2.94,2.94,2.96
106.42,7.82,4.85,7.82,4.86,-4.86,-5.05,-4.91,2.96,2.96,2.97
107.48,7.78,4.81,7.78,4.81,-4.81,-5.01,-4.93,2.97,2.97,2.97
108.56,7.75,4.77,7.75,4.77,-4.77,-4.97,-4.94,2.98,2.98,2.98
109.64,7.73,4.74,7.73,4.74,-4.74,-4.93,-4.96,2.99,2.99,2.99
110.74,7.71,4.71,7.71,4.71,-4.72,-4.90,-4.97,2.99,2.99,3.00
111.85,7.69,4.69,7.69,4.70,-4.71,-4.86,-4.99,2.98,2.98,2.99
112.97,7.66,4.70,7.66,4.69,-4.70,-4.82,-5.00,2.96,2.96,2.96
114.10,7.63,4.70,7.63,4.70,-4.69,-4.78,-5.01,2.94,2.94,2.93
115.24,7.60,4.69,7.60,4.69,-4.69,-4.74,-5.01,2.91,2.92,2.91
116.39,7.57,4.69,7.57,4.69,-4.68,-4.70,-5.02,2.89,2.89,2.88
117.55,7.54,4.68,7.53,4.68,-4.68,-4.66,-5.02,2.86,2.86,2.86
118.73,7.50,4.67,7.50,4.67,-4.67,-4.61,-5.02,2.83,2.83,2.83
119.92,7.46,4.66,7.46,4.66,-4.66,-4.57,-5.01,2.80,2.80,2.80
121.12,7.41,4.64,7.41,4.64,-4.64,-4.53,-5.00,2.77,2.77,2.77
122.33,7.36,4.61,7.36,4.62,-4.61,-4.48,-4.98,2.75,2.75,2.75
123.55,7.31,4.58,7.31,4.59,-4.58,-4.44,-4.96,2.73,2.73,2.72
124.79,7.25,4.55,7.26,4.55,-4.54,-4.40,-4.93,2.72,2.72,2.71
126.03,7.20,4.50,7.20,4.50,-4.49,-4.35,-4.91,2.71,2.71,2.70
127.29,7.15,4.44,7.15,4.44,-4.43,-4.31,-4.87,2.72,2.72,2.70
128.57,7.10,4.37,7.10,4.37,-4.37,-4.26,-4.83,2.73,2.73,2.72
129.85,7.04,4.30,7.04,4.30,-4.30,-4.22,-4.78,2.74,2.74,2.75
131.15,6.99,4.22,6.99,4.22,-4.24,-4.17,-4.73,2.75,2.75,2.77
132.46,6.93,4.15,6.93,4.16,-4.17,-4.12,-4.68,2.77,2.77,2.78
133.79,6.88,4.10,6.88,4.09,-4.10,-4.08,-4.62,2.78,2.78,2.78
135.12,6.82,4.04,6.82,4.04,-4.04,-4.03,-4.56,2.78,2.78,2.78
136.48,6.77,3.98,6.77,3.98,-3.98,-3.98,-4.50,2.79,2.79,2.78
137.84,6.71,3.92,6.71,3.93,-3.92,-3.94,-4.43,2.78,2.78,2.78
139.22,6.65,3.87,6.65,3.87,-3.87,-3.89,-4.36,2.78,2.78,2.78
140.61,6.59,3.82,6.59,3.82,-3.81,-3.84,-4.28,2.78,2.78,2.78
142.02,6.54,3.76,6.54,3.76,-3.76,-3.79,-4.21,2.78,2.78,2.77
143.44,6.48,3.71,6.48,3.71,-3.71,-3.75,-4.13,2.78,2.78,2.77
144.87,6.43,3.65,6.43,3.65,-3.66,-3.70,-4.05,2.77,2.77,2.77
146.32,6.37,3.60,6.37,3.60,-3.61,-3.65,-3.97,2.76,2.76,2.77
147.78,6.32,3.55,6.32,3.55,-3.56,-3.60,-3.89,2.76,2.76,2.76
149.26,6.26,3.51,6.26,3.51,-3.52,-3.55,-3.81,2.75,2.75,2.75
150.75,6.21,3.47,6.21,3.47,-3.47,-3.50,-3.73,2.74,2.74,2.74
152.26,6.16,3.44,6.16,3.44,-3.44,-3.45,-3.65,2.73,2.73,2.72
153.78,6.11,3.40,6.11,3.40,-3.40,-3.41,-3.57,2.72,2.72,2.71
155.32,6.07,3.37,6.07,3.37,-3.37,-3.36,-3.49,2.70,2.70,2.70
156.88,6.02,3.33,6.02,3.33,-3.33,-3.31,-3.41,2.69,2.69,2.69
158.44,5.98,3.30,5.98,3.30,-3.30,-3.26,-3.33,2.68,2.68,2.68
160.03,5.93,3.26,5.93,3.26,-3.27,-3.21,-3.25,2.66,2.66,2.67
161.63,5.88,3.23,5.88,3.23,-3.23,-3.16,-3.18,2.65,2.65,2.65
163.24,5.83,3.20,5.83,3.20,-3.19,-3.12,-3.10,2.64,2.64,2.63
164.88,5.78,3.16,5.78,3.16,-3.15,-3.07,-3.03,2.63,2.63,2.62
166.53,5.73,3.11,5.73,3.11,-3.10,-3.02,-2.96,2.62,2.62,2.61
168.19,5.67,3.06,5.67,3.06,-3.06,-2.97,-2.89,2.61,2.61,2.61
169.87,5.61,3.01,5.61,3.01,-3.01,-2.93,-2.83,2.60,2.60,2.60
171.57,5.55,2.95,5.55,2.95,-2.96,-2.88,-2.76,2.59,2.59,2.59
173.29,5.48,2.90,5.48,2.90,-2.91,-2.83,-2.70,2.58,2.58,2.58
175.02,5.42,2.85,5.42,2.85,-2.86,-2.78,-2.64,2.57,2.56,2.57
176.77,5.36,2.81,5.36,2.81,-2.80,-2.74,-2.58,2.55,2.55,2.55
178.54,5.29,2.76,5.29,2.76,-2.76,-2.69,-2.52,2.54,2.54,2.54
180.32,5.23,2.71,5.23,2.71,-2.71,-2.64,-2.47,2.53,2.53,2.52
182.13,5.17,2.66,5.17,2.66,-2.66,-2.60,-2.41,2.51,2.51,2.51
183.95,5.11,2.61,5.11,2.61,-2.61,-2.55,-2.36,2.50,2.50,2.50
185.79,5.04,2.56,5.04,2.56,-2.56,-2.51,-2.31,2.48,2.48,2.48
187.65,4.98,2.51,4.98,2.51,-2.51,-2.46,-2.26,2.47,2.47,2.47
189.52,4.91,2.46,4.91,2.46,-2.46,-2.42,-2.22,2.45,2.45,2.45
191.42,4.85,2.41,4.85,2.41,-2.41,-2.37,-2.17,2.43,2.43,2.43
193.33,4.78,2.37,4.78,2.37,-2.36,-2.33,-2.13,2.42,2.42,2.42
195.27,4.71,2.32,4.71,2.32,-2.31,-2.28,-2.09,2.40,2.40,2.40
197.22,4.65,2.26,4.65,2.26,-2.26,-2.24,-2.05,2.38,2.38,2.38
199.19,4.58,2.21,4.58,2.21,-2.21,-2.19,-2.01,2.37,2.37,2.37
201.18,4.51,2.16,4.51,2.16,-2.16,-2.15,-1.97,2.35,2.35,2.36
203.19,4.45,2.11,4.45,2.11,-2.11,-2.11,-1.94,2.33,2.33,2.34
205.23,4.38,2.06,4.38,2.06,-2.06,-2.07,-1.90,2.32,2.32,2.32
207.28,4.32,2.01,4.32,2.01,-2.01,-2.03,-1.87,2.31,2.31,2.30
209.35,4.25,1.96,4.25,1.96,-1.96,-1.99,-1.84,2.29,2.29,2.29
211.44,4.18,1.91,4.18,1.91,-1.91,-1.95,-1.81,2.28,2.28,2.27
213.56,4.11,1.86,4.11,1.86,-1.85,-1.91,-1.78,2.26,2.26,2.26
215.69,4.04,1.80,4.04,1.80,-1.79,-1.87,-1.75,2.25,2.25,2.24
217.85,3.96,1.74,3.96,1.74,-1.73,-1.83,-1.72,2.23,2.23,2.22
220.03,3.89,1.68,3.89,1.68,-1.67,-1.80,-1.69,2.21,2.21,2.21
222.23,3.81,1.62,3.81,1.62,-1.62,-1.76,-1.67,2.19,2.19,2.19
224.45,3.74,1.56,3.74,1.56,-1.57,-1.73,-1.64,2.17,2.17,2.17
226.70,3.67,1.51,3.67,1.52,-1.52,-1.69,-1.62,2.14,2.15,2.15
228.96,3.61,1.48,3.61,1.48,-1.49,-1.66,-1.59,2.12,2.12,2.13
231.25,3.57,1.46,3.57,1.46,-1.48,-1.63,-1.57,2.09,2.09,2.11
233.57,3.54,1.45,3.54,1.45,-1.47,-1.60,-1.54,2.07,2.07,2.09
235.90,3.53,1.46,3.53,1.46,-1.48,-1.56,-1.52,2.06,2.06,2.07
238.26,3.54,1.49,3.53,1.48,-1.49,-1.53,-1.49,2.05,2.05,2.05
240.64,3.54,1.51,3.54,1.51,-1.51,-1.50,-1.47,2.03,2.03,2.03
243.05,3.55,1.54,3.55,1.54,-1.53,-1.47,-1.44,2.02,2.02,2.01
245.48,3.54,1.56,3.54,1.56,-1.54,-1.44,-1.42,2.00,2.00,1.99
247.93,3.53,1.56,3.53,1.56,-1.55,-1.41,-1.39,1.98,1.98,1.97
250.41,3.51,1.56,3.50,1.56,-1.55,-1.38,-1.37,1.96,1.96,1.94
252.92,3.47,1.54,3.47,1.54,-1.54,-1.35,-1.34,1.93,1.93,1.92
255.45,3.42,1.52,3.42,1.52,-1.52,-1.32,-1.32,1.90,1.90,1.90
258.00,3.37,1.49,3.37,1.49,-1.49,-1.29,-1.29,1.88,1.88,1.88
260.58,3.31,1.45,3.31,1.45,-1.45,-1.26,-1.26,1.86,1.86,1.86
263.19,3.25,1.41,3.25,1.41,-1.41,-1.23,-1.24,1.83,1.83,1.84
265.82,3.18,1.37,3.18,1.37,-1.37,-1.20,-1.21,1.81,1.81,1.82
268.48,3.12,1.32,3.12,1.32,-1.33,-1.17,-1.18,1.79,1.79,1.80
271.16,3.05,1.28,3.05,1.28,-1.28,-1.15,-1.16,1.77,1.77,1.77
273.87,2.99,1.24,2.99,1.24,-1.24,-1.12,-1.13,1.75,1.75,1.75
276.61,2.93,1.20,2.93,1.20,-1.20,-1.09,-1.10,1.73,1.73,1.73
279.38,2.86,1.16,2.86,1.16,-1.16,-1.06,-1.07,1.70,1.70,1.70
282.17,2.80,1.12,2.80,1.12,-1.12,-1.04,-1.05,1.68,1.68,1.68
284.99,2.74,1.09,2.74,1.09,-1.09,-1.01,-1.02,1.65,1.65,1.65
287.84,2.68,1.05,2.68,1.05,-1.05,-0.98,-0.99,1.63,1.63,1.63
290.72,2.62,1.01,2.62,1.01,-1.01,-0.96,-0.96,1.60,1.60,1.60
293.63,2.56,0.98,2.56,0.98,-0.98,-0.93,-0.94,1.58,1.58,1.58
296.57,2.50,0.94,2.50,0.94,-0.94,-0.91,-0.91,1.56,1.56,1.56
299.53,2.44,0.90,2.44,0.91,-0.91,-0.88,-0.88,1.53,1.53,1.53
302.53,2.38,0.87,2.38,0.87,-0.87,-0.86,-0.85,1.50,1.50,1.50
305.55,2.32,0.84,2.32,0.84,-0.84,-0.83,-0.83,1.48,1.48,1.48
308.61,2.26,0.81,2.26,0.81,-0.81,-0.81,-0.80,1.45,1.45,1.45
311.69,2.20,0.77,2.20,0.77,-0.77,-0.78,-0.77,1.43,1.43,1.43
314.81,2.14,0.74,2.14,0.74,-0.74,-0.76,-0.75,1.40,1.40,1.40
317.96,2.09,0.71,2.09,0.71,-0.71,-0.74,-0.72,1.38,1.38,1.38
321.14,2.03,0.68,2.03,0.68,-0.68,-0.71,-0.70,1.35,1.35,1.35
324.35,1.97,0.65,1.97,0.65,-0.65,-0.69,-0.67,1.32,1.32,1.32
327.59,1.92,0.62,1.92,0.62,-0.62,-0.67,-0.65,1.30,1.30,1.30
330.87,1.86,0.59,1.86,0.59,-0.59,-0.64,-0.62,1.27,1.27,1.27
334.18,1.81,0.56,1.81,0.56,-0.56,-0.62,-0.60,1.25,1.25,1.25
337.52,1.75,0.53,1.75,0.53,-0.53,-0.60,-0.57,1.22,1.22,1.22
340.90,1.70,0.51,1.70,0.51,-0.51,-0.58,-0.55,1.19,1.19,1.19
344.30,1.64,0.48,1.64,0.48,-0.48,-0.56,-0.53,1.16,1.16,1.16
347.75,1.59,0.46,1.59,0.46,-0.46,-0.53,-0.50,1.14,1.14,1.14
351.23,1.54,0.43,1.54,0.43,-0.43,-0.51,-0.48,1.11,1.11,1.11
354.74,1.49,0.41,1.49,0.41,-0.41,-0.49,-0.46,1.08,1.08,1.08
358.28,1.44,0.38,1.44,0.38,-0.38,-0.47,-0.44,1.05,1.05,1.05
361.87,1.38,0.36,1.38,0.36,-0.36,-0.45,-0.41,1.02,1.02,1.02
365.49,1.33,0.34,1.33,0.34,-0.34,-0.43,-0.39,0.99,0.99,0.99
369.14,1.28,0.31,1.28,0.31,-0.31,-0.41,-0.37,0.97,0.97,0.97
372.83,1.23,0.29,1.23,0.29,-0.29,-0.39,-0.35,0.94,0.94,0.94
376.56,1.18,0.27,1.18,0.27,-0.27,-0.37,-0.33,0.91,0.91,0.91
380.33,1.13,0.25,1.13,0.25,-0.25,-0.35,-0.31,0.88,0.88,0.88
384.13,1.08,0.23,1.08,0.23,-0.23,-0.33,-0.29,0.85,0.85,0.85
387.97,1.03,0.21,1.03,0.21,-0.21,-0.31,-0.27,0.82,0.82,0.82
391.85,0.98,0.19,0.98,0.19,-0.19,-0.29,-0.25,0.79,0.79,0.79
395.77,0.93,0.17,0.93,0.17,-0.17,-0.27,-0.23,0.76,0.76,0.76
399.73,0.88,0.15,0.88,0.15,-0.15,-0.25,-0.21,0.73,0.73,0.73
403.72,0.83,0.13,0.83,0.13,-0.13,-0.23,-0.19,0.71,0.71,0.70
407.76,0.79,0.11,0.79,0.11,-0.11,-0.21,-0.17,0.68,0.68,0.68
411.84,0.74,0.09,0.74,0.09,-0.09,-0.20,-0.15,0.65,0.65,0.65
415.96,0.69,0.07,0.69,0.07,-0.07,-0.18,-0.14,0.62,0.62,0.62
420.12,0.65,0.05,0.65,0.05,-0.05,-0.16,-0.12,0.59,0.59,0.59
424.32,0.60,0.04,0.60,0.04,-0.04,-0.14,-0.10,0.56,0.56,0.56
428.56,0.56,0.02,0.56,0.02,-0.02,-0.12,-0.08,0.53,0.53,0.54
432.85,0.51,0.01,0.51,0.01,-0.01,-0.10,-0.06,0.51,0.51,0.51
437.18,0.47,-0.01,0.47,-0.01,0.01,-0.09,-0.05,0.48,0.48,0.48
441.55,0.42,-0.02,0.42,-0.02,0.02,-0.07,-0.03,0.45,0.45,0.45
445.96,0.38,-0.04,0.38,-0.04,0.04,-0.05,-0.01,0.42,0.42,0.42
450.42,0.34,-0.05,0.34,-0.05,0.05,-0.03,0.00,0.39,0.39,0.39
454.93,0.29,-0.06,0.29,-0.06,0.06,-0.02,0.02,0.36,0.36,0.36
459.48,0.25,-0.08,0.25,-0.08,0.08,0.00,0.03,0.33,0.33,0.33
464.07,0.21,-0.09,0.21,-0.09,0.09,0.02,0.05,0.30,0.30,0.30
468.71,0.17,-0.10,0.17,-0.10,0.10,0.03,0.06,0.27,0.27,0.27
473.40,0.13,-0.11,0.13,-0.11,0.11,0.05,0.08,0.24,0.24,0.24
478.13,0.09,-0.12,0.09,-0.12,0.12,0.07,0.09,0.21,0.21,0.21
482.91,0.05,-0.13,0.05,-0.13,0.13,0.08,0.11,0.18,0.18,0.18
487.74,0.01,-0.14,0.01,-0.14,0.14,0.10,0.12,0.15,0.15,0.15
492.62,-0.03,-0.15,-0.03,-0.15,0.15,0.11,0.14,0.13,0.13,0.13
497.55,-0.07,-0.16,-0.07,-0.16,0.16,0.13,0.15,0.10,0.10,0.10
502.52,-0.10,-0.17,-0.10,-0.17,0.17,0.15,0.16,0.07,0.07,0.07
507.55,-0.14,-0.18,-0.14,-0.18,0.18,0.16,0.17,0.04,0.04,0.04
512.62,-0.17,-0.18,-0.17,-0.18,0.18,0.18,0.19,0.01,0.01,0.01
517.75,-0.21,-0.19,-0.21,-0.19,0.18,0.19,0.20,-0.03,-0.03,-0.02
522.93,-0.24,-0.19,-0.24,-0.19,0.19,0.21,0.21,-0.06,-0.06,-0.06
528.16,-0.28,-0.19,-0.28,-0.19,0.19,0.22,0.22,-0.09,-0.09,-0.09
