frequency,raw,error,smoothed,error_smoothed,equalization,parametric_eq,fixed_band_eq,equalized_raw,equalized_smoothed,target
20.00,6.36,7.76,6.35,7.75,-7.72,-7.57,-3.08,-1.36,-1.37,-1.40
20.20,6.41,7.78,6.42,7.80,-7.80,-7.79,-3.17,-1.39,-1.38,-1.37
20.40,6.47,7.82,6.49,7.83,-7.86,-8.02,-3.25,-1.38,-1.37,-1.35
20.61,6.55,7.87,6.55,7.86,-7.89,-8.06,-3.35,-1.34,-1.34,-1.32
20.81,6.63,7.88,6.63,7.88,-7.90,-8.10,-3.44,-1.27,-1.27,-1.25
21.02,6.69,7.88,6.69,7.89,-7.88,-7.98,-3.54,-1.19,-1.19,-1.19
21.23,6.74,7.86,6.73,7.86,-7.84,-7.86,-3.64,-1.10,-1.11,-1.12
21.44,6.75,7.81,6.75,7.80,-7.77,-7.68,-3.74,-1.02,-1.02,-1.06
21.66,6.74,7.71,6.74,7.72,-7.67,-7.50,-3.84,-0.93,-0.93,-0.97
21.87,6.71,7.59,6.71,7.58,-7.53,-7.34,-3.95,-0.82,-0.82,-0.88
22.09,6.67,7.42,6.67,7.42,-7.37,-7.18,-4.06,-0.70,-0.70,-0.74
22.31,6.63,7.22,6.63,7.22,-7.20,-7.07,-4.18,-0.56,-0.56,-0.59
22.54,6.60,7.02,6.60,7.02,-7.02,-6.95,-4.30,-0.42,-0.42,-0.42
22.76,6.58,6.82,6.58,6.82,-6.86,-6.88,-4.42,-0.28,-0.28,-0.25
22.99,6.57,6.66,6.57,6.67,-6.72,-6.81,-4.54,-0.15,-0.15,-0.09
23.22,6.58,6.56,6.58,6.56,-6.63,-6.78,-4.67,-0.05,-0.05,0.02
23.45,6.59,6.51,6.59,6.52,-6.59,-6.75,-4.80,-0.00,-0.00,0.08
23.69,6.60,6.53,6.60,6.54,-6.60,-6.75,-4.93,0.00,0.00,0.07
23.92,6.61,6.61,6.61,6.61,-6.65,-6.76,-5.06,-0.04,-0.04,0.01
24.16,6.62,6.72,6.62,6.72,-6.74,-6.79,-5.20,-0.12,-0.12,-0.10
24.40,6.62,6.86,6.62,6.86,-6.83,-6.82,-5.34,-0.22,-0.22,-0.24
24.65,6.61,6.99,6.61,6.98,-6.92,-6.86,-5.48,-0.31,-0.31,-0.38
24.89,6.61,7.08,6.61,7.08,-7.00,-6.91,-5.63,-0.39,-0.39,-0.48
25.14,6.60,7.12,6.60,7.12,-7.04,-6.96,-5.77,-0.44,-0.44,-0.52
25.39,6.60,7.13,6.60,7.12,-7.06,-7.00,-5.92,-0.46,-0.46,-0.53
25.65,6.60,7.07,6.60,7.07,-7.06,-7.03,-6.07,-0.45,-0.45,-0.47
25.91,6.60,7.01,6.60,7.01,-7.04,-7.05,-6.22,-0.43,-0.43,-0.40
26.16,6.60,6.94,6.60,6.95,-7.01,-7.05,-6.37,-0.40,-0.40,-0.34
26.43,6.60,6.90,6.60,6.91,-6.97,-7.05,-6.52,-0.37,-0.37,-0.30
26.69,6.60,6.90,6.60,6.90,-6.94,-7.01,-6.66,-0.34,-0.34,-0.30
26.96,6.60,6.90,6.60,6.91,-6.91,-6.97,-6.81,-0.32,-0.32,-0.31
27.23,6.59,6.92,6.59,6.91,-6.88,-6.92,-6.95,-0.29,-0.29,-0.32
27.50,6.59,6.91,6.59,6.90,-6.85,-6.86,-7.10,-0.26,-0.26,-0.32
27.77,6.59,6.86,6.59,6.86,-6.81,-6.79,-7.23,-0.22,-0.22,-0.28
28.05,6.58,6.80,6.58,6.79,-6.76,-6.73,-7.36,-0.18,-0.18,-0.21
28.33,6.58,6.70,6.58,6.70,-6.71,-6.67,-7.49,-0.13,-0.13,-0.12
28.62,6.57,6.61,6.57,6.62,-6.65,-6.61,-7.61,-0.08,-0.08,-0.04
28.90,6.56,6.54,6.56,6.54,-6.59,-6.56,-7.72,-0.02,-0.02,0.02
29.19,6.55,6.49,6.55,6.49,-6.52,-6.51,-7.82,0.03,0.03,0.06
29.48,6.54,6.46,6.55,6.46,-6.45,-6.47,-7.91,0.09,0.09,0.09
29.78,6.54,6.42,6.54,6.42,-6.39,-6.43,-7.99,0.15,0.15,0.11
30.08,6.53,6.38,6.53,6.37,-6.33,-6.39,-8.06,0.20,0.20,0.15
30.38,6.52,6.32,6.52,6.31,-6.28,-6.36,-8.12,0.24,0.24,0.20
30.68,6.51,6.24,6.51,6.24,-6.25,-6.33,-8.16,0.26,0.26,0.27
30.99,6.49,6.18,6.49,6.18,-6.24,-6.30,-8.20,0.25,0.25,0.31
31.30,6.47,6.15,6.47,6.15,-6.24,-6.28,-8.21,0.23,0.23,0.32
31.61,6.44,6.16,6.44,6.17,-6.25,-6.25,-8.22,0.20,0.20,0.28
31.93,6.42,6.23,6.42,6.23,-6.26,-6.23,-8.21,0.16,0.16,0.19
32.24,6.40,6.30,6.40,6.30,-6.26,-6.21,-8.19,0.14,0.14,0.10
32.57,6.38,6.36,6.38,6.35,-6.26,-6.19,-8.16,0.12,0.12,0.02
32.89,6.37,6.36,6.37,6.35,-6.24,-6.17,-8.12,0.13,0.13,0.01
33.22,6.36,6.29,6.36,6.28,-6.21,-6.15,-8.06,0.15,0.15,0.07
33.55,6.34,6.18,6.34,6.17,-6.16,-6.13,-7.99,0.18,0.18,0.17
33.89,6.33,6.04,6.32,6.05,-6.10,-6.11,-7.92,0.23,0.23,0.28
34.23,6.30,5.95,6.30,5.96,-6.04,-6.09,-7.84,0.27,0.27,0.35
34.57,6.28,5.90,6.28,5.91,-5.98,-6.07,-7.74,0.30,0.30,0.38
34.92,6.26,5.90,6.26,5.90,-5.94,-6.05,-7.65,0.32,0.32,0.36
35.27,6.23,5.92,6.23,5.91,-5.91,-6.03,-7.54,0.32,0.32,0.32
35.62,6.21,5.94,6.21,5.93,-5.91,-6.01,-7.44,0.30,0.30,0.27
35.97,6.19,5.95,6.19,5.94,-5.91,-5.99,-7.33,0.27,0.27,0.24
36.33,6.16,5.94,6.16,5.95,-5.93,-5.97,-7.21,0.24,0.24,0.22
36.70,6.14,5.94,6.14,5.94,-5.94,-5.95,-7.10,0.20,0.20,0.20
37.06,6.11,5.94,6.11,5.95,-5.95,-5.93,-6.98,0.16,0.16,0.17
37.43,6.09,5.95,6.09,5.95,-5.96,-5.90,-6.87,0.13,0.13,0.14
37.81,6.07,5.96,6.07,5.96,-5.97,-5.88,-6.75,0.10,0.10,0.11
38.19,6.06,5.96,6.06,5.96,-5.98,-5.86,-6.64,0.07,0.07,0.09
38.57,6.05,5.97,6.05,5.97,-6.00,-5.83,-6.52,0.05,0.05,0.08
38.95,6.04,5.98,6.04,5.98,-6.00,-5.81,-6.41,0.03,0.03,0.06
39.34,6.03,6.00,6.02,6.00,-5.99,-5.78,-6.30,0.03,0.03,0.03
39.74,6.01,6.01,6.01,6.01,-5.97,-5.75,-6.20,0.04,0.04,0.01
40.14,6.00,5.99,6.00,5.98,-5.92,-5.73,-6.09,0.07,0.07,0.01
40.54,5.98,5.93,5.98,5.92,-5.86,-5.70,-5.99,0.12,0.12,0.05
40.94,5.96,5.81,5.96,5.81,-5.77,-5.67,-5.90,0.18,0.19,0.15
41.35,5.94,5.68,5.94,5.68,-5.68,-5.64,-5.80,0.26,0.26,0.26
41.76,5.93,5.55,5.93,5.56,-5.59,-5.61,-5.71,0.33,0.34,0.37
42.18,5.91,5.47,5.91,5.46,-5.51,-5.58,-5.63,0.40,0.40,0.45
42.60,5.90,5.39,5.90,5.39,-5.46,-5.55,-5.54,0.44,0.44,0.51
43.03,5.88,5.36,5.88,5.36,-5.43,-5.52,-5.47,0.46,0.46,0.52
43.46,5.86,5.36,5.86,5.36,-5.42,-5.49,-5.39,0.44,0.44,0.50
43.90,5.84,5.39,5.84,5.39,-5.43,-5.46,-5.32,0.41,0.41,0.45
44.33,5.82,5.44,5.81,5.45,-5.43,-5.43,-5.25,0.38,0.38,0.37
44.78,5.79,5.50,5.79,5.50,-5.42,-5.39,-5.19,0.37,0.37,0.29
45.23,5.76,5.51,5.76,5.50,-5.38,-5.36,-5.13,0.38,0.38,0.24
45.68,5.73,5.45,5.73,5.43,-5.32,-5.33,-5.08,0.41,0.41,0.28
46.13,5.70,5.31,5.70,5.30,-5.23,-5.30,-5.03,0.47,0.47,0.39
46.60,5.67,5.12,5.67,5.13,-5.13,-5.26,-4.98,0.54,0.54,0.55
47.06,5.64,4.96,5.64,4.96,-5.03,-5.23,-4.94,0.61,0.61,0.68
47.53,5.62,4.83,5.62,4.84,-4.95,-5.19,-4.90,0.67,0.67,0.79
48.01,5.59,4.79,5.59,4.79,-4.89,-5.16,-4.86,0.70,0.70,0.81
48.49,5.57,4.79,5.57,4.79,-4.86,-5.13,-4.83,0.70,0.70,0.78
48.97,5.54,4.84,5.54,4.84,-4.87,-5.09,-4.80,0.67,0.67,0.70
49.46,5.51,4.91,5.51,4.91,-4.90,-5.06,-4.77,0.61,0.61,0.61
49.96,5.48,4.98,5.48,4.97,-4.93,-5.03,-4.74,0.55,0.55,0.50
50.46,5.45,5.02,5.45,5.02,-4.95,-4.99,-4.72,0.50,0.50,0.44
50.96,5.42,5.03,5.42,5.02,-4.94,-4.96,-4.70,0.48,0.48,0.39
51.47,5.39,4.99,5.39,4.98,-4.90,-4.92,-4.69,0.49,0.49,0.40
51.99,5.36,4.89,5.36,4.89,-4.84,-4.89,-4.67,0.53,0.53,0.47
52.51,5.33,4.77,5.33,4.77,-4.76,-4.86,-4.66,0.58,0.58,0.56
53.03,5.30,4.63,5.30,4.64,-4.68,-4.82,-4.65,0.62,0.62,0.67
53.56,5.27,4.53,5.27,4.53,-4.61,-4.79,-4.64,0.65,0.65,0.74
54.10,5.23,4.47,5.23,4.48,-4.57,-4.76,-4.63,0.67,0.67,0.76
54.64,5.20,4.48,5.20,4.49,-4.55,-4.73,-4.62,0.65,0.65,0.72
55.18,5.17,4.54,5.17,4.54,-4.56,-4.69,-4.61,0.60,0.60,0.62
55.74,5.14,4.62,5.14,4.61,-4.61,-4.66,-4.60,0.53,0.53,0.52
56.29,5.11,4.69,5.11,4.69,-4.67,-4.63,-4.59,0.44,0.44,0.41
56.86,5.08,4.76,5.08,4.76,-4.74,-4.60,-4.58,0.34,0.34,0.32
57.42,5.05,4.82,5.05,4.83,-4.81,-4.57,-4.57,0.24,0.24,0.23
58.00,5.02,4.88,5.02,4.88,-4.86,-4.54,-4.55,0.16,0.16,0.14
58.58,5.00,4.90,5.00,4.91,-4.89,-4.50,-4.54,0.11,0.11,0.09
59.16,4.97,4.91,4.97,4.91,-4.89,-4.47,-4.52,0.08,0.08,0.06
59.76,4.94,4.89,4.94,4.89,-4.87,-4.44,-4.50,0.07,0.07,0.05
60.35,4.91,4.84,4.91,4.84,-4.81,-4.41,-4.48,0.09,0.09,0.07
60.96,4.88,4.77,4.88,4.76,-4.74,-4.38,-4.45,0.14,0.14,0.11
61.57,4.84,4.66,4.84,4.66,-4.64,-4.35,-4.43,0.20,0.20,0.18
62.18,4.80,4.53,4.80,4.54,-4.52,-4.33,-4.40,0.28,0.28,0.27
62.80,4.77,4.40,4.77,4.40,-4.41,-4.30,-4.36,0.36,0.36,0.36
63.43,4.73,4.28,4.73,4.28,-4.30,-4.27,-4.33,0.43,0.43,0.45
64.07,4.69,4.16,4.69,4.17,-4.20,-4.24,-4.29,0.49,0.49,0.53
64.71,4.66,4.08,4.66,4.08,-4.13,-4.21,-4.25,0.53,0.53,0.58
65.35,4.62,4.03,4.62,4.03,-4.08,-4.18,-4.20,0.55,0.55,0.59
66.01,4.59,4.00,4.59,4.01,-4.04,-4.15,-4.15,0.55,0.55,0.59
66.67,4.56,4.02,4.56,4.02,-4.02,-4.13,-4.10,0.54,0.54,0.54
67.33,4.53,4.04,4.53,4.04,-4.00,-4.10,-4.05,0.52,0.52,0.49
68.01,4.50,4.06,4.50,4.05,-3.99,-4.07,-3.99,0.51,0.51,0.44
68.69,4.47,4.03,4.46,4.03,-3.98,-4.04,-3.94,0.49,0.49,0.44
69.37,4.43,3.98,4.43,3.98,-3.96,-4.01,-3.88,0.47,0.47,0.45
70.07,4.40,3.93,4.39,3.93,-3.95,-3.98,-3.82,0.44,0.44,0.47
70.77,4.35,3.88,4.35,3.89,-3.94,-3.95,-3.76,0.41,0.41,0.47
71.48,4.31,3.87,4.31,3.87,-3.93,-3.92,-3.69,0.39,0.39,0.44
72.19,4.27,3.88,4.27,3.89,-3.91,-3.89,-3.63,0.36,0.36,0.39
72.91,4.24,3.91,4.24,3.90,-3.89,-3.86,-3.57,0.35,0.35,0.33
73.64,4.21,3.92,4.21,3.91,-3.87,-3.83,-3.50,0.33,0.33,0.29
74.38,4.17,3.90,4.17,3.89,-3.85,-3.80,-3.44,0.33,0.33,0.28
75.12,4.14,3.85,4.14,3.85,-3.81,-3.77,-3.37,0.33,0.33,0.29
75.87,4.11,3.78,4.11,3.78,-3.77,-3.73,-3.31,0.34,0.34,0.33
76.63,4.07,3.71,4.07,3.71,-3.71,-3.70,-3.25,0.35,0.35,0.36
77.40,4.03,3.63,4.03,3.63,-3.65,-3.66,-3.19,0.37,0.37,0.39
78.17,3.99,3.57,3.99,3.57,-3.59,-3.63,-3.13,0.39,0.39,0.41
78.95,3.95,3.52,3.95,3.52,-3.54,-3.59,-3.07,0.40,0.40,0.43
79.74,3.91,3.48,3.91,3.48,-3.50,-3.55,-3.01,0.41,0.41,0.43
80.54,3.87,3.45,3.87,3.45,-3.46,-3.51,-2.95,0.40,0.40,0.42
81.35,3.83,3.43,3.83,3.43,-3.43,-3.48,-2.90,0.40,0.40,0.40
82.16,3.79,3.42,3.80,3.42,-3.40,-3.43,-2.84,0.40,0.40,0.38
82.98,3.76,3.39,3.76,3.39,-3.36,-3.39,-2.79,0.40,0.40,0.36
83.81,3.72,3.36,3.72,3.35,-3.32,-3.35,-2.74,0.40,0.40,0.36
84.65,3.68,3.29,3.68,3.29,-3.28,-3.31,-2.69,0.40,0.40,0.39
85.50,3.64,3.21,3.64,3.22,-3.23,-3.26,-2.65,0.41,0.41,0.42
86.35,3.59,3.14,3.59,3.15,-3.17,-3.22,-2.60,0.42,0.42,0.45
87.22,3.55,3.09,3.55,3.10,-3.11,-3.17,-2.56,0.43,0.43,0.45
88.09,3.50,3.06,3.50,3.06,-3.05,-3.13,-2.52,0.45,0.45,0.45
88.97,3.46,3.02,3.46,3.02,-3.00,-3.09,-2.48,0.46,0.46,0.44
89.86,3.41,2.97,3.41,2.97,-2.95,-3.04,-2.44,0.47,0.47,0.44
90.76,3.37,2.91,3.37,2.91,-2.91,-3.00,-2.41,0.46,0.46,0.46
91.66,3.33,2.86,3.33,2.85,-2.88,-2.96,-2.37,0.45,0.45,0.48
92.58,3.30,2.81,3.30,2.82,-2.86,-2.92,-2.34,0.43,0.43,0.49
93.51,3.26,2.80,3.26,2.80,-2.84,-2.87,-2.31,0.42,0.42,0.46
94.44,3.23,2.82,3.22,2.82,-2.82,-2.83,-2.28,0.40,0.40,0.41
95.39,3.19,2.84,3.19,2.83,-2.80,-2.79,-2.25,0.39,0.39,0.35
96.34,3.15,2.84,3.15,2.83,-2.78,-2.76,-2.23,0.37,0.37,0.31
97.30,3.11,2.79,3.11,2.79,-2.75,-2.72,-2.20,0.36,0.36,0.32
98.28,3.08,2.73,3.08,2.73,-2.71,-2.68,-2.18,0.36,0.36,0.35
99.26,3.04,2.65,3.04,2.66,-2.67,-2.64,-2.16,0.37,0.37,0.39
100.25,3.00,2.59,3.00,2.59,-2.61,-2.60,-2.14,0.39,0.39,0.42
101.25,2.97,2.53,2.97,2.54,-2.56,-2.56,-2.12,0.41,0.41,0.44
102.27,2.93,2.49,2.93,2.49,-2.50,-2.53,-2.10,0.44,0.44,0.44
103.29,2.89,2.44,2.89,2.44,-2.44,-2.49,-2.09,0.45,0.45,0.45
104.32,2.85,2.40,2.85,2.39,-2.39,-2.45,-2.07,0.46,0.46,0.46
105.37,2.81,2.34,2.81,2.35,-2.34,-2.41,-2.06,0.47,0.47,0.47
106.42,2.78,2.30,2.78,2.30,-2.29,-2.37,-2.04,0.48,0.48,0.48
107.48,2.74,2.25,2.74,2.25,-2.25,-2.33,-2.03,0.49,0.49,0.48
108.56,2.71,2.21,2.71,2.21,-2.21,-2.30,-2.02,0.50,0.50,0.49
109.64,2.67,2.16,2.67,2.16,-2.17,-2.26,-2.00,0.50,0.50,0.51
110.74,2.63,2.12,2.63,2.12,-2.13,-2.22,-1.99,0.50,0.50,0.51
111.85,2.60,2.09,2.60,2.10,-2.11,-2.18,-1.98,0.49,0.49,0.51
112.97,2.56,2.08,2.56,2.08,-2.09,-2.15,-1.97,0.47,0.47,0.48
114.10,2.52,2.07,2.52,2.07,-2.07,-2.11,-1.95,0.45,0.45,0.45
115.24,2.48,2.06,2.48,2.06,-2.06,-2.07,-1.94,0.42,0.42,0.42
116.39,2.45,2.05,2.45,2.05,-2.05,-2.03,-1.93,0.40,0.40,0.40
117.55,2.42,2.05,2.42,2.05,-2.05,-2.00,-1.91,0.37,0.37,0.37
118.73,2.39,2.04,2.39,2.04,-2.04,-1.96,-1.90,0.34,0.34,0.34
119.92,2.35,2.04,2.35,2.03,-2.03,-1.93,-1.88,0.32,0.32,0.31
121.12,2.31,2.02,2.31,2.02,-2.02,-1.89,-1.87,0.29,0.29,0.29
122.33,2.26,2.00,2.26,2.00,-2.00,-1.86,-1.85,0.26,0.26,0.26
123.55,2.21,1.98,2.21,1.98,-1.97,-1.83,-1.83,0.24,0.24,0.24
124.79,2.17,1.95,2.17,1.95,-1.94,-1.79,-1.82,0.23,0.23,0.22
126.03,2.12,1.91,2.12,1.91,-1.89,-1.76,-1.80,0.23,0.23,0.21
127.29,2.08,1.86,2.08,1.86,-1.84,-1.73,-1.78,0.23,0.23,0.22
128.57,2.03,1.80,2.03,1.80,-1.79,-1.70,-1.75,0.24,0.24,0.23
129.85,1.99,1.73,1.99,1.73,-1.74,-1.66,-1.73,0.25,0.25,0.26
131.15,1.95,1.66,1.95,1.67,-1.68,-1.63,-1.71,0.27,0.27,0.28
132.46,1.91,1.61,1.91,1.61,-1.63,-1.60,-1.68,0.28,0.28,0.29
133.79,1.87,1.57,1.87,1.57,-1.58,-1.57,-1.66,0.29,0.29,0.30
135.12,1.83,1.53,1.83,1.53,-1.53,-1.55,-1.63,0.30,0.30,0.30
136.48,1.79,1.49,1.79,1.49,-1.49,-1.52,-1.60,0.30,0.30,0.30
137.84,1.75,1.46,1.75,1.46,-1.45,-1.49,-1.58,0.30,0.30,0.30
139.22,1.72,1.42,1.72,1.42,-1.42,-1.46,-1.55,0.30,0.30,0.29
140.61,1.68,1.39,1.68,1.39,-1.39,-1.44,-1.52,0.29,0.29,0.29
142.02,1.65,1.36,1.65,1.36,-1.36,-1.41,-1.49,0.29,0.29,0.29
143.44,1.62,1.33,1.62,1.33,-1.33,-1.38,-1.46,0.29,0.29,0.29
144.87,1.59,1.31,1.59,1.31,-1.31,-1.36,-1.43,0.28,0.28,0.29
146.32,1.57,1.29,1.57,1.29,-1.29,-1.33,-1.40,0.28,0.28,0.28
147.78,1.55,1.27,1.55,1.27,-1.28,-1.31,-1.37,0.27,0.27,0.28
149.26,1.53,1.26,1.53,1.26,-1.26,-1.29,-1.34,0.26,0.26,0.26
150.75,1.51,1.26,1.51,1.26,-1.25,-1.26,-1.31,0.25,0.25,0.25
152.26,1.49,1.25,1.49,1.25,-1.25,-1.24,-1.28,0.24,0.24,0.24
153.78,1.47,1.24,1.47,1.24,-1.24,-1.22,-1.25,0.23,0.23,0.23
155.32,1.45,1.23,1.45,1.23,-1.23,-1.20,-1.23,0.22,0.22,0.22
156.88,1.43,1.22,1.43,1.22,-1.22,-1.18,-1.20,0.20,0.20,0.21
158.44,1.40,1.21,1.40,1.21,-1.21,-1.16,-1.17,0.19,0.19,0.19
160.03,1.37,1.19,1.37,1.20,-1.20,-1.14,-1.14,0.18,0.18,0.18
161.63,1.35,1.18,1.35,1.18,-1.18,-1.12,-1.11,0.16,0.16,0.16
163.24,1.32,1.17,1.32,1.17,-1.16,-1.10,-1.09,0.15,0.15,0.15
164.88,1.29,1.15,1.29,1.15,-1.15,-1.08,-1.06,0.14,0.14,0.13
166.53,1.26,1.13,1.26,1.13,-1.12,-1.06,-1.03,0.13,0.13,0.13
168.19,1.23,1.10,1.22,1.10,-1.10,-1.04,-1.01,0.12,0.12,0.12
169.87,1.19,1.08,1.19,1.08,-1.08,-1.02,-0.98,0.11,0.11,0.12
171.57,1.16,1.05,1.16,1.05,-1.06,-1.01,-0.96,0.10,0.10,0.11
173.29,1.13,1.03,1.13,1.03,-1.04,-0.99,-0.94,0.09,0.09,0.10
175.02,1.09,1.01,1.09,1.01,-1.01,-0.97,-0.91,0.08,0.08,0.08
176.77,1.06,0.99,1.06,0.99,-0.99,-0.96,-0.89,0.07,0.07,0.07
178.54,1.03,0.98,1.03,0.98,-0.97,-0.94,-0.87,0.05,0.05,0.05
180.32,0.99,0.96,0.99,0.96,-0.95,-0.93,-0.85,0.04,0.04,0.04
182.13,0.96,0.94,0.96,0.94,-0.94,-0.91,-0.83,0.03,0.03,0.02
183.95,0.93,0.92,0.93,0.92,-0.92,-0.90,-0.81,0.01,0.01,0.01
185.79,0.90,0.90,0.90,0.90,-0.90,-0.89,-0.79,-0.01,-0.01,-0.00
187.65,0.87,0.89,0.87,0.89,-0.89,-0.87,-0.77,-0.02,-0.02,-0.02
189.52,0.83,0.87,0.83,0.87,-0.87,-0.86,-0.75,-0.04,-0.04,-0.04
191.42,0.80,0.86,0.80,0.86,-0.86,-0.85,-0.74,-0.05,-0.05,-0.05
193.33,0.77,0.84,0.77,0.85,-0.84,-0.83,-0.72,-0.07,-0.07,-0.07
195.27,0.74,0.83,0.74,0.83,-0.83,-0.82,-0.70,-0.09,-0.09,-0.09
197.22,0.72,0.82,0.72,0.82,-0.82,-0.81,-0.69,-0.10,-0.10,-0.10
199.19,0.69,0.81,0.69,0.81,-0.81,-0.80,-0.67,-0.12,-0.12,-0.12
201.18,0.66,0.79,0.66,0.79,-0.80,-0.79,-0.66,-0.13,-0.13,-0.13
203.19,0.63,0.78,0.63,0.78,-0.78,-0.78,-0.64,-0.15,-0.15,-0.15
205.23,0.61,0.77,0.61,0.77,-0.77,-0.77,-0.63,-0.16,-0.16,-0.16
207.28,0.58,0.76,0.58,0.76,-0.76,-0.76,-0.62,-0.18,-0.18,-0.18
209.35,0.55,0.75,0.55,0.75,-0.75,-0.75,-0.60,-0.20,-0.20,-0.20
211.44,0.52,0.74,0.52,0.74,-0.73,-0.74,-0.59,-0.21,-0.21,-0.22
213.56,0.49,0.72,0.49,0.72,-0.72,-0.73,-0.58,-0.23,-0.23,-0.23
215.69,0.46,0.71,0.46,0.71,-0.71,-0.72,-0.57,-0.25,-0.25,-0.25
217.85,0.43,0.69,0.43,0.69,-0.70,-0.71,-0.56,-0.26,-0.26,-0.26
220.03,0.40,0.68,0.40,0.68,-0.68,-0.70,-0.55,-0.28,-0.28,-0.28
222.23,0.37,0.67,0.37,0.67,-0.67,-0.69,-0.54,-0.30,-0.30,-0.30
224.45,0.34,0.66,0.34,0.66,-0.66,-0.69,-0.53,-0.32,-0.32,-0.31
226.70,0.31,0.64,0.31,0.64,-0.64,-0.68,-0.52,-0.33,-0.33,-0.33
228.96,0.28,0.63,0.28,0.63,-0.63,-0.67,-0.52,-0.35,-0.35,-0.35
231.25,0.25,0.62,0.25,0.62,-0.62,-0.67,-0.51,-0.37,-0.37,-0.37
233.57,0.22,0.62,0.22,0.62,-0.62,-0.66,-0.50,-0.40,-0.39,-0.40
235.90,0.19,0.61,0.19,0.61,-0.61,-0.65,-0.50,-0.42,-0.42,-0.42
238.26,0.16,0.60,0.16,0.60,-0.60,-0.65,-0.49,-0.44,-0.44,-0.44
240.64,0.14,0.59,0.14,0.59,-0.59,-0.64,-0.49,-0.46,-0.46,-0.46
243.05,0.11,0.59,0.11,0.59,-0.59,-0.64,-0.48,-0.48,-0.48,-0.48
245.48,0.08,0.58,0.08,0.58,-0.58,-0.63,-0.48,-0.50,-0.50,-0.50
247.93,0.06,0.58,0.06,0.58,-0.58,-0.63,-0.48,-0.52,-0.52,-0.52
250.41,0.03,0.57,0.03,0.57,-0.57,-0.62,-0.48,-0.54,-0.54,-0.54
252.92,0.00,0.57,0.00,0.57,-0.57,-0.62,-0.47,-0.56,-0.56,-0.56
255.45,-0.02,0.56,-0.02,0.56,-0.56,-0.61,-0.47,-0.58,-0.58,-0.59
258.00,-0.05,0.56,-0.05,0.56,-0.56,-0.61,-0.47,-0.61,-0.61,-0.61
260.58,-0.08,0.55,-0.08,0.55,-0.55,-0.61,-0.48,-0.63,-0.63,-0.63
263.19,-0.11,0.54,-0.11,0.54,-0.54,-0.61,-0.48,-0.65,-0.65,-0.65
265.82,-0.13,0.54,-0.13,0.54,-0.54,-0.60,-0.48,-0.67,-0.67,-0.67
268.48,-0.16,0.53,-0.16,0.53,-0.53,-0.60,-0.48,-0.69,-0.69,-0.69
271.16,-0.19,0.53,-0.19,0.53,-0.53,-0.60,-0.48,-0.72,-0.72,-0.71
273.87,-0.21,0.52,-0.21,0.52,-0.52,-0.60,-0.49,-0.74,-0.74,-0.74
276.61,-0.24,0.52,-0.24,0.52,-0.52,-0.59,-0.49,-0.76,-0.76,-0.76
279.38,-0.27,0.52,-0.27,0.52,-0.52,-0.59,-0.50,-0.78,-0.78,-0.78
282.17,-0.29,0.52,-0.29,0.52,-0.52,-0.59,-0.50,-0.81,-0.81,-0.81
284.99,-0.32,0.51,-0.32,0.51,-0.51,-0.59,-0.51,-0.83,-0.83,-0.83
287.84,-0.35,0.51,-0.35,0.51,-0.51,-0.59,-0.52,-0.86,-0.86,-0.86
290.72,-0.38,0.51,-0.38,0.51,-0.51,-0.59,-0.52,-0.88,-0.88,-0.88
293.63,-0.40,0.50,-0.40,0.50,-0.50,-0.59,-0.53,-0.91,-0.91,-0.91
296.57,-0.43,0.50,-0.43,0.50,-0.50,-0.59,-0.54,-0.93,-0.93,-0.93
299.53,-0.46,0.49,-0.46,0.49,-0.49,-0.59,-0.55,-0.95,-0.96,-0.96
302.53,-0.50,0.49,-0.50,0.49,-0.48,-0.60,-0.56,-0.98,-0.98,-0.98
305.55,-0.53,0.48,-0.53,0.48,-0.48,-0.60,-0.57,-1.00,-1.01,-1.01
308.61,-0.56,0.48,-0.56,0.48,-0.47,-0.60,-0.58,-1.03,-1.03,-1.03
311.69,-0.59,0.47,-0.59,0.47,-0.47,-0.60,-0.59,-1.06,-1.06,-1.06
314.81,-0.61,0.47,-0.61,0.47,-0.47,-0.60,-0.60,-1.08,-1.08,-1.09
317.96,-0.64,0.47,-0.64,0.47,-0.48,-0.61,-0.61,-1.11,-1.11,-1.11
321.14,-0.65,0.48,-0.65,0.48,-0.49,-0.61,-0.62,-1.14,-1.14,-1.14
324.35,-0.66,0.50,-0.66,0.50,-0.51,-0.61,-0.64,-1.17,-1.17,-1.16
327.59,-0.66,0.53,-0.66,0.53,-0.54,-0.62,-0.65,-1.20,-1.20,-1.19
330.87,-0.65,0.56,-0.65,0.56,-0.58,-0.62,-0.67,-1.23,-1.23,-1.21
334.18,-0.63,0.61,-0.63,0.61,-0.62,-0.63,-0.68,-1.25,-1.25,-1.24
337.52,-0.60,0.67,-0.60,0.67,-0.67,-0.63,-0.70,-1.27,-1.27,-1.27
340.90,-0.57,0.72,-0.57,0.72,-0.72,-0.64,-0.71,-1.29,-1.29,-1.29
344.30,-0.55,0.78,-0.55,0.77,-0.76,-0.64,-0.73,-1.31,-1.31,-1.32
347.75,-0.53,0.82,-0.53,0.82,-0.81,-0.65,-0.75,-1.34,-1.34,-1.35
351.23,-0.53,0.85,-0.53,0.85,-0.84,-0.65,-0.76,-1.37,-1.37,-1.38
354.74,-0.53,0.88,-0.53,0.88,-0.87,-0.66,-0.78,-1.40,-1.40,-1.41
358.28,-0.54,0.89,-0.54,0.90,-0.89,-0.67,-0.80,-1.43,-1.43,-1.43
361.87,-0.56,0.91,-0.56,0.91,-0.91,-0.68,-0.82,-1.46,-1.46,-1.46
365.49,-0.58,0.92,-0.58,0.92,-0.92,-0.68,-0.84,-1.49,-1.49,-1.49
369.14,-0.60,0.92,-0.60,0.92,-0.92,-0.69,-0.86,-1.52,-1.52,-1.52
372.83,-0.62,0.93,-0.62,0.93,-0.93,-0.70,-0.88,-1.55,-1.55,-1.55
376.56,-0.65,0.93,-0.65,0.93,-0.93,-0.71,-0.90,-1.58,-1.58,-1.58
380.33,-0.67,0.93,-0.67,0.93,-0.94,-0.72,-0.92,-1.61,-1.61,-1.61
384.13,-0.70,0.94,-0.70,0.94,-0.94,-0.73,-0.95,-1.64,-1.64,-1.64
387.97,-0.72,0.95,-0.72,0.95,-0.95,-0.74,-0.97,-1.67,-1.67,-1.67
391.85,-0.74,0.95,-0.74,0.95,-0.95,-0.75,-0.99,-1.70,-1.70,-1.70
395.77,-0.77,0.96,-0.77,0.96,-0.96,-0.77,-1.01,-1.72,-1.72,-1.72
399.73,-0.79,0.97,-0.79,0.97,-0.97,-0.78,-1.04,-1.75,-1.75,-1.75
403.72,-0.81,0.97,-0.81,0.97,-0.97,-0.79,-1.06,-1.78,-1.78,-1.78
407.76,-0.83,0.98,-0.83,0.98,-0.98,-0.81,-1.09,-1.81,-1.81,-1.81
411.84,-0.85,0.99,-0.85,0.99,-0.99,-0.82,-1.11,-1.84,-1.84,-1.84
415.96,-0.87,0.99,-0.87,0.99,-0.99,-0.83,-1.13,-1.87,-1.87,-1.87
420.12,-0.89,1.00,-0.89,1.00,-1.00,-0.85,-1.16,-1.89,-1.89,-1.89
424.32,-0.91,1.01,-0.91,1.01,-1.01,-0.86,-1.18,-1.92,-1.92,-1.92
428.56,-0.93,1.02,-0.93,1.02,-1.02,-0.88,-1.21,-1.95,-1.95,-1.95
432.85,-0.95,1.03,-0.95,1.03,-1.03,-0.90,-1.23,-1.98,-1.98,-1.98
437.18,-0.97,1.04,-0.97,1.04,-1.04,-0.91,-1.25,-2.01,-2.01,-2.01
441.55,-0.99,1.05,-0.99,1.05,-1.05,-0.93,-1.27,-2.04,-2.04,-2.04
445.96,-1.01,1.06,-1.01,1.06,-1.06,-0.95,-1.29,-2.07,-2.07,-2.07
450.42,-1.02,1.07,-1.02,1.07,-1.07,-0.97,-1.31,-2.10,-2.10,-2.10
454.93,-1.04,1.09,-1.04,1.09,-1.09,-0.99,-1.33,-2.13,-2.13,-2.13
459.48,-1.06,1.10,-1.06,1.10,-1.10,-1.01,-1.35,-2.16,-2.16,-2.16
464.07,-1.08,1.11,-1.08,1.11,-1.11,-1.03,-1.37,-2.19,-2.19,-2.19
468.71,-1.09,1.12,-1.09,1.12,-1.12,-1.05,-1.38,-2.22,-2.22,-2.22
473.40,-1.11,1.14,-1.11,1.14,-1.14,-1.07,-1.40,-2.24,-2.24,-2.25
478.13,-1.13,1.15,-1.13,1.15,-1.15,-1.10,-1.41,-2.27,-2.27,-2.27
482.91,-1.14,1.16,-1.14,1.16,-1.16,-1.12,-1.42,-2.30,-2.30,-2.30
487.74,-1.16,1.17,-1.16,1.17,-1.17,-1.14,-1.43,-2.33,-2.33,-2.33
492.62,-1.18,1.19,-1.18,1.19,-1.19,-1.17,-1.44,-2.36,-2.36,-2.36
497.55,-1.19,1.20,-1.19,1.20,-1.20,-1.19,-1.44,-2.39,-2.39,-2.39
