frequency,raw,error,smoothed,error_smoothed,equalization,parametric_eq,fixed_band_eq,equalized_raw,equalized_smoothed,target
20.00,7.70,1.48,7.70,1.47,-1.48,-1.44,-0.77,6.22,6.22,6.22
20.20,7.71,1.44,7.71,1.45,-1.45,-1.45,-0.80,6.26,6.26,6.27
20.40,7.73,1.41,7.72,1.43,-1.43,-1.46,-0.82,6.30,6.30,6.32
20.61,7.75,1.43,7.75,1.41,-1.41,-1.47,-0.84,6.34,6.34,6.32
20.81,7.79,1.40,7.79,1.40,-1.40,-1.48,-0.87,6.40,6.40,6.39
21.02,7.85,1.39,7.85,1.39,-1.39,-1.50,-0.89,6.46,6.46,6.46
21.23,7.91,1.38,7.91,1.39,-1.39,-1.51,-0.92,6.52,6.52,6.53
21.44,7.98,1.40,7.98,1.39,-1.39,-1.52,-0.95,6.59,6.59,6.58
21.66,8.05,1.41,8.04,1.40,-1.39,-1.53,-0.97,6.65,6.65,6.64
21.87,8.11,1.40,8.11,1.42,-1.40,-1.54,-1.00,6.71,6.70,6.71
22.09,8.17,1.45,8.17,1.43,-1.43,-1.55,-1.03,6.74,6.74,6.72
22.31,8.22,1.46,8.22,1.44,-1.46,-1.56,-1.06,6.76,6.76,6.76
22.54,8.27,1.45,8.27,1.47,-1.50,-1.57,-1.09,6.77,6.77,6.82
22.76,8.32,1.50,8.32,1.52,-1.55,-1.58,-1.12,6.77,6.77,6.82
22.99,8.36,1.59,8.37,1.59,-1.61,-1.60,-1.16,6.75,6.75,6.77
23.22,8.42,1.70,8.42,1.68,-1.68,-1.61,-1.19,6.74,6.74,6.72
23.45,8.48,1.76,8.48,1.76,-1.75,-1.62,-1.22,6.73,6.73,6.72
23.69,8.54,1.82,8.54,1.83,-1.82,-1.63,-1.26,6.72,6.72,6.72
23.92,8.60,1.88,8.60,1.88,-1.88,-1.64,-1.29,6.72,6.72,6.72
24.16,8.65,1.94,8.65,1.94,-1.92,-1.65,-1.33,6.73,6.73,6.72
24.40,8.70,1.98,8.70,1.97,-1.94,-1.66,-1.36,6.76,6.76,6.72
24.65,8.74,1.98,8.74,1.98,-1.94,-1.67,-1.40,6.80,6.80,6.76
24.89,8.77,1.95,8.77,1.96,-1.93,-1.69,-1.44,6.84,6.84,6.82
25.14,8.80,1.92,8.80,1.92,-1.92,-1.70,-1.48,6.88,6.88,6.88
25.39,8.82,1.87,8.83,1.87,-1.90,-1.71,-1.51,6.93,6.93,6.95
25.65,8.85,1.82,8.86,1.83,-1.87,-1.72,-1.55,6.99,6.99,7.03
25.91,8.89,1.79,8.89,1.81,-1.84,-1.73,-1.59,7.05,7.05,7.09
26.16,8.93,1.81,8.93,1.82,-1.82,-1.74,-1.63,7.11,7.11,7.12
26.43,8.97,1.85,8.97,1.82,-1.80,-1.75,-1.67,7.17,7.17,7.12
26.69,9.01,1.82,9.01,1.82,-1.80,-1.76,-1.70,7.22,7.22,7.19
26.96,9.06,1.80,9.05,1.80,-1.80,-1.77,-1.74,7.25,7.25,7.26
27.23,9.09,1.77,9.09,1.79,-1.81,-1.79,-1.78,7.28,7.28,7.32
27.50,9.12,1.80,9.12,1.80,-1.82,-1.80,-1.81,7.30,7.30,7.32
27.77,9.15,1.83,9.15,1.83,-1.84,-1.81,-1.85,7.31,7.31,7.32
28.05,9.18,1.86,9.18,1.86,-1.85,-1.82,-1.88,7.32,7.32,7.32
28.33,9.20,1.88,9.20,1.88,-1.88,-1.83,-1.91,7.32,7.32,7.32
28.62,9.22,1.90,9.22,1.90,-1.90,-1.84,-1.94,7.32,7.32,7.32
28.90,9.24,1.92,9.24,1.92,-1.92,-1.85,-1.97,7.32,7.32,7.32
29.19,9.25,1.93,9.25,1.93,-1.93,-1.86,-2.00,7.32,7.32,7.32
29.48,9.26,1.94,9.26,1.95,-1.93,-1.87,-2.02,7.33,7.33,7.32
29.78,9.27,1.95,9.27,1.95,-1.92,-1.89,-2.05,7.35,7.35,7.32
30.08,9.28,1.94,9.28,1.93,-1.90,-1.90,-2.07,7.37,7.37,7.33
30.38,9.29,1.89,9.29,1.89,-1.88,-1.91,-2.09,7.41,7.41,7.39
30.68,9.31,1.84,9.31,1.84,-1.86,-1.92,-2.10,7.45,7.45,7.46
30.99,9.33,1.80,9.33,1.80,-1.84,-1.93,-2.12,7.50,7.50,7.54
31.30,9.37,1.77,9.37,1.79,-1.82,-1.94,-2.13,7.55,7.55,7.60
31.61,9.41,1.79,9.41,1.79,-1.80,-1.95,-2.14,7.61,7.61,7.62
31.93,9.46,1.81,9.46,1.80,-1.80,-1.96,-2.14,7.66,7.66,7.64
32.24,9.50,1.80,9.50,1.82,-1.80,-1.97,-2.15,7.70,7.70,7.71
32.57,9.55,1.83,9.55,1.82,-1.81,-1.98,-2.15,7.74,7.74,7.72
32.89,9.59,1.85,9.59,1.82,-1.83,-1.99,-2.15,7.76,7.76,7.74
33.22,9.63,1.81,9.63,1.83,-1.84,-2.00,-2.15,7.78,7.78,7.82
33.55,9.66,1.84,9.66,1.84,-1.85,-2.01,-2.14,7.80,7.80,7.82
33.89,9.69,1.87,9.69,1.87,-1.86,-2.02,-2.14,7.83,7.83,7.82
34.23,9.71,1.89,9.71,1.90,-1.86,-2.04,-2.13,7.85,7.85,7.82
34.57,9.73,1.92,9.73,1.90,-1.87,-2.05,-2.12,7.86,7.86,7.82
34.92,9.76,1.89,9.76,1.89,-1.88,-2.06,-2.11,7.88,7.88,7.86
35.27,9.78,1.86,9.78,1.88,-1.89,-2.07,-2.10,7.88,7.88,7.92
35.62,9.80,1.88,9.80,1.87,-1.91,-2.08,-2.09,7.89,7.89,7.92
35.97,9.82,1.90,9.82,1.91,-1.94,-2.09,-2.08,7.88,7.88,7.92
36.33,9.84,1.95,9.84,1.96,-1.97,-2.10,-2.07,7.87,7.87,7.90
36.70,9.86,2.03,9.86,2.01,-2.01,-2.11,-2.05,7.85,7.85,7.84
37.06,9.88,2.06,9.88,2.06,-2.05,-2.11,-2.04,7.83,7.83,7.82
37.43,9.89,2.09,9.89,2.11,-2.10,-2.12,-2.03,7.79,7.79,7.80
37.81,9.90,2.17,9.90,2.15,-2.14,-2.13,-2.02,7.76,7.76,7.73
38.19,9.92,2.20,9.92,2.19,-2.18,-2.14,-2.00,7.74,7.74,7.72
38.57,9.93,2.22,9.93,2.22,-2.21,-2.15,-1.99,7.72,7.72,7.72
38.95,9.95,2.24,9.95,2.24,-2.24,-2.16,-1.98,7.71,7.71,7.72
39.34,9.97,2.26,9.97,2.26,-2.27,-2.17,-1.97,7.70,7.70,7.72
39.74,10.00,2.28,10.00,2.28,-2.30,-2.18,-1.96,7.70,7.70,7.72
40.14,10.02,2.30,10.02,2.30,-2.32,-2.18,-1.96,7.70,7.70,7.72
40.54,10.04,2.33,10.04,2.32,-2.34,-2.19,-1.95,7.70,7.70,7.72
40.94,10.06,2.34,10.06,2.35,-2.35,-2.20,-1.94,7.71,7.71,7.72
41.35,10.08,2.36,10.08,2.36,-2.35,-2.20,-1.94,7.73,7.73,7.72
41.76,10.09,2.37,10.09,2.36,-2.32,-2.21,-1.93,7.77,7.77,7.72
42.18,10.10,2.34,10.10,2.34,-2.28,-2.22,-1.93,7.82,7.82,7.77
42.60,10.11,2.28,10.11,2.28,-2.22,-2.22,-1.93,7.89,7.89,7.84
43.03,10.12,2.21,10.12,2.19,-2.17,-2.23,-1.93,7.96,7.96,7.91
43.46,10.13,2.09,10.13,2.09,-2.11,-2.24,-1.94,8.02,8.02,8.04
43.90,10.14,1.99,10.14,2.00,-2.08,-2.24,-1.94,8.06,8.06,8.15
44.33,10.15,1.94,10.15,1.97,-2.06,-2.25,-1.95,8.09,8.09,8.21
44.78,10.16,2.00,10.16,2.00,-2.06,-2.25,-1.95,8.09,8.09,8.16
45.23,10.17,2.08,10.17,2.07,-2.09,-2.25,-1.96,8.07,8.07,8.09
45.68,10.17,2.15,10.17,2.16,-2.14,-2.26,-1.97,8.03,8.03,8.02
46.13,10.18,2.24,10.18,2.24,-2.20,-2.26,-1.98,7.98,7.98,7.95
46.60,10.19,2.31,10.19,2.31,-2.26,-2.27,-2.00,7.93,7.93,7.88
47.06,10.20,2.38,10.20,2.37,-2.33,-2.27,-2.01,7.87,7.87,7.82
47.53,10.21,2.39,10.21,2.40,-2.38,-2.27,-2.03,7.83,7.83,7.82
48.01,10.22,2.40,10.22,2.40,-2.42,-2.28,-2.04,7.80,7.80,7.82
48.49,10.22,2.40,10.22,2.40,-2.44,-2.28,-2.06,7.78,7.78,7.82
48.97,10.22,2.40,10.22,2.43,-2.44,-2.28,-2.08,7.78,7.78,7.82
49.46,10.22,2.46,10.23,2.45,-2.44,-2.29,-2.10,7.79,7.79,7.77
49.96,10.23,2.49,10.23,2.46,-2.42,-2.29,-2.12,7.81,7.81,7.74
50.46,10.24,2.43,10.24,2.44,-2.40,-2.29,-2.15,7.85,7.85,7.81
50.96,10.26,2.38,10.26,2.38,-2.37,-2.30,-2.17,7.89,7.89,7.88
51.47,10.27,2.33,10.27,2.32,-2.34,-2.30,-2.19,7.93,7.93,7.94
51.99,10.28,2.27,10.28,2.29,-2.32,-2.30,-2.22,7.97,7.97,8.02
52.51,10.29,2.27,10.29,2.27,-2.30,-2.30,-2.24,7.99,7.99,8.02
53.03,10.30,2.28,10.30,2.27,-2.30,-2.30,-2.27,8.00,8.00,8.02
53.56,10.30,2.28,10.30,2.28,-2.31,-2.31,-2.29,7.99,7.99,8.02
54.10,10.30,2.29,10.30,2.30,-2.33,-2.31,-2.32,7.97,7.97,8.02
54.64,10.31,2.33,10.31,2.35,-2.36,-2.31,-2.34,7.95,7.95,7.98
55.18,10.32,2.41,10.32,2.41,-2.38,-2.31,-2.36,7.93,7.93,7.91
55.74,10.32,2.48,10.32,2.45,-2.39,-2.31,-2.39,7.93,7.93,7.84
56.29,10.33,2.46,10.33,2.45,-2.39,-2.31,-2.41,7.94,7.94,7.87
56.86,10.33,2.39,10.33,2.40,-2.37,-2.31,-2.43,7.96,7.96,7.94
57.42,10.33,2.33,10.33,2.33,-2.33,-2.31,-2.45,8.01,8.01,8.01
58.00,10.34,2.27,10.34,2.27,-2.28,-2.31,-2.47,8.06,8.06,8.07
58.58,10.35,2.21,10.35,2.20,-2.22,-2.31,-2.48,8.13,8.13,8.14
59.16,10.36,2.14,10.36,2.14,-2.16,-2.31,-2.49,8.20,8.20,8.21
59.76,10.37,2.09,10.36,2.09,-2.11,-2.31,-2.51,8.25,8.25,8.28
60.35,10.37,2.05,10.37,2.06,-2.08,-2.31,-2.52,8.29,8.29,8.32
60.96,10.37,2.05,10.37,2.04,-2.07,-2.31,-2.52,8.30,8.30,8.32
61.57,10.37,2.05,10.37,2.06,-2.07,-2.31,-2.53,8.30,8.30,8.32
62.18,10.36,2.09,10.36,2.09,-2.08,-2.31,-2.53,8.28,8.28,8.28
62.80,10.36,2.14,10.36,2.12,-2.11,-2.31,-2.53,8.25,8.25,8.22
63.43,10.36,2.14,10.36,2.16,-2.15,-2.31,-2.52,8.21,8.21,8.22
64.07,10.36,2.18,10.36,2.19,-2.19,-2.31,-2.52,8.17,8.17,8.18
64.71,10.36,2.24,10.36,2.21,-2.23,-2.31,-2.51,8.12,8.12,8.12
65.35,10.36,2.24,10.36,2.25,-2.27,-2.31,-2.50,8.09,8.09,8.12
66.01,10.35,2.29,10.35,2.31,-2.30,-2.30,-2.49,8.06,8.06,8.07
66.67,10.35,2.35,10.35,2.35,-2.32,-2.30,-2.47,8.03,8.03,8.00
67.33,10.34,2.41,10.34,2.37,-2.33,-2.30,-2.46,8.01,8.01,7.93
68.01,10.33,2.35,10.33,2.36,-2.34,-2.30,-2.44,7.99,7.99,7.98
68.69,10.32,2.31,10.32,2.33,-2.33,-2.30,-2.42,7.99,7.99,8.02
69.37,10.32,2.30,10.32,2.30,-2.32,-2.29,-2.39,8.00,8.00,8.02
70.07,10.31,2.29,10.31,2.29,-2.29,-2.29,-2.37,8.02,8.02,8.02
70.77,10.30,2.29,10.30,2.28,-2.26,-2.29,-2.35,8.04,8.04,8.02
71.48,10.30,2.28,10.30,2.25,-2.24,-2.28,-2.32,8.06,8.06,8.02
72.19,10.29,2.20,10.29,2.21,-2.23,-2.28,-2.30,8.06,8.06,8.09
72.91,10.29,2.17,10.29,2.18,-2.24,-2.28,-2.27,8.05,8.05,8.12
73.64,10.29,2.18,10.29,2.19,-2.25,-2.27,-2.24,8.04,8.04,8.11
74.38,10.28,2.24,10.28,2.24,-2.26,-2.27,-2.22,8.02,8.02,8.04
75.12,10.28,2.31,10.28,2.30,-2.28,-2.26,-2.19,8.00,8.00,7.97
75.87,10.27,2.35,10.27,2.34,-2.29,-2.26,-2.17,7.98,7.98,7.92
76.63,10.26,2.35,10.26,2.35,-2.30,-2.25,-2.14,7.96,7.96,7.92
77.40,10.25,2.33,10.25,2.34,-2.31,-2.25,-2.11,7.94,7.94,7.92
78.17,10.24,2.32,10.24,2.32,-2.32,-2.25,-2.09,7.92,7.92,7.92
78.95,10.22,2.31,10.23,2.31,-2.32,-2.24,-2.07,7.91,7.91,7.92
79.74,10.21,2.29,10.21,2.29,-2.31,-2.23,-2.04,7.90,7.90,7.92
80.54,10.20,2.28,10.20,2.28,-2.32,-2.23,-2.02,7.88,7.88,7.92
81.35,10.19,2.27,10.19,2.29,-2.33,-2.22,-2.00,7.86,7.86,7.92
82.16,10.18,2.32,10.18,2.33,-2.35,-2.22,-1.98,7.83,7.83,7.85
82.98,10.17,2.38,10.17,2.38,-2.37,-2.21,-1.97,7.80,7.80,7.79
83.81,10.15,2.44,10.15,2.42,-2.38,-2.20,-1.95,7.77,7.77,7.72
84.65,10.14,2.43,10.14,2.43,-2.40,-2.20,-1.93,7.75,7.75,7.72
85.50,10.13,2.42,10.13,2.43,-2.41,-2.19,-1.92,7.73,7.73,7.72
86.35,10.13,2.41,10.13,2.41,-2.40,-2.18,-1.91,7.72,7.72,7.72
87.22,10.12,2.40,10.12,2.39,-2.39,-2.18,-1.90,7.73,7.73,7.72
88.09,10.12,2.35,10.12,2.35,-2.37,-2.17,-1.89,7.75,7.75,7.77
88.97,10.12,2.30,10.12,2.32,-2.33,-2.16,-1.88,7.79,7.79,7.82
89.86,10.11,2.29,10.11,2.30,-2.29,-2.15,-1.87,7.82,7.82,7.82
90.76,10.10,2.28,10.10,2.27,-2.25,-2.15,-1.87,7.85,7.85,7.82
91.66,10.08,2.24,10.08,2.23,-2.21,-2.14,-1.86,7.87,7.87,7.84
92.58,10.06,2.15,10.06,2.17,-2.17,-2.13,-1.86,7.89,7.89,7.91
93.51,10.03,2.11,10.03,2.11,-2.13,-2.12,-1.86,7.90,7.90,7.92
94.44,10.00,2.08,10.00,2.07,-2.10,-2.11,-1.86,7.90,7.90,7.92
95.39,9.96,2.04,9.95,2.06,-2.06,-2.10,-1.86,7.90,7.90,7.92
96.34,9.91,2.06,9.90,2.04,-2.03,-2.09,-1.87,7.88,7.88,7.85
97.30,9.85,2.03,9.85,2.01,-2.00,-2.09,-1.87,7.85,7.85,7.82
98.28,9.79,1.98,9.79,1.98,-1.98,-2.08,-1.88,7.81,7.81,7.82
99.26,9.75,1.93,9.75,1.96,-1.97,-2.07,-1.88,7.78,7.78,7.82
100.25,9.73,1.95,9.73,1.96,-1.97,-2.06,-1.89,7.75,7.76,7.77
101.25,9.73,2.00,9.73,1.96,-1.98,-2.05,-1.90,7.75,7.75,7.73
102.27,9.74,1.96,9.74,1.98,-1.98,-2.04,-1.91,7.75,7.75,7.78
103.29,9.75,1.96,9.75,1.99,-2.00,-2.03,-1.92,7.76,7.76,7.79
104.32,9.76,2.04,9.76,2.01,-2.01,-2.02,-1.93,7.76,7.75,7.72
105.37,9.76,2.04,9.76,2.04,-2.01,-2.01,-1.94,7.75,7.75,7.72
106.42,9.75,2.03,9.75,2.04,-2.01,-1.99,-1.95,7.74,7.74,7.72
107.48,9.73,2.02,9.73,2.02,-1.99,-1.98,-1.96,7.74,7.74,7.72
108.56,9.71,1.99,9.71,1.99,-1.98,-1.97,-1.97,7.73,7.73,7.72
109.64,9.68,1.96,9.68,1.96,-1.96,-1.96,-1.98,7.72,7.72,7.72
110.74,9.65,1.93,9.65,1.93,-1.95,-1.95,-1.99,7.70,7.70,7.72
111.85,9.62,1.90,9.62,1.90,-1.94,-1.94,-2.00,7.68,7.68,7.72
112.97,9.60,1.88,9.60,1.89,-1.93,-1.93,-2.00,7.66,7.67,7.72
114.10,9.57,1.91,9.58,1.92,-1.93,-1.91,-2.01,7.65,7.65,7.66
115.24,9.56,1.95,9.56,1.95,-1.92,-1.90,-2.02,7.63,7.63,7.61
116.39,9.54,1.99,9.54,1.96,-1.93,-1.89,-2.02,7.62,7.62,7.55
117.55,9.53,1.95,9.52,1.96,-1.93,-1.88,-2.03,7.59,7.59,7.57
118.73,9.50,1.92,9.50,1.95,-1.94,-1.87,-2.03,7.56,7.56,7.58
119.92,9.47,1.95,9.47,1.93,-1.96,-1.85,-2.03,7.51,7.51,7.52
121.12,9.45,1.93,9.45,1.92,-1.97,-1.84,-2.03,7.47,7.47,7.52
122.33,9.42,1.92,9.42,1.94,-1.98,-1.83,-2.02,7.44,7.44,7.50
123.55,9.39,1.95,9.39,1.96,-1.97,-1.81,-2.02,7.42,7.42,7.44
124.79,9.36,2.02,9.35,1.99,-1.94,-1.80,-2.01,7.42,7.41,7.34
126.03,9.32,2.00,9.32,2.00,-1.90,-1.79,-2.00,7.42,7.42,7.32
127.29,9.29,1.95,9.29,1.95,-1.86,-1.77,-1.99,7.42,7.43,7.33
128.57,9.25,1.86,9.25,1.83,-1.82,-1.76,-1.98,7.44,7.44,7.40
129.85,9.22,1.72,9.22,1.72,-1.78,-1.75,-1.96,7.45,7.45,7.50
131.15,9.20,1.59,9.20,1.64,-1.74,-1.73,-1.95,7.46,7.46,7.61
132.46,9.17,1.62,9.17,1.62,-1.71,-1.72,-1.93,7.45,7.46,7.55
133.79,9.14,1.66,9.14,1.65,-1.70,-1.70,-1.91,7.44,7.44,7.48
135.12,9.11,1.70,9.11,1.70,-1.69,-1.69,-1.88,7.42,7.42,7.41
136.48,9.08,1.73,9.08,1.75,-1.69,-1.68,-1.86,7.39,7.39,7.34
137.84,9.04,1.77,9.04,1.76,-1.69,-1.66,-1.83,7.35,7.35,7.28
139.22,9.00,1.77,9.00,1.74,-1.67,-1.65,-1.81,7.33,7.33,7.23
140.61,8.97,1.67,8.97,1.69,-1.64,-1.63,-1.78,7.32,7.32,7.30
142.02,8.93,1.61,8.93,1.61,-1.60,-1.62,-1.75,7.33,7.33,7.32
143.44,8.88,1.54,8.88,1.52,-1.54,-1.60,-1.72,7.34,7.34,7.34
144.87,8.84,1.43,8.84,1.44,-1.49,-1.59,-1.69,7.34,7.34,7.41
146.32,8.79,1.37,8.79,1.38,-1.45,-1.57,-1.66,7.34,7.34,7.42
147.78,8.74,1.36,8.74,1.36,-1.42,-1.55,-1.63,7.32,7.32,7.38
149.26,8.69,1.39,8.69,1.38,-1.40,-1.54,-1.60,7.29,7.29,7.31
150.75,8.64,1.41,8.64,1.41,-1.39,-1.52,-1.57,7.26,7.26,7.23
152.26,8.60,1.42,8.60,1.43,-1.38,-1.51,-1.54,7.22,7.22,7.18
153.78,8.56,1.43,8.56,1.42,-1.37,-1.49,-1.51,7.19,7.19,7.13
155.32,8.51,1.39,8.51,1.37,-1.34,-1.48,-1.48,7.17,7.17,7.12
156.88,8.46,1.30,8.46,1.32,-1.30,-1.46,-1.46,7.16,7.16,7.16
158.44,8.41,1.22,8.41,1.26,-1.25,-1.44,-1.43,7.16,7.16,7.20
160.03,8.37,1.25,8.37,1.20,-1.20,-1.43,-1.40,7.17,7.17,7.12
161.63,8.32,1.15,8.32,1.14,-1.15,-1.41,-1.37,7.17,7.17,7.17
163.24,8.29,1.07,8.29,1.09,-1.12,-1.39,-1.34,7.17,7.17,7.22
164.88,8.25,1.04,8.25,1.05,-1.10,-1.38,-1.32,7.15,7.15,7.22
166.53,8.23,1.06,8.23,1.06,-1.11,-1.36,-1.29,7.12,7.12,7.17
168.19,8.21,1.10,8.21,1.10,-1.12,-1.34,-1.27,7.09,7.09,7.11
169.87,8.20,1.17,8.20,1.14,-1.14,-1.33,-1.25,7.06,7.06,7.02
171.57,8.18,1.17,8.18,1.18,-1.15,-1.31,-1.22,7.03,7.03,7.02
173.29,8.17,1.20,8.17,1.21,-1.16,-1.29,-1.20,7.01,7.01,6.98
175.02,8.16,1.24,8.16,1.22,-1.17,-1.27,-1.18,6.99,6.99,6.92
176.77,8.14,1.23,8.14,1.21,-1.16,-1.26,-1.16,6.98,6.98,6.92
178.54,8.12,1.15,8.12,1.16,-1.15,-1.24,-1.14,6.97,6.97,6.97
180.32,8.10,1.08,8.10,1.09,-1.14,-1.22,-1.12,6.96,6.96,7.02
182.13,8.07,1.05,8.07,1.06,-1.13,-1.20,-1.11,6.94,6.94,7.02
183.95,8.04,1.07,8.04,1.07,-1.12,-1.19,-1.09,6.92,6.92,6.97
185.79,8.01,1.12,8.01,1.11,-1.11,-1.17,-1.08,6.90,6.90,6.89
187.65,7.98,1.15,7.97,1.15,-1.11,-1.15,-1.06,6.86,6.86,6.83
189.52,7.94,1.17,7.94,1.16,-1.12,-1.13,-1.05,6.81,6.81,6.77
191.42,7.89,1.17,7.89,1.16,-1.14,-1.12,-1.03,6.75,6.75,6.72
193.33,7.84,1.13,7.84,1.15,-1.16,-1.10,-1.02,6.68,6.68,6.72
195.27,7.79,1.14,7.79,1.14,-1.17,-1.08,-1.01,6.62,6.62,6.65
197.22,7.73,1.16,7.74,1.15,-1.17,-1.06,-1.00,6.56,6.56,6.58
199.19,7.68,1.17,7.68,1.17,-1.16,-1.04,-0.99,6.52,6.52,6.51
201.18,7.63,1.19,7.63,1.18,-1.15,-1.02,-0.98,6.48,6.48,6.45
203.19,7.59,1.17,7.59,1.16,-1.14,-1.00,-0.97,6.45,6.45,6.42
205.23,7.55,1.13,7.55,1.13,-1.12,-0.99,-0.96,6.43,6.43,6.42
207.28,7.50,1.09,7.50,1.08,-1.10,-0.97,-0.95,6.41,6.41,6.42
209.35,7.46,1.04,7.46,1.05,-1.07,-0.95,-0.94,6.39,6.39,6.42
211.44,7.41,1.01,7.41,1.03,-1.03,-0.93,-0.94,6.38,6.38,6.40
213.56,7.36,1.03,7.36,1.01,-1.00,-0.91,-0.93,6.36,6.36,6.33
215.69,7.31,0.99,7.31,0.98,-0.97,-0.89,-0.92,6.34,6.34,6.32
217.85,7.25,0.93,7.25,0.94,-0.94,-0.87,-0.91,6.31,6.31,6.32
220.03,7.20,0.88,7.20,0.91,-0.92,-0.85,-0.91,6.28,6.28,6.32
222.23,7.15,0.89,7.15,0.88,-0.89,-0.83,-0.90,6.25,6.25,6.26
224.45,7.10,0.88,7.10,0.86,-0.87,-0.81,-0.89,6.23,6.23,6.22
226.70,7.05,0.83,7.05,0.86,-0.84,-0.79,-0.88,6.21,6.21,6.22
228.96,7.00,0.84,7.00,0.84,-0.81,-0.77,-0.87,6.18,6.18,6.15
231.25,6.94,0.83,6.94,0.81,-0.79,-0.75,-0.86,6.16,6.16,6.12
233.57,6.89,0.77,6.89,0.77,-0.77,-0.73,-0.85,6.12,6.12,6.12
235.90,6.84,0.72,6.84,0.73,-0.76,-0.71,-0.84,6.08,6.08,6.12
238.26,6.78,0.70,6.78,0.71,-0.75,-0.69,-0.83,6.03,6.03,6.08
240.64,6.73,0.72,6.73,0.71,-0.74,-0.67,-0.81,5.98,5.98,6.00
243.05,6.67,0.73,6.67,0.73,-0.74,-0.65,-0.80,5.93,5.93,5.94
245.48,6.61,0.75,6.61,0.75,-0.74,-0.63,-0.78,5.88,5.88,5.87
247.93,6.56,0.76,6.56,0.76,-0.74,-0.61,-0.77,5.82,5.82,5.79
250.41,6.50,0.77,6.50,0.75,-0.73,-0.59,-0.75,5.77,5.77,5.73
252.92,6.44,0.72,6.44,0.73,-0.72,-0.57,-0.73,5.72,5.72,5.72
255.45,6.38,0.68,6.38,0.71,-0.70,-0.55,-0.71,5.68,5.68,5.70
258.00,6.32,0.70,6.32,0.68,-0.67,-0.53,-0.69,5.66,5.66,5.62
260.58,6.27,0.65,6.27,0.64,-0.63,-0.51,-0.67,5.64,5.64,5.62
263.19,6.21,0.59,6.21,0.60,-0.59,-0.49,-0.65,5.62,5.62,5.62
265.82,6.15,0.53,6.15,0.53,-0.55,-0.46,-0.62,5.60,5.60,5.62
268.48,6.09,0.48,6.09,0.48,-0.51,-0.44,-0.60,5.58,5.58,5.62
271.16,6.03,0.45,6.03,0.46,-0.48,-0.42,-0.57,5.55,5.55,5.59
273.87,5.97,0.45,5.97,0.45,-0.45,-0.40,-0.55,5.52,5.52,5.52
276.61,5.91,0.46,5.91,0.44,-0.44,-0.38,-0.52,5.48,5.48,5.45
279.38,5.85,0.43,5.85,0.42,-0.43,-0.35,-0.49,5.42,5.43,5.42
282.17,5.79,0.38,5.79,0.40,-0.41,-0.33,-0.46,5.37,5.37,5.41
284.99,5.73,0.38,5.73,0.39,-0.40,-0.31,-0.43,5.33,5.33,5.34
287.84,5.66,0.39,5.67,0.38,-0.37,-0.29,-0.40,5.30,5.30,5.27
290.72,5.60,0.38,5.60,0.37,-0.32,-0.26,-0.37,5.28,5.28,5.22
293.63,5.54,0.32,5.54,0.33,-0.27,-0.24,-0.34,5.27,5.27,5.22
296.57,5.48,0.26,5.48,0.25,-0.22,-0.22,-0.31,5.26,5.26,5.22
299.53,5.42,0.17,5.42,0.15,-0.17,-0.19,-0.27,5.25,5.25,5.25
302.53,5.35,0.04,5.35,0.08,-0.13,-0.17,-0.24,5.22,5.22,5.31
305.55,5.29,0.03,5.29,0.03,-0.10,-0.14,-0.21,5.19,5.19,5.25
308.61,5.22,0.04,5.22,0.02,-0.08,-0.12,-0.17,5.14,5.14,5.19
311.69,5.16,0.03,5.16,0.03,-0.06,-0.10,-0.14,5.10,5.10,5.12
314.81,5.09,0.05,5.09,0.07,-0.05,-0.07,-0.10,5.04,5.04,5.05
317.96,5.03,0.09,5.03,0.10,-0.04,-0.05,-0.07,4.99,4.99,4.94
321.14,4.97,0.15,4.97,0.11,-0.03,-0.02,-0.03,4.93,4.93,4.82
324.35,4.90,0.08,4.90,0.06,-0.02,0.01,0.00,4.88,4.88,4.82
327.59,4.84,-0.03,4.84,-0.02,-0.00,0.03,0.04,4.84,4.84,4.87
330.87,4.78,-0.12,4.78,-0.09,0.03,0.06,0.08,4.81,4.81,4.90
334.18,4.71,-0.12,4.71,-0.12,0.08,0.08,0.11,4.79,4.79,4.83
337.52,4.65,-0.12,4.65,-0.13,0.13,0.11,0.15,4.78,4.78,4.77
340.90,4.59,-0.13,4.59,-0.14,0.18,0.14,0.19,4.77,4.77,4.72
344.30,4.53,-0.19,4.53,-0.18,0.22,0.16,0.22,4.75,4.75,4.72
347.75,4.47,-0.25,4.47,-0.25,0.25,0.19,0.26,4.72,4.72,4.72
351.23,4.41,-0.31,4.41,-0.31,0.28,0.22,0.30,4.69,4.69,4.72
354.74,4.35,-0.37,4.35,-0.35,0.32,0.25,0.34,4.66,4.66,4.72
358.28,4.29,-0.37,4.29,-0.36,0.36,0.28,0.37,4.65,4.65,4.65
361.87,4.22,-0.36,4.22,-0.37,0.40,0.31,0.41,4.63,4.63,4.58
365.49,4.16,-0.37,4.16,-0.41,0.44,0.34,0.45,4.60,4.60,4.53
369.14,4.09,-0.50,4.09,-0.47,0.48,0.37,0.49,4.57,4.57,4.59
372.83,4.03,-0.56,4.03,-0.53,0.50,0.40,0.53,4.53,4.53,4.58
376.56,3.96,-0.55,3.96,-0.56,0.52,0.43,0.57,4.48,4.48,4.51
380.33,3.89,-0.55,3.89,-0.58,0.55,0.46,0.61,4.44,4.44,4.45
384.13,3.82,-0.59,3.82,-0.59,0.57,0.49,0.65,4.40,4.40,4.42
387.97,3.76,-0.63,3.76,-0.59,0.60,0.52,0.69,4.36,4.36,4.39
391.85,3.69,-0.57,3.69,-0.60,0.63,0.55,0.73,4.32,4.32,4.26
395.77,3.62,-0.60,3.62,-0.61,0.66,0.58,0.77,4.28,4.28,4.22
399.73,3.55,-0.67,3.55,-0.66,0.69,0.62,0.81,4.24,4.24,4.22
403.72,3.48,-0.74,3.48,-0.74,0.72,0.65,0.85,4.20,4.20,4.22
407.76,3.41,-0.81,3.41,-0.80,0.75,0.68,0.89,4.16,4.16,4.22
411.84,3.34,-0.85,3.34,-0.84,0.78,0.72,0.93,4.13,4.13,4.19
415.96,3.27,-0.85,3.27,-0.85,0.82,0.75,0.97,4.09,4.09,4.12
420.12,3.20,-0.85,3.20,-0.84,0.85,0.78,1.01,4.05,4.06,4.05
424.32,3.13,-0.85,3.13,-0.85,0.89,0.82,1.04,4.02,4.02,3.98
428.56,3.06,-0.86,3.06,-0.87,0.92,0.85,1.08,3.98,3.98,3.92
432.85,2.99,-0.93,2.99,-0.92,0.96,0.89,1.12,3.95,3.95,3.92
437.18,2.92,-1.00,2.92,-1.00,1.00,0.92,1.16,3.92,3.92,3.92
441.55,2.85,-1.07,2.85,-1.07,1.05,0.96,1.19,3.89,3.89,3.92
445.96,2.78,-1.14,2.78,-1.12,1.10,1.00,1.23,3.88,3.88,3.92
450.42,2.71,-1.16,2.71,-1.17,1.16,1.03,1.26,3.86,3.86,3.87
454.93,2.64,-1.18,2.64,-1.20,1.21,1.07,1.29,3.84,3.84,3.82
459.48,2.57,-1.25,2.57,-1.23,1.24,1.10,1.33,3.81,3.81,3.82
464.07,2.50,-1.26,2.50,-1.28,1.26,1.14,1.35,3.76,3.76,3.76
468.71,2.43,-1.29,2.42,-1.32,1.28,1.18,1.38,3.71,3.70,3.72
473.40,2.35,-1.37,2.35,-1.32,1.30,1.21,1.41,3.65,3.65,3.72
478.13,2.28,-1.32,2.28,-1.32,1.32,1.25,1.43,3.60,3.60,3.60
482.91,2.21,-1.29,2.21,-1.30,1.34,1.29,1.46,3.55,3.55,3.49
487.74,2.13,-1.29,2.13,-1.30,1.36,1.32,1.48,3.50,3.50,3.42
492.62,2.06,-1.36,2.06,-1.36,1.38,1.36,1.49,3.45,3.45,3.42
497.55,1.99,-1.43,1.99,-1.42,1.40,1.40,1.51,3.39,3.39,3.42
502.52,1.92,-1.49,1.92,-1.47,1.41,1.43,1.53,3.33,3.33,3.41
507.55,1.85,-1.49,1.85,-1.47,1.43,1.47,1.54,3.28,3.28,3.34
512.62,1.78,-1.45,1.78,-1.45,1.45,1.50,1.55,3.23,3.23,3.23
517.75,1.71,-1.41,1.71,-1.45,1.46,1.54,1.56,3.17,3.17,3.12
522.93,1.64,-1.48,1.64,-1.46,1.49,1.57,1.56,3.12,3.12,3.12
528.16,1.57,-1.50,1.57,-1.48,1.51,1.61,1.57,3.08,3.08,3.07
533.44,1.49,-1.51,1.49,-1.51,1.54,1.64,1.57,3.03,3.03,3.00
