frequency,raw,error,smoothed,error_smoothed,equalization,parametric_eq,fixed_band_eq,equalized_raw,equalized_smoothed,target
20.00,11.65,5.44,11.68,5.47,-5.44,-4.24,-2.23,6.22,6.24,6.22
20.20,11.51,5.28,11.49,5.25,-5.20,-4.28,-2.30,6.31,6.29,6.23
20.40,11.34,5.09,11.30,5.05,-5.00,-4.32,-2.36,6.34,6.31,6.25
20.61,11.13,4.86,11.13,4.86,-4.83,-4.36,-2.43,6.30,6.30,6.27
20.81,10.93,4.64,10.93,4.65,-4.70,-4.40,-2.50,6.23,6.23,6.29
21.02,10.78,4.48,10.78,4.48,-4.61,-4.44,-2.57,6.17,6.17,6.30
21.23,10.69,4.37,10.71,4.40,-4.55,-4.48,-2.64,6.14,6.16,6.32
21.44,10.72,4.40,10.73,4.41,-4.53,-4.52,-2.72,6.19,6.20,6.32
21.66,10.85,4.52,10.84,4.51,-4.59,-4.56,-2.80,6.26,6.25,6.33
21.87,11.00,4.67,11.00,4.67,-4.69,-4.60,-2.88,6.31,6.31,6.33
22.09,11.18,4.85,11.18,4.85,-4.80,-4.64,-2.96,6.37,6.37,6.33
22.31,11.34,5.02,11.34,5.01,-4.92,-4.68,-3.05,6.43,6.42,6.33
22.54,11.46,5.13,11.45,5.12,-5.01,-4.72,-3.13,6.45,6.44,6.33
22.76,11.51,5.18,11.50,5.17,-5.06,-4.76,-3.22,6.45,6.44,6.33
22.99,11.49,5.16,11.48,5.15,-5.07,-4.80,-3.31,6.43,6.42,6.34
23.22,11.42,5.07,11.42,5.07,-5.05,-4.83,-3.40,6.37,6.38,6.35
23.45,11.33,4.97,11.34,4.98,-5.01,-4.87,-3.50,6.33,6.33,6.36
23.69,11.26,4.89,11.26,4.89,-4.97,-4.91,-3.60,6.29,6.30,6.37
23.92,11.22,4.83,11.22,4.84,-4.94,-4.95,-3.69,6.28,6.29,6.39
24.16,11.23,4.83,11.24,4.84,-4.93,-4.98,-3.80,6.30,6.31,6.40
24.40,11.29,4.89,11.30,4.89,-4.95,-5.02,-3.90,6.35,6.35,6.40
24.65,11.38,4.98,11.38,4.98,-4.98,-5.06,-4.00,6.41,6.40,6.40
24.89,11.47,5.07,11.46,5.07,-5.02,-5.09,-4.11,6.45,6.45,6.40
25.14,11.52,5.13,11.52,5.13,-5.06,-5.13,-4.22,6.47,6.47,6.39
25.39,11.56,5.17,11.54,5.16,-5.09,-5.16,-4.32,6.47,6.46,6.38
25.65,11.53,5.15,11.53,5.15,-5.10,-5.20,-4.43,6.42,6.42,6.37
25.91,11.49,5.12,11.49,5.12,-5.11,-5.23,-4.54,6.37,6.37,6.37
26.16,11.44,5.07,11.45,5.08,-5.12,-5.27,-4.65,6.32,6.33,6.37
26.43,11.43,5.05,11.44,5.06,-5.13,-5.30,-4.76,6.31,6.32,6.38
26.69,11.47,5.07,11.47,5.08,-5.14,-5.33,-4.86,6.33,6.33,6.40
26.96,11.53,5.12,11.54,5.12,-5.16,-5.36,-4.97,6.38,6.38,6.42
27.23,11.63,5.18,11.63,5.18,-5.18,-5.40,-5.08,6.44,6.44,6.44
27.50,11.71,5.25,11.71,5.25,-5.21,-5.43,-5.18,6.51,6.50,6.46
27.77,11.77,5.29,11.77,5.29,-5.22,-5.46,-5.28,6.55,6.54,6.48
28.05,11.80,5.31,11.79,5.30,-5.24,-5.49,-5.38,6.56,6.55,6.49
28.33,11.77,5.28,11.77,5.28,-5.24,-5.52,-5.47,6.53,6.53,6.49
28.62,11.75,5.25,11.75,5.25,-5.24,-5.55,-5.56,6.51,6.50,6.50
28.90,11.71,5.21,11.72,5.21,-5.25,-5.57,-5.65,6.46,6.47,6.50
29.19,11.72,5.21,11.72,5.21,-5.27,-5.60,-5.73,6.45,6.45,6.51
29.48,11.75,5.23,11.76,5.24,-5.31,-5.63,-5.80,6.43,6.45,6.52
29.78,11.85,5.32,11.85,5.32,-5.38,-5.65,-5.87,6.47,6.47,6.53
30.08,11.97,5.43,11.98,5.43,-5.47,-5.68,-5.93,6.50,6.51,6.54
30.38,12.13,5.57,12.13,5.57,-5.57,-5.70,-5.99,6.56,6.56,6.56
30.68,12.28,5.71,12.28,5.70,-5.68,-5.73,-6.04,6.60,6.60,6.57
30.99,12.41,5.82,12.41,5.82,-5.78,-5.75,-6.08,6.63,6.63,6.58
31.30,12.50,5.91,12.50,5.90,-5.85,-5.77,-6.11,6.65,6.65,6.59
31.61,12.54,5.95,12.54,5.95,-5.90,-5.80,-6.14,6.65,6.64,6.60
31.93,12.55,5.95,12.54,5.95,-5.91,-5.82,-6.16,6.64,6.63,6.59
32.24,12.51,5.92,12.51,5.92,-5.90,-5.84,-6.17,6.61,6.61,6.59
32.57,12.45,5.87,12.45,5.86,-5.86,-5.86,-6.18,6.59,6.59,6.58
32.89,12.38,5.80,12.38,5.80,-5.81,-5.87,-6.18,6.57,6.57,6.58
33.22,12.32,5.73,12.32,5.73,-5.76,-5.89,-6.17,6.56,6.56,6.59
33.55,12.27,5.68,12.28,5.68,-5.72,-5.91,-6.16,6.56,6.56,6.60
33.89,12.26,5.65,12.26,5.65,-5.69,-5.93,-6.14,6.56,6.57,6.61
34.23,12.26,5.65,12.26,5.65,-5.68,-5.94,-6.12,6.57,6.57,6.61
34.57,12.27,5.67,12.27,5.67,-5.69,-5.95,-6.10,6.58,6.58,6.60
34.92,12.28,5.71,12.28,5.71,-5.71,-5.97,-6.07,6.57,6.57,6.57
35.27,12.29,5.76,12.29,5.76,-5.74,-5.98,-6.04,6.55,6.55,6.53
35.62,12.30,5.81,12.30,5.80,-5.78,-5.99,-6.01,6.52,6.52,6.49
35.97,12.30,5.84,12.31,5.84,-5.82,-6.00,-5.97,6.49,6.49,6.46
36.33,12.32,5.86,12.32,5.86,-5.86,-6.01,-5.94,6.46,6.47,6.47
36.70,12.36,5.87,12.36,5.88,-5.89,-6.02,-5.90,6.46,6.47,6.48
37.06,12.41,5.90,12.41,5.90,-5.92,-6.03,-5.87,6.49,6.49,6.51
37.43,12.48,5.93,12.48,5.94,-5.94,-6.04,-5.83,6.54,6.53,6.55
37.81,12.53,5.97,12.54,5.97,-5.95,-6.05,-5.80,6.58,6.58,6.56
38.19,12.58,6.00,12.57,5.99,-5.96,-6.05,-5.77,6.63,6.62,6.58
38.57,12.58,6.00,12.58,5.99,-5.95,-6.06,-5.73,6.63,6.63,6.59
38.95,12.56,5.97,12.56,5.97,-5.94,-6.06,-5.71,6.62,6.62,6.59
39.34,12.53,5.92,12.53,5.93,-5.93,-6.07,-5.68,6.59,6.60,6.60
39.74,12.50,5.89,12.51,5.90,-5.92,-6.07,-5.66,6.58,6.58,6.61
40.14,12.50,5.88,12.50,5.88,-5.92,-6.07,-5.64,6.58,6.58,6.62
40.54,12.51,5.89,12.51,5.89,-5.92,-6.07,-5.62,6.59,6.59,6.62
40.94,12.53,5.92,12.53,5.92,-5.93,-6.07,-5.61,6.60,6.60,6.61
41.35,12.56,5.95,12.56,5.95,-5.95,-6.07,-5.60,6.61,6.61,6.61
41.76,12.59,5.98,12.59,5.98,-5.98,-6.07,-5.59,6.61,6.61,6.61
42.18,12.63,6.02,12.63,6.02,-6.01,-6.07,-5.59,6.62,6.62,6.61
42.60,12.67,6.05,12.67,6.05,-6.03,-6.07,-5.59,6.63,6.64,6.61
43.03,12.70,6.08,12.70,6.08,-6.05,-6.07,-5.60,6.65,6.65,6.62
43.46,12.71,6.09,12.71,6.09,-6.06,-6.06,-5.61,6.65,6.65,6.62
43.90,12.71,6.09,12.70,6.08,-6.07,-6.06,-5.62,6.64,6.63,6.62
44.33,12.69,6.06,12.69,6.07,-6.08,-6.05,-5.64,6.61,6.61,6.62
44.78,12.68,6.06,12.69,6.06,-6.10,-6.05,-5.67,6.59,6.59,6.63
45.23,12.70,6.07,12.70,6.08,-6.12,-6.05,-5.70,6.58,6.59,6.63
45.68,12.74,6.11,12.74,6.11,-6.15,-6.04,-5.73,6.59,6.60,6.63
46.13,12.79,6.17,12.79,6.17,-6.18,-6.04,-5.76,6.62,6.62,6.63
46.60,12.85,6.22,12.85,6.22,-6.21,-6.03,-5.80,6.64,6.64,6.62
47.06,12.89,6.27,12.89,6.27,-6.24,-6.03,-5.85,6.65,6.65,6.62
47.53,12.91,6.30,12.91,6.29,-6.26,-6.02,-5.90,6.66,6.65,6.62
48.01,12.91,6.30,12.91,6.30,-6.26,-6.02,-5.95,6.65,6.64,6.61
48.49,12.89,6.28,12.89,6.28,-6.26,-6.01,-6.01,6.63,6.63,6.61
48.97,12.85,6.25,12.85,6.25,-6.24,-6.01,-6.06,6.61,6.61,6.61
49.46,12.81,6.21,12.81,6.21,-6.21,-6.01,-6.13,6.60,6.60,6.60
49.96,12.77,6.17,12.77,6.17,-6.18,-6.00,-6.19,6.58,6.59,6.60
50.46,12.74,6.15,12.74,6.14,-6.16,-6.00,-6.26,6.58,6.58,6.60
50.96,12.73,6.13,12.73,6.13,-6.16,-6.00,-6.33,6.57,6.57,6.59
51.47,12.73,6.14,12.73,6.14,-6.16,-6.01,-6.40,6.56,6.57,6.59
51.99,12.75,6.17,12.75,6.17,-6.19,-6.01,-6.47,6.57,6.57,6.59
52.51,12.80,6.21,12.80,6.21,-6.23,-6.01,-6.55,6.57,6.57,6.59
53.03,12.85,6.27,12.86,6.27,-6.28,-6.02,-6.62,6.57,6.57,6.58
53.56,12.92,6.34,12.92,6.34,-6.34,-6.03,-6.69,6.58,6.58,6.58
54.10,12.98,6.41,12.98,6.41,-6.39,-6.04,-6.77,6.59,6.59,6.58
54.64,13.04,6.47,13.04,6.47,-6.44,-6.06,-6.84,6.60,6.60,6.57
55.18,13.09,6.51,13.08,6.51,-6.48,-6.08,-6.90,6.61,6.60,6.57
55.74,13.11,6.54,13.11,6.53,-6.51,-6.10,-6.97,6.60,6.60,6.58
56.29,13.12,6.54,13.12,6.54,-6.53,-6.12,-7.02,6.59,6.59,6.58
56.86,13.12,6.54,13.11,6.54,-6.53,-6.15,-7.08,6.58,6.58,6.58
57.42,13.10,6.52,13.10,6.52,-6.53,-6.19,-7.13,6.57,6.57,6.58
58.00,13.09,6.51,13.09,6.51,-6.53,-6.23,-7.17,6.56,6.56,6.58
58.58,13.08,6.51,13.08,6.51,-6.52,-6.27,-7.20,6.56,6.56,6.58
59.16,13.08,6.51,13.08,6.51,-6.52,-6.32,-7.23,6.56,6.56,6.57
59.76,13.08,6.51,13.08,6.51,-6.51,-6.37,-7.24,6.57,6.57,6.57
60.35,13.08,6.52,13.08,6.52,-6.51,-6.42,-7.24,6.57,6.57,6.57
60.96,13.08,6.52,13.08,6.52,-6.51,-6.48,-7.24,6.57,6.57,6.56
61.57,13.06,6.51,13.06,6.51,-6.50,-6.54,-7.22,6.56,6.56,6.56
62.18,13.05,6.50,13.05,6.50,-6.50,-6.61,-7.19,6.55,6.55,6.55
62.80,13.03,6.48,13.03,6.49,-6.49,-6.67,-7.15,6.54,6.54,6.54
63.43,13.01,6.47,13.01,6.47,-6.48,-6.73,-7.10,6.53,6.53,6.54
64.07,13.00,6.46,13.00,6.46,-6.47,-6.78,-7.04,6.53,6.53,6.53
64.71,12.99,6.46,12.99,6.46,-6.46,-6.82,-6.96,6.52,6.52,6.53
65.35,12.97,6.45,12.97,6.45,-6.45,-6.86,-6.87,6.52,6.52,6.53
66.01,12.96,6.43,12.96,6.43,-6.43,-6.88,-6.78,6.52,6.52,6.52
66.67,12.93,6.41,12.93,6.41,-6.41,-6.88,-6.67,6.52,6.52,6.52
67.33,12.90,6.39,12.91,6.39,-6.38,-6.86,-6.55,6.52,6.52,6.52
68.01,12.87,6.36,12.87,6.35,-6.35,-6.82,-6.43,6.52,6.52,6.51
68.69,12.82,6.31,12.82,6.31,-6.30,-6.75,-6.30,6.52,6.52,6.51
69.37,12.75,6.25,12.75,6.25,-6.24,-6.67,-6.16,6.51,6.51,6.50
70.07,12.68,6.18,12.68,6.18,-6.17,-6.55,-6.01,6.50,6.50,6.50
70.77,12.59,6.09,12.59,6.09,-6.10,-6.42,-5.86,6.49,6.49,6.49
71.48,12.49,6.00,12.49,6.01,-6.01,-6.26,-5.71,6.48,6.48,6.49
72.19,12.39,5.91,12.39,5.91,-5.92,-6.09,-5.55,6.47,6.47,6.48
72.91,12.29,5.81,12.29,5.82,-5.82,-5.90,-5.38,6.47,6.47,6.48
73.64,12.19,5.72,12.19,5.72,-5.72,-5.71,-5.22,6.47,6.47,6.47
74.38,12.07,5.61,12.07,5.61,-5.61,-5.50,-5.05,6.47,6.47,6.47
75.12,11.95,5.49,11.95,5.49,-5.49,-5.30,-4.88,6.47,6.46,6.46
75.87,11.82,5.36,11.82,5.36,-5.36,-5.09,-4.71,6.46,6.46,6.46
76.63,11.67,5.22,11.67,5.22,-5.22,-4.88,-4.54,6.46,6.46,6.45
77.40,11.52,5.07,11.52,5.07,-5.06,-4.68,-4.37,6.45,6.45,6.45
78.17,11.34,4.90,11.35,4.90,-4.90,-4.47,-4.20,6.44,6.45,6.44
78.95,11.16,4.73,11.16,4.73,-4.72,-4.27,-4.03,6.44,6.44,6.43
79.74,10.97,4.54,10.97,4.54,-4.54,-4.08,-3.86,6.43,6.43,6.43
80.54,10.76,4.34,10.76,4.34,-4.34,-3.89,-3.69,6.42,6.42,6.42
81.35,10.54,4.14,10.54,4.14,-4.14,-3.70,-3.52,6.41,6.41,6.41
82.16,10.33,3.93,10.33,3.93,-3.93,-3.52,-3.36,6.40,6.40,6.40
82.98,10.11,3.71,10.11,3.71,-3.72,-3.34,-3.19,6.39,6.39,6.39
83.81,9.88,3.50,9.88,3.50,-3.50,-3.17,-3.03,6.38,6.38,6.39
84.65,9.66,3.28,9.66,3.28,-3.29,-3.00,-2.87,6.38,6.38,6.38
85.50,9.45,3.07,9.45,3.07,-3.08,-2.84,-2.71,6.37,6.37,6.38
86.35,9.24,2.86,9.24,2.86,-2.87,-2.68,-2.55,6.37,6.37,6.37
87.22,9.03,2.66,9.03,2.66,-2.66,-2.53,-2.39,6.37,6.37,6.37
88.09,8.82,2.46,8.82,2.46,-2.45,-2.37,-2.23,6.36,6.36,6.36
88.97,8.61,2.25,8.61,2.25,-2.25,-2.22,-2.08,6.36,6.36,6.36
89.86,8.40,2.05,8.40,2.06,-2.05,-2.08,-1.92,6.35,6.35,6.35
90.76,8.20,1.86,8.20,1.86,-1.86,-1.93,-1.77,6.34,6.34,6.34
91.66,8.00,1.67,8.00,1.67,-1.67,-1.79,-1.62,6.33,6.33,6.33
92.58,7.80,1.48,7.80,1.48,-1.48,-1.65,-1.47,6.32,6.32,6.32
93.51,7.61,1.30,7.61,1.30,-1.29,-1.52,-1.33,6.32,6.31,6.31
94.44,7.42,1.12,7.42,1.12,-1.12,-1.38,-1.18,6.30,6.30,6.30
95.39,7.24,0.94,7.24,0.94,-0.95,-1.25,-1.04,6.29,6.29,6.30
96.34,7.06,0.78,7.06,0.78,-0.78,-1.12,-0.90,6.28,6.28,6.29
97.30,6.90,0.62,6.90,0.62,-0.63,-0.99,-0.75,6.27,6.27,6.28
98.28,6.75,0.48,6.75,0.48,-0.48,-0.86,-0.62,6.27,6.27,6.27
99.26,6.61,0.35,6.61,0.35,-0.35,-0.74,-0.48,6.27,6.27,6.26
100.25,6.48,0.22,6.47,0.22,-0.22,-0.61,-0.34,6.26,6.26,6.25
101.25,6.34,0.10,6.34,0.10,-0.10,-0.49,-0.21,6.25,6.25,6.24
102.27,6.22,-0.02,6.22,-0.02,0.02,-0.37,-0.08,6.23,6.23,6.23
103.29,6.10,-0.13,6.10,-0.12,0.12,-0.25,0.05,6.22,6.22,6.22
104.32,5.99,-0.22,5.99,-0.22,0.21,-0.14,0.18,6.21,6.21,6.21
105.37,5.90,-0.31,5.89,-0.31,0.30,-0.02,0.31,6.20,6.20,6.20
106.42,5.81,-0.39,5.81,-0.39,0.38,0.09,0.43,6.19,6.19,6.19
107.48,5.72,-0.46,5.72,-0.46,0.46,0.20,0.55,6.18,6.18,6.18
108.56,5.64,-0.53,5.64,-0.53,0.53,0.31,0.66,6.17,6.17,6.17
109.64,5.57,-0.59,5.57,-0.59,0.60,0.42,0.77,6.16,6.16,6.16
110.74,5.49,-0.66,5.49,-0.66,0.67,0.52,0.88,6.15,6.15,6.15
111.85,5.41,-0.73,5.41,-0.73,0.73,0.62,0.98,6.14,6.14,6.14
112.97,5.33,-0.79,5.33,-0.80,0.80,0.72,1.08,6.13,6.13,6.13
114.10,5.25,-0.86,5.25,-0.86,0.87,0.81,1.18,6.12,6.12,6.12
115.24,5.17,-0.94,5.17,-0.94,0.94,0.91,1.27,6.11,6.11,6.11
116.39,5.09,-1.01,5.09,-1.01,1.00,1.00,1.35,6.09,6.09,6.10
117.55,5.01,-1.07,5.02,-1.07,1.06,1.08,1.43,6.08,6.08,6.09
118.73,4.95,-1.13,4.95,-1.13,1.12,1.17,1.50,6.07,6.07,6.08
119.92,4.88,-1.18,4.88,-1.18,1.18,1.25,1.57,6.06,6.06,6.07
121.12,4.82,-1.23,4.82,-1.23,1.24,1.33,1.63,6.06,6.06,6.05
122.33,4.76,-1.28,4.76,-1.28,1.29,1.40,1.68,6.05,6.05,6.04
123.55,4.70,-1.33,4.70,-1.33,1.34,1.47,1.73,6.03,6.03,6.03
124.79,4.63,-1.39,4.63,-1.39,1.39,1.54,1.77,6.02,6.02,6.01
126.03,4.56,-1.44,4.56,-1.44,1.44,1.60,1.80,6.00,6.00,6.00
127.29,4.50,-1.49,4.50,-1.49,1.49,1.66,1.83,5.98,5.99,5.99
128.57,4.43,-1.54,4.43,-1.54,1.54,1.71,1.85,5.97,5.97,5.97
129.85,4.37,-1.59,4.37,-1.59,1.59,1.76,1.86,5.96,5.96,5.96
131.15,4.31,-1.64,4.31,-1.64,1.64,1.81,1.88,5.95,5.95,5.95
132.46,4.25,-1.68,4.25,-1.68,1.69,1.85,1.88,5.94,5.94,5.93
133.79,4.19,-1.73,4.19,-1.73,1.73,1.89,1.88,5.93,5.93,5.92
135.12,4.13,-1.78,4.13,-1.78,1.78,1.92,1.87,5.91,5.91,5.91
136.48,4.07,-1.82,4.07,-1.82,1.82,1.95,1.86,5.90,5.90,5.90
137.84,4.01,-1.87,4.01,-1.87,1.87,1.98,1.84,5.88,5.88,5.88
139.22,3.96,-1.91,3.96,-1.91,1.91,2.00,1.82,5.86,5.87,5.87
140.61,3.91,-1.95,3.91,-1.95,1.94,2.02,1.79,5.85,5.85,5.85
142.02,3.86,-1.98,3.86,-1.98,1.97,2.04,1.76,5.84,5.84,5.84
143.44,3.82,-2.00,3.82,-2.00,2.00,2.04,1.73,5.82,5.82,5.82
144.87,3.78,-2.03,3.79,-2.02,2.02,2.05,1.70,5.81,5.81,5.81
146.32,3.76,-2.04,3.75,-2.04,2.04,2.05,1.66,5.79,5.79,5.79
147.78,3.73,-2.05,3.73,-2.05,2.05,2.06,1.62,5.78,5.78,5.78
149.26,3.70,-2.06,3.70,-2.06,2.06,2.05,1.58,5.77,5.77,5.76
150.75,3.68,-2.07,3.68,-2.07,2.07,2.05,1.54,5.75,5.75,5.75
152.26,3.66,-2.07,3.66,-2.07,2.07,2.03,1.49,5.74,5.74,5.73
153.78,3.64,-2.07,3.64,-2.07,2.08,2.02,1.45,5.72,5.72,5.72
155.32,3.63,-2.07,3.63,-2.07,2.08,2.01,1.41,5.70,5.70,5.70
156.88,3.61,-2.07,3.61,-2.07,2.07,1.99,1.36,5.68,5.68,5.69
158.44,3.60,-2.07,3.60,-2.07,2.07,1.97,1.32,5.67,5.67,5.67
160.03,3.59,-2.06,3.59,-2.06,2.06,1.95,1.27,5.65,5.65,5.65
161.63,3.58,-2.05,3.58,-2.05,2.05,1.92,1.23,5.63,5.63,5.63
163.24,3.58,-2.04,3.58,-2.04,2.04,1.90,1.18,5.62,5.62,5.62
164.88,3.58,-2.03,3.58,-2.03,2.03,1.87,1.14,5.61,5.60,5.60
166.53,3.58,-2.01,3.58,-2.01,2.01,1.84,1.09,5.59,5.59,5.59
168.19,3.58,-1.99,3.58,-1.99,1.99,1.80,1.05,5.57,5.57,5.57
169.87,3.58,-1.97,3.58,-1.97,1.97,1.77,1.01,5.55,5.55,5.55
171.57,3.59,-1.94,3.59,-1.94,1.94,1.74,0.96,5.53,5.53,5.54
173.29,3.60,-1.91,3.60,-1.91,1.91,1.70,0.92,5.51,5.51,5.52
175.02,3.62,-1.88,3.62,-1.88,1.87,1.66,0.88,5.49,5.49,5.50
176.77,3.64,-1.84,3.64,-1.84,1.83,1.62,0.84,5.48,5.48,5.48
178.54,3.67,-1.79,3.67,-1.79,1.79,1.58,0.80,5.46,5.46,5.46
180.32,3.70,-1.74,3.70,-1.74,1.74,1.55,0.76,5.44,5.44,5.44
182.13,3.73,-1.69,3.73,-1.69,1.69,1.50,0.73,5.42,5.42,5.42
183.95,3.76,-1.64,3.76,-1.64,1.64,1.46,0.69,5.40,5.40,5.40
185.79,3.80,-1.58,3.80,-1.58,1.58,1.42,0.65,5.38,5.38,5.39
187.65,3.84,-1.53,3.84,-1.53,1.52,1.38,0.62,5.36,5.36,5.37
189.52,3.88,-1.46,3.88,-1.46,1.46,1.33,0.59,5.35,5.35,5.35
191.42,3.93,-1.40,3.93,-1.40,1.40,1.29,0.55,5.33,5.33,5.33
193.33,3.97,-1.34,3.97,-1.34,1.34,1.25,0.52,5.31,5.31,5.31
195.27,4.02,-1.27,4.01,-1.27,1.28,1.20,0.49,5.29,5.29,5.29
197.22,4.05,-1.21,4.05,-1.21,1.22,1.16,0.46,5.27,5.27,5.27
199.19,4.09,-1.15,4.09,-1.15,1.15,1.11,0.43,5.25,5.25,5.25
201.18,4.13,-1.09,4.13,-1.09,1.09,1.07,0.40,5.22,5.22,5.22
203.19,4.17,-1.03,4.17,-1.03,1.03,1.02,0.37,5.20,5.20,5.20
205.23,4.21,-0.97,4.21,-0.97,0.97,0.97,0.34,5.18,5.18,5.18
207.28,4.26,-0.90,4.26,-0.90,0.90,0.93,0.31,5.16,5.16,5.16
209.35,4.30,-0.84,4.30,-0.84,0.84,0.88,0.28,5.14,5.14,5.14
211.44,4.34,-0.78,4.34,-0.78,0.78,0.83,0.26,5.12,5.12,5.12
213.56,4.38,-0.71,4.38,-0.71,0.72,0.78,0.23,5.10,5.10,5.10
215.69,4.42,-0.65,4.42,-0.65,0.65,0.74,0.20,5.07,5.07,5.07
217.85,4.46,-0.59,4.46,-0.59,0.59,0.69,0.18,5.05,5.05,5.05
220.03,4.50,-0.53,4.50,-0.53,0.53,0.64,0.15,5.03,5.03,5.03
222.23,4.54,-0.47,4.54,-0.47,0.46,0.59,0.13,5.00,5.00,5.00
224.45,4.58,-0.40,4.58,-0.40,0.40,0.54,0.11,4.98,4.98,4.98
226.70,4.62,-0.34,4.62,-0.34,0.34,0.49,0.08,4.96,4.96,4.96
228.96,4.66,-0.28,4.66,-0.28,0.28,0.44,0.06,4.93,4.93,4.93
231.25,4.69,-0.22,4.69,-0.22,0.22,0.39,0.04,4.91,4.91,4.91
233.57,4.73,-0.15,4.73,-0.16,0.16,0.34,0.02,4.89,4.89,4.88
235.90,4.76,-0.10,4.76,-0.10,0.10,0.28,-0.01,4.86,4.86,4.86
238.26,4.79,-0.04,4.79,-0.04,0.04,0.23,-0.03,4.84,4.84,4.84
240.64,4.82,0.01,4.82,0.01,-0.01,0.18,-0.05,4.81,4.81,4.81
243.05,4.85,0.06,4.85,0.06,-0.06,0.13,-0.07,4.79,4.79,4.79
245.48,4.88,0.11,4.88,0.11,-0.11,0.07,-0.09,4.76,4.76,4.76
247.93,4.90,0.16,4.90,0.16,-0.16,0.02,-0.11,4.74,4.74,4.74
250.41,4.92,0.21,4.92,0.21,-0.21,-0.04,-0.13,4.71,4.71,4.71
252.92,4.95,0.26,4.95,0.26,-0.26,-0.09,-0.15,4.69,4.69,4.69
255.45,4.97,0.31,4.97,0.31,-0.31,-0.15,-0.17,4.66,4.66,4.66
258.00,5.00,0.36,5.00,0.36,-0.36,-0.20,-0.19,4.64,4.64,4.63
260.58,5.02,0.41,5.02,0.41,-0.41,-0.26,-0.21,4.61,4.61,4.61
263.19,5.03,0.45,5.03,0.45,-0.45,-0.32,-0.23,4.58,4.58,4.58
265.82,5.05,0.50,5.05,0.50,-0.49,-0.37,-0.25,4.56,4.56,4.55
268.48,5.06,0.54,5.06,0.54,-0.54,-0.43,-0.27,4.53,4.53,4.53
271.16,5.08,0.58,5.08,0.58,-0.58,-0.49,-0.29,4.50,4.50,4.50
273.87,5.09,0.62,5.09,0.62,-0.62,-0.54,-0.31,4.47,4.47,4.47
276.61,5.10,0.65,5.10,0.65,-0.66,-0.60,-0.33,4.44,4.44,4.44
279.38,5.11,0.69,5.11,0.69,-0.69,-0.65,-0.35,4.41,4.41,4.41
282.17,5.12,0.73,5.12,0.73,-0.73,-0.70,-0.37,4.38,4.38,4.38
284.99,5.12,0.77,5.12,0.77,-0.77,-0.76,-0.39,4.36,4.35,4.35
287.84,5.13,0.81,5.13,0.81,-0.81,-0.81,-0.41,4.33,4.33,4.32
290.72,5.14,0.84,5.14,0.84,-0.84,-0.85,-0.43,4.30,4.30,4.30
293.63,5.14,0.88,5.14,0.88,-0.87,-0.90,-0.45,4.27,4.27,4.26
296.57,5.14,0.91,5.14,0.91,-0.91,-0.95,-0.47,4.24,4.24,4.23
299.53,5.14,0.94,5.14,0.94,-0.94,-0.99,-0.50,4.20,4.20,4.20
302.53,5.14,0.97,5.14,0.97,-0.97,-1.03,-0.52,4.17,4.17,4.17
305.55,5.14,1.00,5.14,1.00,-1.00,-1.06,-0.54,4.14,4.14,4.14
308.61,5.14,1.02,5.14,1.02,-1.03,-1.10,-0.57,4.11,4.11,4.11
311.69,5.13,1.05,5.13,1.05,-1.05,-1.13,-0.59,4.08,4.08,4.08
314.81,5.13,1.08,5.13,1.08,-1.08,-1.15,-0.61,4.05,4.05,4.05
317.96,5.12,1.11,5.12,1.11,-1.11,-1.18,-0.64,4.02,4.02,4.02
321.14,5.12,1.13,5.12,1.13,-1.13,-1.20,-0.67,3.99,3.99,3.99
324.35,5.11,1.16,5.11,1.16,-1.16,-1.22,-0.69,3.95,3.95,3.95
327.59,5.10,1.18,5.10,1.18,-1.18,-1.23,-0.72,3.92,3.92,3.92
330.87,5.10,1.21,5.10,1.21,-1.21,-1.24,-0.75,3.89,3.89,3.89
334.18,5.09,1.23,5.08,1.23,-1.23,-1.25,-0.78,3.86,3.86,3.86
337.52,5.07,1.25,5.07,1.25,-1.25,-1.25,-0.80,3.83,3.83,3.83
340.90,5.06,1.26,5.06,1.26,-1.26,-1.25,-0.83,3.79,3.79,3.79
344.30,5.04,1.28,5.04,1.28,-1.28,-1.25,-0.87,3.76,3.76,3.76
347.75,5.02,1.29,5.02,1.29,-1.29,-1.25,-0.90,3.73,3.73,3.73
351.23,5.00,1.30,5.00,1.30,-1.30,-1.25,-0.93,3.70,3.70,3.70
354.74,4.98,1.31,4.98,1.31,-1.31,-1.24,-0.96,3.67,3.67,3.67
358.28,4.96,1.32,4.96,1.32,-1.32,-1.23,-1.00,3.64,3.64,3.64
361.87,4.94,1.33,4.94,1.33,-1.33,-1.23,-1.03,3.60,3.60,3.61
365.49,4.91,1.34,4.91,1.34,-1.34,-1.22,-1.07,3.57,3.57,3.57
369.14,4.89,1.35,4.89,1.35,-1.35,-1.21,-1.10,3.54,3.54,3.54
372.83,4.86,1.35,4.86,1.35,-1.36,-1.21,-1.14,3.51,3.51,3.51
376.56,4.84,1.36,4.84,1.36,-1.36,-1.20,-1.18,3.47,3.47,3.47
380.33,4.81,1.37,4.81,1.37,-1.37,-1.19,-1.22,3.44,3.44,3.44
384.13,4.79,1.38,4.79,1.38,-1.38,-1.19,-1.25,3.40,3.40,3.40
387.97,4.76,1.39,4.76,1.39,-1.39,-1.18,-1.29,3.37,3.37,3.37
391.85,4.73,1.40,4.73,1.40,-1.40,-1.18,-1.33,3.33,3.33,3.33
395.77,4.70,1.41,4.70,1.41,-1.41,-1.18,-1.37,3.29,3.29,3.29
399.73,4.67,1.42,4.67,1.42,-1.42,-1.18,-1.41,3.25,3.25,3.25
403.72,4.64,1.42,4.64,1.42,-1.42,-1.18,-1.45,3.21,3.21,3.21
407.76,4.60,1.43,4.60,1.43,-1.43,-1.19,-1.49,3.18,3.18,3.17
411.84,4.57,1.43,4.57,1.44,-1.43,-1.20,-1.53,3.14,3.14,3.14
415.96,4.53,1.44,4.53,1.44,-1.44,-1.21,-1.57,3.10,3.10,3.10
420.12,4.50,1.44,4.50,1.44,-1.44,-1.22,-1.61,3.05,3.05,3.05
424.32,4.46,1.45,4.46,1.45,-1.45,-1.23,-1.65,3.01,3.01,3.01
428.56,4.42,1.45,4.42,1.45,-1.45,-1.25,-1.68,2.97,2.97,2.97
432.85,4.38,1.45,4.38,1.45,-1.45,-1.27,-1.72,2.93,2.93,2.93
437.18,4.34,1.45,4.34,1.45,-1.45,-1.29,-1.75,2.89,2.89,2.89
441.55,4.30,1.45,4.30,1.45,-1.45,-1.32,-1.79,2.85,2.85,2.85
445.96,4.26,1.46,4.26,1.46,-1.46,-1.34,-1.82,2.80,2.80,2.80
450.42,4.22,1.46,4.22,1.46,-1.46,-1.37,-1.84,2.76,2.76,2.76
454.93,4.18,1.46,4.18,1.46,-1.46,-1.40,-1.87,2.72,2.72,2.72
459.48,4.14,1.46,4.14,1.46,-1.47,-1.43,-1.89,2.67,2.67,2.68
464.07,4.10,1.47,4.10,1.47,-1.47,-1.46,-1.91,2.63,2.63,2.63
468.71,4.06,1.47,4.06,1.47,-1.48,-1.50,-1.93,2.59,2.59,2.59
473.40,4.02,1.48,4.02,1.48,-1.48,-1.53,-1.94,2.55,2.55,2.54
478.13,3.98,1.48,3.98,1.48,-1.48,-1.57,-1.95,2.50,2.50,2.50
482.91,3.94,1.49,3.94,1.49,-1.48,-1.60,-1.95,2.46,2.46,2.45
487.74,3.89,1.48,3.89,1.48,-1.48,-1.63,-1.95,2.41,2.41,2.41
492.62,3.84,1.48,3.84,1.48,-1.48,-1.66,-1.95,2.36,2.36,2.36
497.55,3.79,1.48,3.79,1.48,-1.48,-1.69,-1.94,2.32,2.32,2.32
502.52,3.74,1.47,3.74,1.47,-1.47,-1.71,-1.93,2.27,2.27,2.27
507.55,3.69,1.46,3.69,1.46,-1.47,-1.73,-1.91,2.22,2.22,2.22
512.62,3.64,1.46,3.64,1.46,-1.46,-1.75,-1.89,2.18,2.18,2.18
517.75,3.58,1.45,3.58,1.45,-1.45,-1.75,-1.86,2.13,2.13,2.13
522.93,3.53,1.45,3.53,1.45,-1.45,-1.74,-1.83,2.08,2.08,2.08
528.16,3.48,1.44,3.48,1.44,-1.44,-1.73,-1.80,2.04,2.04,2.04
