frequency,raw,error,smoothed,error_smoothed,equalization,parametric_eq,fixed_band_eq,equalized_raw,equalized_smoothed,target
20.00,4.36,-4.21,4.36,-4.21,4.22,3.99,1.51,8.58,8.58,8.57
20.20,4.40,-4.20,4.40,-4.20,4.21,4.01,1.56,8.60,8.60,8.60
20.40,4.43,-4.19,4.43,-4.19,4.19,4.03,1.60,8.62,8.62,8.63
20.61,4.47,-4.18,4.47,-4.18,4.17,4.04,1.65,8.64,8.64,8.65
20.81,4.50,-4.16,4.51,-4.16,4.15,4.05,1.70,8.66,8.66,8.66
21.02,4.54,-4.13,4.54,-4.13,4.13,4.04,1.75,8.67,8.67,8.68
21.23,4.58,-4.10,4.59,-4.10,4.10,4.03,1.80,8.69,8.69,8.69
21.44,4.63,-4.07,4.63,-4.07,4.08,4.00,1.86,8.71,8.71,8.71
21.66,4.68,-4.04,4.68,-4.04,4.05,3.98,1.91,8.73,8.73,8.72
21.87,4.73,-4.01,4.73,-4.01,4.02,3.94,1.97,8.75,8.75,8.74
22.09,4.78,-3.98,4.78,-3.98,3.98,3.91,2.03,8.76,8.76,8.76
22.31,4.83,-3.95,4.83,-3.95,3.95,3.88,2.09,8.77,8.77,8.78
22.54,4.87,-3.92,4.87,-3.92,3.91,3.84,2.15,8.78,8.78,8.79
22.76,4.91,-3.88,4.91,-3.88,3.87,3.81,2.21,8.78,8.78,8.79
22.99,4.95,-3.84,4.95,-3.84,3.84,3.78,2.28,8.78,8.78,8.79
23.22,4.98,-3.80,4.98,-3.80,3.80,3.75,2.34,8.78,8.78,8.78
23.45,5.01,-3.76,5.01,-3.76,3.77,3.73,2.41,8.78,8.78,8.77
23.69,5.05,-3.73,5.05,-3.73,3.74,3.70,2.48,8.78,8.78,8.77
23.92,5.08,-3.70,5.08,-3.70,3.71,3.68,2.55,8.79,8.79,8.78
24.16,5.12,-3.68,5.12,-3.68,3.68,3.66,2.62,8.80,8.80,8.79
24.40,5.15,-3.66,5.15,-3.66,3.66,3.64,2.69,8.81,8.81,8.81
24.65,5.19,-3.65,5.19,-3.65,3.64,3.62,2.77,8.83,8.83,8.84
24.89,5.22,-3.63,5.22,-3.63,3.62,3.60,2.84,8.85,8.85,8.85
25.14,5.25,-3.61,5.25,-3.61,3.61,3.58,2.92,8.86,8.86,8.87
25.39,5.28,-3.59,5.28,-3.59,3.59,3.57,2.99,8.87,8.87,8.87
25.65,5.30,-3.57,5.30,-3.57,3.57,3.55,3.07,8.87,8.87,8.87
25.91,5.32,-3.54,5.32,-3.54,3.55,3.54,3.14,8.87,8.87,8.86
26.16,5.34,-3.52,5.34,-3.52,3.53,3.52,3.22,8.87,8.87,8.86
26.43,5.36,-3.50,5.36,-3.50,3.50,3.51,3.29,8.87,8.87,8.86
26.69,5.39,-3.48,5.39,-3.48,3.48,3.49,3.37,8.87,8.87,8.87
26.96,5.42,-3.47,5.42,-3.47,3.46,3.48,3.44,8.89,8.89,8.89
27.23,5.46,-3.45,5.46,-3.45,3.45,3.46,3.51,8.90,8.90,8.91
27.50,5.49,-3.43,5.49,-3.43,3.43,3.45,3.58,8.92,8.92,8.93
27.77,5.52,-3.41,5.52,-3.41,3.42,3.43,3.64,8.94,8.94,8.94
28.05,5.55,-3.40,5.55,-3.40,3.40,3.42,3.71,8.95,8.95,8.95
28.33,5.57,-3.39,5.57,-3.39,3.39,3.40,3.76,8.96,8.96,8.95
28.62,5.58,-3.38,5.58,-3.38,3.38,3.39,3.82,8.96,8.96,8.95
28.90,5.59,-3.37,5.59,-3.37,3.37,3.38,3.87,8.96,8.96,8.96
29.19,5.60,-3.37,5.60,-3.37,3.36,3.36,3.92,8.96,8.96,8.96
29.48,5.61,-3.36,5.61,-3.36,3.35,3.35,3.96,8.97,8.97,8.97
29.78,5.64,-3.35,5.64,-3.35,3.34,3.33,4.00,8.98,8.98,8.98
30.08,5.66,-3.33,5.66,-3.33,3.33,3.32,4.03,8.99,8.99,8.99
30.38,5.69,-3.31,5.69,-3.31,3.31,3.30,4.06,9.00,9.00,9.00
30.68,5.71,-3.29,5.71,-3.29,3.29,3.29,4.07,9.01,9.01,9.01
30.99,5.73,-3.27,5.73,-3.27,3.27,3.27,4.09,9.01,9.01,9.01
31.30,5.76,-3.25,5.76,-3.25,3.25,3.26,4.10,9.01,9.01,9.01
31.61,5.78,-3.23,5.78,-3.23,3.23,3.24,4.10,9.01,9.01,9.01
31.93,5.80,-3.21,5.80,-3.21,3.21,3.22,4.09,9.01,9.01,9.01
32.24,5.83,-3.18,5.83,-3.18,3.19,3.21,4.08,9.01,9.01,9.01
32.57,5.85,-3.16,5.85,-3.16,3.16,3.19,4.06,9.02,9.02,9.01
32.89,5.87,-3.14,5.87,-3.14,3.14,3.17,4.04,9.02,9.02,9.02
33.22,5.89,-3.13,5.89,-3.13,3.12,3.16,4.01,9.01,9.01,9.02
33.55,5.91,-3.11,5.91,-3.10,3.10,3.14,3.98,9.01,9.01,9.02
33.89,5.93,-3.08,5.93,-3.08,3.08,3.12,3.94,9.01,9.01,9.01
34.23,5.95,-3.06,5.95,-3.06,3.06,3.11,3.90,9.02,9.02,9.01
34.57,5.97,-3.03,5.97,-3.03,3.04,3.09,3.86,9.02,9.01,9.00
34.92,5.98,-3.01,5.98,-3.02,3.02,3.07,3.81,9.01,9.01,9.00
35.27,5.99,-3.00,5.98,-3.00,3.00,3.05,3.75,8.99,8.99,8.99
35.62,5.99,-2.99,5.99,-2.99,2.98,3.03,3.70,8.96,8.96,8.98
35.97,5.99,-2.98,5.99,-2.97,2.95,3.01,3.64,8.94,8.95,8.96
36.33,6.01,-2.94,6.01,-2.94,2.93,2.99,3.58,8.94,8.94,8.95
36.70,6.04,-2.90,6.04,-2.90,2.91,2.97,3.52,8.95,8.95,8.94
37.06,6.08,-2.86,6.07,-2.86,2.89,2.95,3.46,8.96,8.96,8.93
37.43,6.10,-2.83,6.09,-2.83,2.86,2.94,3.40,8.96,8.95,8.93
37.81,6.10,-2.82,6.10,-2.82,2.83,2.91,3.34,8.93,8.93,8.92
38.19,6.10,-2.81,6.10,-2.80,2.79,2.89,3.28,8.89,8.89,8.91
38.57,6.11,-2.79,6.12,-2.78,2.74,2.87,3.21,8.85,8.86,8.90
38.95,6.16,-2.73,6.16,-2.73,2.68,2.85,3.15,8.84,8.84,8.89
39.34,6.22,-2.67,6.22,-2.66,2.62,2.83,3.09,8.84,8.84,8.89
39.74,6.30,-2.58,6.31,-2.58,2.56,2.81,3.03,8.86,8.87,8.88
40.14,6.39,-2.49,6.39,-2.49,2.52,2.79,2.97,8.91,8.91,8.88
40.54,6.47,-2.41,6.46,-2.42,2.50,2.77,2.92,8.97,8.96,8.88
40.94,6.48,-2.40,6.48,-2.40,2.50,2.74,2.86,8.98,8.97,8.88
41.35,6.44,-2.43,6.44,-2.44,2.52,2.72,2.81,8.96,8.95,8.87
41.76,6.35,-2.52,6.34,-2.52,2.55,2.70,2.75,8.90,8.89,8.87
42.18,6.23,-2.62,6.23,-2.62,2.58,2.68,2.70,8.81,8.81,8.85
42.60,6.12,-2.71,6.13,-2.70,2.61,2.65,2.65,8.73,8.74,8.84
43.03,6.07,-2.74,6.09,-2.72,2.62,2.63,2.61,8.70,8.71,8.81
43.46,6.10,-2.69,6.10,-2.69,2.62,2.61,2.56,8.73,8.73,8.79
43.90,6.16,-2.61,6.16,-2.61,2.60,2.58,2.52,8.76,8.76,8.77
44.33,6.23,-2.53,6.22,-2.53,2.57,2.56,2.48,8.80,8.79,8.76
44.78,6.27,-2.46,6.27,-2.46,2.53,2.53,2.44,8.80,8.80,8.74
45.23,6.30,-2.42,6.29,-2.42,2.48,2.51,2.40,8.78,8.77,8.71
45.68,6.29,-2.40,6.29,-2.41,2.43,2.49,2.37,8.73,8.72,8.70
46.13,6.27,-2.41,6.27,-2.41,2.40,2.46,2.33,8.67,8.67,8.68
46.60,6.25,-2.42,6.25,-2.41,2.37,2.43,2.30,8.62,8.62,8.67
47.06,6.25,-2.40,6.25,-2.39,2.36,2.41,2.27,8.60,8.61,8.64
47.53,6.26,-2.35,6.27,-2.34,2.35,2.38,2.24,8.61,8.62,8.61
48.01,6.31,-2.29,6.31,-2.30,2.33,2.36,2.22,8.64,8.64,8.60
48.49,6.34,-2.26,6.33,-2.28,2.31,2.33,2.19,8.65,8.64,8.61
48.97,6.34,-2.28,6.33,-2.28,2.27,2.31,2.17,8.61,8.61,8.62
49.46,6.31,-2.30,6.32,-2.28,2.24,2.28,2.15,8.55,8.56,8.61
49.96,6.29,-2.26,6.30,-2.24,2.21,2.25,2.13,8.50,8.51,8.55
50.46,6.30,-2.17,6.30,-2.18,2.18,2.23,2.11,8.48,8.48,8.48
50.96,6.32,-2.10,6.32,-2.12,2.15,2.20,2.09,8.47,8.47,8.42
51.47,6.34,-2.08,6.33,-2.09,2.12,2.17,2.08,8.46,8.45,8.41
51.99,6.34,-2.09,6.34,-2.08,2.09,2.14,2.06,8.43,8.43,8.43
52.51,6.35,-2.07,6.35,-2.07,2.06,2.11,2.05,8.40,8.40,8.42
53.03,6.35,-2.05,6.35,-2.05,2.03,2.09,2.03,8.38,8.38,8.39
53.56,6.34,-2.01,6.34,-2.02,2.02,2.06,2.02,8.36,8.36,8.36
54.10,6.33,-2.00,6.33,-2.00,2.00,2.03,2.01,8.34,8.34,8.33
54.64,6.32,-1.98,6.32,-1.98,1.99,2.00,1.99,8.31,8.31,8.31
55.18,6.31,-1.96,6.31,-1.96,1.97,1.97,1.98,8.28,8.28,8.28
55.74,6.30,-1.95,6.30,-1.95,1.95,1.94,1.97,8.25,8.25,8.25
56.29,6.29,-1.93,6.29,-1.94,1.92,1.91,1.95,8.22,8.22,8.23
56.86,6.29,-1.92,6.29,-1.91,1.90,1.88,1.94,8.19,8.19,8.21
57.42,6.30,-1.88,6.30,-1.88,1.87,1.86,1.92,8.17,8.17,8.18
58.00,6.32,-1.82,6.31,-1.84,1.84,1.83,1.91,8.16,8.15,8.14
58.58,6.32,-1.80,6.32,-1.80,1.81,1.80,1.89,8.13,8.13,8.12
59.16,6.32,-1.78,6.32,-1.78,1.78,1.77,1.88,8.10,8.10,8.10
59.76,6.33,-1.76,6.33,-1.75,1.75,1.73,1.86,8.07,8.08,8.09
60.35,6.33,-1.71,6.33,-1.71,1.72,1.70,1.84,8.05,8.05,8.05
60.96,6.33,-1.66,6.32,-1.68,1.70,1.67,1.81,8.03,8.02,7.99
61.57,6.30,-1.66,6.30,-1.66,1.67,1.64,1.79,7.97,7.97,7.96
62.18,6.27,-1.67,6.28,-1.66,1.65,1.61,1.77,7.91,7.92,7.94
62.80,6.26,-1.65,6.26,-1.65,1.62,1.58,1.74,7.88,7.88,7.91
63.43,6.25,-1.62,6.25,-1.62,1.60,1.55,1.71,7.85,7.85,7.87
64.07,6.25,-1.59,6.25,-1.58,1.59,1.52,1.68,7.83,7.83,7.84
64.71,6.25,-1.54,6.25,-1.54,1.57,1.49,1.65,7.82,7.82,7.79
65.35,6.24,-1.52,6.24,-1.52,1.55,1.45,1.62,7.79,7.79,7.76
66.01,6.23,-1.50,6.23,-1.52,1.53,1.42,1.58,7.76,7.76,7.73
66.67,6.20,-1.53,6.20,-1.52,1.50,1.39,1.55,7.71,7.70,7.73
67.33,6.17,-1.52,6.18,-1.51,1.47,1.36,1.51,7.65,7.65,7.70
68.01,6.15,-1.47,6.16,-1.47,1.44,1.32,1.47,7.59,7.61,7.62
68.69,6.17,-1.40,6.16,-1.41,1.41,1.29,1.43,7.57,7.57,7.57
69.37,6.17,-1.35,6.16,-1.36,1.37,1.26,1.39,7.54,7.53,7.53
70.07,6.17,-1.32,6.17,-1.32,1.32,1.22,1.35,7.49,7.49,7.49
70.77,6.16,-1.29,6.17,-1.28,1.28,1.19,1.30,7.43,7.45,7.44
71.48,6.17,-1.23,6.17,-1.23,1.24,1.16,1.26,7.41,7.41,7.40
72.19,6.19,-1.17,6.18,-1.18,1.20,1.12,1.21,7.39,7.38,7.36
72.91,6.17,-1.14,6.17,-1.14,1.17,1.09,1.17,7.34,7.33,7.31
73.64,6.13,-1.13,6.13,-1.14,1.14,1.06,1.12,7.28,7.27,7.26
74.38,6.09,-1.14,6.09,-1.14,1.12,1.02,1.07,7.21,7.21,7.22
75.12,6.04,-1.14,6.05,-1.13,1.10,0.99,1.03,7.14,7.15,7.18
75.87,6.03,-1.10,6.04,-1.09,1.08,0.95,0.98,7.11,7.12,7.13
76.63,6.04,-1.05,6.04,-1.05,1.06,0.92,0.93,7.09,7.09,7.09
77.40,6.05,-0.99,6.01,-1.03,1.03,0.88,0.88,7.07,7.04,7.04
78.17,5.97,-1.02,5.98,-1.01,1.00,0.85,0.84,6.97,6.98,6.99
78.95,5.92,-1.03,5.97,-0.98,0.96,0.81,0.79,6.88,6.93,6.94
79.74,5.98,-0.91,5.96,-0.93,0.93,0.78,0.74,6.92,6.90,6.89
80.54,5.99,-0.85,5.97,-0.87,0.91,0.74,0.69,6.90,6.88,6.84
81.35,5.96,-0.83,5.96,-0.84,0.88,0.71,0.64,6.84,6.84,6.80
82.16,5.91,-0.86,5.91,-0.85,0.85,0.67,0.60,6.76,6.76,6.76
82.98,5.86,-0.85,5.87,-0.84,0.82,0.64,0.55,6.69,6.69,6.71
83.81,5.83,-0.83,5.85,-0.82,0.79,0.60,0.50,6.62,6.64,6.66
84.65,5.85,-0.76,5.83,-0.78,0.76,0.56,0.45,6.61,6.59,6.61
85.50,5.84,-0.72,5.83,-0.73,0.72,0.53,0.41,6.55,6.54,6.56
86.35,5.81,-0.69,5.83,-0.67,0.67,0.49,0.36,6.48,6.50,6.50
87.22,5.82,-0.60,5.82,-0.61,0.61,0.45,0.31,6.44,6.44,6.43
88.09,5.83,-0.54,5.83,-0.55,0.55,0.42,0.27,6.39,6.38,6.37
88.97,5.83,-0.49,5.84,-0.48,0.49,0.38,0.22,6.33,6.33,6.32
89.86,5.83,-0.43,5.84,-0.42,0.44,0.34,0.17,6.26,6.27,6.26
90.76,5.84,-0.36,5.84,-0.37,0.38,0.30,0.13,6.22,6.22,6.20
91.66,5.83,-0.31,5.82,-0.32,0.33,0.27,0.08,6.16,6.15,6.14
92.58,5.80,-0.28,5.81,-0.28,0.28,0.23,0.03,6.08,6.08,6.09
93.51,5.78,-0.25,5.79,-0.24,0.22,0.19,-0.01,6.01,6.02,6.03
94.44,5.79,-0.18,5.79,-0.19,0.17,0.15,-0.06,5.96,5.96,5.97
95.39,5.79,-0.12,5.78,-0.13,0.12,0.12,-0.10,5.91,5.91,5.91
96.34,5.78,-0.07,5.78,-0.07,0.07,0.08,-0.15,5.85,5.85,5.85
97.30,5.77,-0.02,5.78,-0.01,0.02,0.04,-0.19,5.79,5.79,5.79
98.28,5.78,0.05,5.77,0.04,-0.04,0.00,-0.24,5.74,5.74,5.73
99.26,5.77,0.10,5.77,0.10,-0.09,-0.04,-0.28,5.68,5.68,5.67
100.25,5.76,0.15,5.76,0.15,-0.15,-0.08,-0.32,5.62,5.62,5.62
101.25,5.75,0.20,5.75,0.19,-0.20,-0.12,-0.37,5.55,5.55,5.55
102.27,5.73,0.24,5.73,0.24,-0.25,-0.16,-0.41,5.48,5.49,5.49
103.29,5.71,0.29,5.72,0.29,-0.29,-0.19,-0.46,5.42,5.42,5.43
104.32,5.70,0.34,5.70,0.34,-0.33,-0.23,-0.50,5.37,5.36,5.36
105.37,5.68,0.39,5.68,0.38,-0.38,-0.27,-0.54,5.30,5.30,5.29
106.42,5.65,0.43,5.65,0.42,-0.42,-0.31,-0.58,5.23,5.23,5.22
107.48,5.62,0.44,5.62,0.45,-0.46,-0.35,-0.62,5.16,5.16,5.18
108.56,5.60,0.49,5.60,0.49,-0.50,-0.39,-0.66,5.10,5.10,5.11
109.64,5.58,0.54,5.58,0.53,-0.53,-0.43,-0.70,5.04,5.04,5.04
110.74,5.56,0.59,5.55,0.58,-0.57,-0.47,-0.74,4.99,4.98,4.97
111.85,5.53,0.61,5.53,0.61,-0.61,-0.51,-0.78,4.92,4.93,4.92
112.97,5.50,0.64,5.51,0.64,-0.64,-0.55,-0.81,4.86,4.86,4.86
114.10,5.48,0.67,5.48,0.67,-0.68,-0.59,-0.85,4.80,4.80,4.81
115.24,5.45,0.70,5.45,0.71,-0.71,-0.63,-0.88,4.74,4.74,4.75
116.39,5.42,0.76,5.42,0.75,-0.75,-0.67,-0.92,4.67,4.67,4.67
117.55,5.39,0.80,5.39,0.79,-0.79,-0.71,-0.95,4.60,4.60,4.59
118.73,5.37,0.82,5.37,0.82,-0.83,-0.75,-0.98,4.53,4.53,4.54
119.92,5.34,0.86,5.34,0.86,-0.88,-0.79,-1.00,4.46,4.46,4.48
121.12,5.31,0.91,5.31,0.91,-0.92,-0.83,-1.03,4.39,4.39,4.40
122.33,5.29,0.98,5.29,0.98,-0.96,-0.87,-1.06,4.32,4.32,4.31
123.55,5.26,1.03,5.26,1.03,-1.00,-0.91,-1.08,4.26,4.26,4.24
124.79,5.22,1.07,5.23,1.06,-1.04,-0.95,-1.10,4.19,4.19,4.15
126.03,5.19,1.07,5.19,1.08,-1.07,-0.99,-1.12,4.12,4.12,4.12
127.29,5.16,1.09,5.16,1.09,-1.11,-1.03,-1.14,4.05,4.05,4.07
128.57,5.13,1.11,5.13,1.11,-1.14,-1.07,-1.16,3.99,3.99,4.01
129.85,5.10,1.15,5.10,1.15,-1.17,-1.11,-1.17,3.92,3.93,3.95
131.15,5.07,1.19,5.07,1.20,-1.20,-1.15,-1.19,3.87,3.86,3.88
132.46,5.04,1.25,5.03,1.24,-1.23,-1.18,-1.20,3.80,3.80,3.79
133.79,4.99,1.29,5.00,1.29,-1.26,-1.22,-1.21,3.73,3.74,3.70
135.12,4.97,1.32,4.97,1.32,-1.29,-1.26,-1.22,3.68,3.68,3.65
136.48,4.95,1.33,4.94,1.33,-1.32,-1.30,-1.23,3.62,3.61,3.61
137.84,4.90,1.34,4.90,1.34,-1.35,-1.33,-1.24,3.55,3.55,3.56
139.22,4.86,1.35,4.86,1.35,-1.37,-1.37,-1.25,3.49,3.49,3.51
140.61,4.82,1.37,4.82,1.38,-1.39,-1.41,-1.25,3.43,3.43,3.45
142.02,4.78,1.41,4.78,1.41,-1.41,-1.44,-1.26,3.37,3.37,3.37
143.44,4.74,1.44,4.75,1.44,-1.43,-1.48,-1.27,3.31,3.32,3.30
144.87,4.71,1.46,4.71,1.46,-1.45,-1.51,-1.27,3.26,3.26,3.25
146.32,4.68,1.47,4.68,1.48,-1.48,-1.55,-1.28,3.20,3.20,3.21
147.78,4.65,1.49,4.65,1.49,-1.50,-1.58,-1.28,3.15,3.14,3.16
149.26,4.61,1.52,4.61,1.52,-1.52,-1.61,-1.29,3.09,3.09,3.09
150.75,4.58,1.55,4.59,1.55,-1.55,-1.65,-1.30,3.04,3.04,3.03
152.26,4.57,1.58,4.56,1.58,-1.57,-1.68,-1.30,3.00,2.99,2.98
153.78,4.54,1.60,4.54,1.59,-1.59,-1.71,-1.31,2.95,2.94,2.94
155.32,4.51,1.61,4.51,1.60,-1.61,-1.74,-1.32,2.90,2.90,2.90
156.88,4.48,1.62,4.48,1.64,-1.63,-1.77,-1.33,2.85,2.85,2.86
158.44,4.46,1.66,4.46,1.67,-1.65,-1.80,-1.33,2.80,2.81,2.79
160.03,4.45,1.73,4.44,1.69,-1.68,-1.82,-1.34,2.77,2.76,2.72
161.63,4.42,1.70,4.42,1.71,-1.72,-1.85,-1.36,2.70,2.70,2.72
163.24,4.40,1.71,4.40,1.73,-1.76,-1.87,-1.37,2.64,2.64,2.69
164.88,4.38,1.76,4.38,1.76,-1.81,-1.90,-1.38,2.56,2.56,2.62
166.53,4.35,1.85,4.35,1.85,-1.86,-1.92,-1.39,2.49,2.49,2.50
168.19,4.32,1.93,4.33,1.93,-1.91,-1.94,-1.41,2.41,2.42,2.39
169.87,4.30,2.02,4.29,2.00,-1.95,-1.97,-1.42,2.35,2.34,2.29
171.57,4.25,2.03,4.25,2.04,-1.99,-1.98,-1.44,2.25,2.26,2.21
173.29,4.20,2.04,4.21,2.05,-2.03,-2.00,-1.46,2.17,2.18,2.16
175.02,4.17,2.06,4.17,2.05,-2.06,-2.02,-1.48,2.12,2.11,2.11
176.77,4.14,2.05,4.14,2.05,-2.07,-2.04,-1.50,2.07,2.07,2.09
178.54,4.10,2.06,4.10,2.06,-2.08,-2.05,-1.52,2.02,2.02,2.05
180.32,4.06,2.07,4.06,2.08,-2.09,-2.07,-1.55,1.97,1.97,1.99
182.13,4.02,2.11,4.02,2.10,-2.10,-2.08,-1.57,1.91,1.91,1.91
183.95,3.97,2.13,3.98,2.12,-2.12,-2.09,-1.60,1.86,1.86,1.85
185.79,3.94,2.13,3.94,2.13,-2.13,-2.10,-1.62,1.81,1.81,1.81
187.65,3.91,2.12,3.91,2.14,-2.14,-2.11,-1.65,1.77,1.76,1.79
189.52,3.87,2.15,3.87,2.16,-2.15,-2.12,-1.68,1.72,1.72,1.72
191.42,3.84,2.19,3.83,2.17,-2.15,-2.12,-1.71,1.68,1.68,1.64
193.33,3.80,2.19,3.79,2.17,-2.15,-2.13,-1.74,1.65,1.64,1.61
195.27,3.74,2.13,3.75,2.15,-2.14,-2.13,-1.77,1.60,1.61,1.62
197.22,3.71,2.13,3.71,2.13,-2.14,-2.13,-1.81,1.58,1.57,1.59
199.19,3.67,2.12,3.67,2.12,-2.14,-2.13,-1.84,1.53,1.53,1.55
201.18,3.63,2.12,3.63,2.12,-2.14,-2.13,-1.87,1.49,1.49,1.51
203.19,3.58,2.11,3.59,2.11,-2.14,-2.13,-1.91,1.45,1.45,1.47
205.23,3.56,2.11,3.55,2.12,-2.13,-2.13,-1.94,1.43,1.42,1.45
207.28,3.52,2.14,3.52,2.16,-2.12,-2.12,-1.98,1.39,1.39,1.38
209.35,3.47,2.18,3.48,2.18,-2.12,-2.12,-2.01,1.35,1.36,1.29
211.44,3.44,2.21,3.43,2.16,-2.12,-2.11,-2.05,1.32,1.31,1.23
213.56,3.39,2.10,3.39,2.10,-2.12,-2.10,-2.08,1.26,1.26,1.29
215.69,3.34,2.04,3.34,2.07,-2.13,-2.09,-2.11,1.21,1.22,1.30
217.85,3.30,2.01,3.30,2.07,-2.13,-2.08,-2.14,1.17,1.17,1.29
220.03,3.27,2.19,3.27,2.12,-2.14,-2.07,-2.18,1.13,1.13,1.08
222.23,3.23,2.16,3.22,2.15,-2.13,-2.06,-2.20,1.09,1.09,1.07
224.45,3.19,2.14,3.18,2.17,-2.13,-2.04,-2.23,1.06,1.06,1.05
226.70,3.13,2.14,3.15,2.15,-2.11,-2.03,-2.26,1.01,1.03,0.99
228.96,3.12,2.17,3.11,2.14,-2.09,-2.01,-2.28,1.03,1.01,0.96
231.25,3.08,2.11,3.06,2.09,-2.06,-2.00,-2.30,1.02,1.01,0.97
233.57,3.00,1.99,3.02,2.01,-2.01,-1.98,-2.32,0.99,1.00,1.01
235.90,2.96,1.93,2.97,1.94,-1.97,-1.96,-2.33,0.99,0.99,1.04
238.26,2.93,1.89,2.92,1.90,-1.94,-1.94,-2.34,0.99,0.98,1.03
240.64,2.88,1.87,2.88,1.87,-1.92,-1.92,-2.35,0.97,0.97,1.01
243.05,2.83,1.88,2.84,1.82,-1.89,-1.90,-2.36,0.94,0.95,0.95
245.48,2.80,1.78,2.80,1.85,-1.86,-1.87,-2.36,0.93,0.93,1.01
247.93,2.76,1.83,2.76,1.90,-1.84,-1.85,-2.36,0.92,0.92,0.93
250.41,2.72,2.05,2.71,1.92,-1.82,-1.83,-2.35,0.90,0.89,0.67
252.92,2.66,1.88,2.67,1.87,-1.80,-1.80,-2.34,0.86,0.87,0.77
255.45,2.62,1.73,2.62,1.76,-1.78,-1.78,-2.32,0.84,0.84,0.89
258.00,2.59,1.58,2.57,1.66,-1.75,-1.75,-2.31,0.84,0.82,1.00
260.58,2.53,1.69,2.53,1.65,-1.72,-1.73,-2.29,0.81,0.82,0.84
263.19,2.48,1.71,2.49,1.67,-1.68,-1.70,-2.26,0.81,0.82,0.78
265.82,2.46,1.66,2.45,1.68,-1.64,-1.67,-2.23,0.82,0.82,0.80
268.48,2.42,1.65,2.42,1.63,-1.61,-1.65,-2.20,0.81,0.81,0.77
271.16,2.38,1.58,2.38,1.59,-1.59,-1.62,-2.17,0.80,0.79,0.80
273.87,2.34,1.55,2.34,1.56,-1.57,-1.59,-2.13,0.77,0.77,0.79
276.61,2.29,1.53,2.29,1.52,-1.54,-1.56,-2.09,0.75,0.75,0.76
279.38,2.24,1.50,2.24,1.50,-1.50,-1.53,-2.05,0.75,0.74,0.74
282.17,2.19,1.47,2.19,1.47,-1.45,-1.50,-2.00,0.74,0.74,0.73
284.99,2.14,1.43,2.15,1.44,-1.41,-1.47,-1.95,0.73,0.74,0.71
287.84,2.12,1.39,2.11,1.38,-1.38,-1.44,-1.91,0.74,0.74,0.72
290.72,2.08,1.34,2.07,1.32,-1.34,-1.41,-1.86,0.74,0.73,0.74
293.63,2.03,1.25,2.03,1.27,-1.31,-1.38,-1.81,0.72,0.72,0.78
296.57,1.99,1.23,1.99,1.26,-1.28,-1.35,-1.75,0.71,0.71,0.76
299.53,1.95,1.28,1.95,1.25,-1.25,-1.32,-1.70,0.70,0.70,0.67
302.53,1.91,1.27,1.91,1.25,-1.22,-1.29,-1.65,0.69,0.69,0.64
305.55,1.87,1.21,1.86,1.23,-1.19,-1.25,-1.59,0.67,0.67,0.66
308.61,1.82,1.16,1.82,1.18,-1.17,-1.22,-1.54,0.64,0.65,0.65
311.69,1.77,1.16,1.78,1.13,-1.15,-1.19,-1.49,0.62,0.63,0.62
314.81,1.74,1.08,1.74,1.11,-1.13,-1.16,-1.43,0.62,0.61,0.66
317.96,1.70,1.09,1.70,1.09,-1.09,-1.13,-1.38,0.60,0.60,0.61
321.14,1.65,1.08,1.65,1.07,-1.06,-1.09,-1.32,0.59,0.59,0.57
324.35,1.61,1.06,1.61,1.05,-1.03,-1.06,-1.27,0.58,0.58,0.55
327.59,1.57,1.00,1.57,1.01,-1.00,-1.03,-1.22,0.57,0.57,0.57
330.87,1.53,0.96,1.53,0.97,-0.98,-0.99,-1.16,0.56,0.56,0.57
334.18,1.50,0.96,1.49,0.94,-0.95,-0.96,-1.11,0.55,0.54,0.54
337.52,1.45,0.91,1.45,0.91,-0.93,-0.93,-1.06,0.53,0.53,0.54
340.90,1.41,0.87,1.41,0.89,-0.90,-0.90,-1.01,0.51,0.51,0.54
344.30,1.37,0.87,1.37,0.87,-0.87,-0.86,-0.96,0.50,0.50,0.50
347.75,1.33,0.87,1.33,0.86,-0.84,-0.83,-0.91,0.49,0.49,0.46
351.23,1.29,0.84,1.29,0.83,-0.82,-0.80,-0.86,0.48,0.48,0.45
354.74,1.25,0.78,1.25,0.79,-0.78,-0.76,-0.81,0.47,0.47,0.48
358.28,1.21,0.75,1.21,0.75,-0.75,-0.73,-0.76,0.47,0.47,0.46
361.87,1.17,0.71,1.17,0.71,-0.71,-0.69,-0.71,0.47,0.47,0.46
365.49,1.13,0.67,1.13,0.66,-0.67,-0.66,-0.66,0.47,0.47,0.47
369.14,1.09,0.61,1.09,0.62,-0.62,-0.63,-0.62,0.47,0.47,0.48
372.83,1.05,0.57,1.05,0.57,-0.58,-0.59,-0.57,0.47,0.47,0.48
376.56,1.01,0.54,1.01,0.54,-0.54,-0.56,-0.53,0.47,0.47,0.47
380.33,0.98,0.51,0.97,0.50,-0.51,-0.53,-0.48,0.47,0.47,0.47
384.13,0.94,0.47,0.94,0.47,-0.47,-0.49,-0.44,0.47,0.47,0.47
387.97,0.90,0.43,0.90,0.45,-0.44,-0.46,-0.39,0.46,0.46,0.46
391.85,0.86,0.42,0.86,0.41,-0.40,-0.43,-0.35,0.46,0.46,0.44
395.77,0.82,0.40,0.82,0.37,-0.37,-0.39,-0.31,0.45,0.45,0.42
399.73,0.78,0.31,0.78,0.34,-0.34,-0.36,-0.27,0.44,0.44,0.47
403.72,0.74,0.30,0.74,0.30,-0.31,-0.33,-0.23,0.43,0.43,0.44
407.76,0.70,0.29,0.70,0.27,-0.28,-0.29,-0.19,0.42,0.42,0.42
411.84,0.66,0.25,0.66,0.25,-0.25,-0.26,-0.15,0.42,0.42,0.41
415.96,0.62,0.22,0.62,0.22,-0.21,-0.23,-0.11,0.41,0.41,0.40
420.12,0.58,0.18,0.59,0.18,-0.18,-0.20,-0.07,0.40,0.40,0.40
424.32,0.55,0.15,0.55,0.15,-0.16,-0.16,-0.04,0.40,0.40,0.40
428.56,0.52,0.13,0.51,0.13,-0.13,-0.13,-0.00,0.39,0.39,0.39
432.85,0.48,0.10,0.48,0.10,-0.10,-0.10,0.03,0.38,0.38,0.37
437.18,0.43,0.07,0.44,0.08,-0.07,-0.07,0.06,0.36,0.36,0.36
441.55,0.40,0.05,0.40,0.05,-0.05,-0.04,0.10,0.36,0.35,0.35
445.96,0.37,0.03,0.37,0.02,-0.03,-0.01,0.13,0.35,0.34,0.35
450.42,0.34,-0.01,0.34,0.00,-0.01,0.02,0.16,0.33,0.33,0.34
454.93,0.30,-0.02,0.30,-0.02,0.01,0.05,0.19,0.32,0.31,0.32
459.48,0.26,-0.02,0.26,-0.03,0.03,0.07,0.21,0.29,0.29,0.28
464.07,0.22,-0.04,0.23,-0.05,0.05,0.10,0.24,0.27,0.28,0.26
468.71,0.19,-0.07,0.19,-0.07,0.07,0.13,0.26,0.26,0.26,0.26
473.40,0.16,-0.10,0.16,-0.09,0.09,0.15,0.28,0.25,0.25,0.26
478.13,0.12,-0.11,0.12,-0.11,0.11,0.18,0.30,0.24,0.24,0.23
482.91,0.09,-0.11,0.09,-0.13,0.14,0.20,0.32,0.23,0.23,0.20
487.74,0.05,-0.16,0.06,-0.15,0.16,0.22,0.34,0.22,0.22,0.21
492.62,0.03,-0.19,0.03,-0.19,0.19,0.24,0.36,0.21,0.21,0.22
497.55,0.00,-0.23,-0.00,-0.22,0.21,0.26,0.37,0.21,0.20,0.23
502.52,-0.03,-0.25,-0.03,-0.24,0.23,0.28,0.38,0.20,0.20,0.21
507.55,-0.07,-0.23,-0.06,-0.25,0.25,0.30,0.39,0.18,0.18,0.16
512.62,-0.09,-0.27,-0.10,-0.27,0.27,0.31,0.40,0.18,0.17,0.18
517.75,-0.13,-0.29,-0.13,-0.28,0.29,0.33,0.41,0.16,0.16,0.17
522.93,-0.17,-0.30,-0.16,-0.30,0.30,0.34,0.42,0.13,0.14,0.13
528.16,-0.19,-0.30,-0.19,-0.30,0.31,0.35,0.42,0.12,0.11,0.10
533.44,-0.22,-0.31,-0.22,-0.32,0.31,0.36,0.42,0.09,0.09,0.09
538.77,-0.25,-0.33,-0.25,-0.34,0.32,0.37,0.43,0.06,0.07,0.08
544.16,-0.28,-0.37,-0.28,-0.35,0.32,0.38,0.43,0.05,0.04,0.09
549.60,-0.31,-0.34,-0.31,-0.33,0.33,0.38,0.42,0.03,0.03,0.03
555.10,-0.33,-0.31,-0.33,-0.32,0.35,0.39,0.42,0.01,0.01,-0.03
560.65,-0.35,-0.30,-0.36,-0.32,0.36,0.39,0.42,0.01,-0.00,-0.06
