frequency,raw,error,smoothed,error_smoothed,equalization,parametric_eq,fixed_band_eq,equalized_raw,equalized_smoothed,target
20.00,8.15,0.71,8.15,0.72,-0.73,-0.02,-0.30,7.42,7.42,7.44
20.20,8.18,0.74,8.18,0.72,-0.72,-0.02,-0.31,7.46,7.46,7.44
20.40,8.20,0.73,8.20,0.72,-0.71,-0.02,-0.32,7.49,7.49,7.47
20.61,8.23,0.69,8.22,0.71,-0.70,-0.02,-0.33,7.53,7.52,7.54
20.81,8.24,0.70,8.24,0.69,-0.69,-0.02,-0.34,7.56,7.56,7.54
21.02,8.26,0.68,8.26,0.67,-0.68,-0.02,-0.35,7.58,7.59,7.58
21.23,8.28,0.64,8.28,0.67,-0.67,-0.02,-0.36,7.61,7.62,7.64
21.44,8.31,0.67,8.31,0.66,-0.66,-0.02,-0.37,7.65,7.65,7.64
21.66,8.33,0.67,8.33,0.65,-0.64,-0.02,-0.38,7.69,7.69,7.66
21.87,8.35,0.62,8.35,0.65,-0.63,-0.03,-0.40,7.72,7.72,7.73
22.09,8.38,0.64,8.38,0.63,-0.62,-0.03,-0.41,7.76,7.76,7.74
22.31,8.40,0.62,8.40,0.61,-0.62,-0.03,-0.42,7.79,7.79,7.78
22.54,8.43,0.59,8.43,0.61,-0.62,-0.03,-0.43,7.80,7.80,7.84
22.76,8.45,0.61,8.45,0.61,-0.63,-0.03,-0.45,7.82,7.82,7.84
22.99,8.47,0.63,8.47,0.62,-0.64,-0.03,-0.46,7.82,7.82,7.84
23.22,8.49,0.65,8.49,0.65,-0.66,-0.03,-0.47,7.83,7.83,7.84
23.45,8.51,0.67,8.51,0.69,-0.68,-0.04,-0.49,7.82,7.82,7.84
23.69,8.52,0.75,8.52,0.72,-0.71,-0.04,-0.50,7.82,7.82,7.78
23.92,8.54,0.77,8.54,0.74,-0.72,-0.04,-0.52,7.81,7.81,7.77
24.16,8.55,0.72,8.55,0.74,-0.74,-0.04,-0.53,7.82,7.82,7.83
24.40,8.57,0.73,8.57,0.74,-0.74,-0.05,-0.55,7.83,7.83,7.84
24.65,8.58,0.74,8.58,0.74,-0.73,-0.05,-0.56,7.85,7.85,7.84
24.89,8.59,0.75,8.59,0.73,-0.71,-0.05,-0.58,7.88,7.88,7.84
25.14,8.60,0.70,8.60,0.69,-0.69,-0.05,-0.59,7.91,7.91,7.90
25.39,8.61,0.64,8.62,0.65,-0.66,-0.06,-0.61,7.95,7.96,7.97
25.65,8.63,0.59,8.63,0.61,-0.63,-0.06,-0.62,8.00,8.00,8.04
25.91,8.65,0.61,8.65,0.59,-0.60,-0.06,-0.64,8.05,8.05,8.04
26.16,8.66,0.58,8.66,0.57,-0.57,-0.07,-0.65,8.09,8.09,8.08
26.43,8.68,0.54,8.68,0.56,-0.54,-0.07,-0.67,8.13,8.13,8.14
26.69,8.69,0.55,8.69,0.53,-0.53,-0.07,-0.68,8.17,8.16,8.14
26.96,8.71,0.53,8.71,0.51,-0.52,-0.08,-0.70,8.18,8.18,8.18
27.23,8.72,0.48,8.72,0.50,-0.53,-0.08,-0.71,8.19,8.19,8.24
27.50,8.74,0.50,8.74,0.49,-0.55,-0.09,-0.73,8.20,8.20,8.24
27.77,8.76,0.52,8.76,0.53,-0.56,-0.09,-0.74,8.20,8.20,8.24
28.05,8.79,0.56,8.79,0.58,-0.58,-0.10,-0.75,8.21,8.21,8.23
28.33,8.81,0.65,8.81,0.61,-0.59,-0.10,-0.76,8.22,8.22,8.16
28.62,8.83,0.63,8.82,0.63,-0.59,-0.11,-0.77,8.23,8.23,8.19
28.90,8.83,0.59,8.83,0.62,-0.58,-0.12,-0.78,8.26,8.25,8.24
29.19,8.83,0.59,8.83,0.57,-0.54,-0.12,-0.79,8.29,8.29,8.24
29.48,8.82,0.51,8.82,0.51,-0.48,-0.13,-0.80,8.34,8.34,8.31
29.78,8.81,0.43,8.81,0.43,-0.41,-0.14,-0.81,8.40,8.40,8.38
30.08,8.80,0.33,8.81,0.32,-0.33,-0.15,-0.81,8.48,8.48,8.47
30.38,8.81,0.22,8.81,0.22,-0.24,-0.16,-0.82,8.56,8.56,8.59
30.68,8.81,0.13,8.81,0.14,-0.17,-0.17,-0.82,8.64,8.64,8.68
30.99,8.81,0.07,8.81,0.08,-0.11,-0.18,-0.82,8.70,8.70,8.74
31.30,8.79,0.05,8.79,0.04,-0.06,-0.19,-0.82,8.73,8.73,8.74
31.61,8.77,0.03,8.77,0.03,-0.04,-0.20,-0.82,8.73,8.73,8.74
31.93,8.73,0.02,8.74,0.03,-0.04,-0.21,-0.82,8.69,8.70,8.71
32.24,8.71,0.06,8.71,0.04,-0.06,-0.22,-0.82,8.65,8.65,8.65
32.57,8.70,0.06,8.70,0.07,-0.08,-0.24,-0.82,8.61,8.62,8.64
32.89,8.71,0.09,8.71,0.11,-0.11,-0.25,-0.81,8.60,8.60,8.62
33.22,8.72,0.18,8.72,0.16,-0.13,-0.27,-0.80,8.59,8.59,8.54
33.55,8.74,0.20,8.74,0.20,-0.14,-0.28,-0.80,8.60,8.60,8.54
33.89,8.74,0.20,8.74,0.21,-0.15,-0.30,-0.79,8.59,8.59,8.54
34.23,8.73,0.19,8.73,0.19,-0.16,-0.32,-0.78,8.57,8.57,8.54
34.57,8.71,0.17,8.71,0.16,-0.18,-0.34,-0.77,8.53,8.53,8.54
34.92,8.68,0.14,8.68,0.14,-0.20,-0.36,-0.76,8.48,8.48,8.54
35.27,8.67,0.14,8.67,0.16,-0.23,-0.39,-0.75,8.44,8.44,8.53
35.62,8.67,0.21,8.67,0.23,-0.27,-0.41,-0.73,8.39,8.40,8.46
35.97,8.67,0.34,8.67,0.33,-0.32,-0.43,-0.72,8.35,8.35,8.33
36.33,8.67,0.45,8.67,0.43,-0.38,-0.46,-0.71,8.28,8.28,8.22
36.70,8.66,0.50,8.65,0.50,-0.46,-0.49,-0.69,8.20,8.20,8.16
37.06,8.64,0.55,8.64,0.55,-0.53,-0.52,-0.68,8.11,8.11,8.09
37.43,8.61,0.60,8.62,0.60,-0.60,-0.55,-0.67,8.01,8.01,8.02
37.81,8.60,0.65,8.60,0.65,-0.67,-0.58,-0.65,7.93,7.93,7.95
38.19,8.60,0.71,8.60,0.71,-0.73,-0.61,-0.64,7.86,7.87,7.88
38.57,8.59,0.78,8.59,0.78,-0.79,-0.64,-0.63,7.81,7.81,7.81
38.95,8.59,0.84,8.59,0.84,-0.84,-0.68,-0.61,7.74,7.74,7.75
39.34,8.58,0.91,8.58,0.90,-0.91,-0.71,-0.60,7.67,7.67,7.67
39.74,8.56,0.96,8.56,0.96,-0.97,-0.74,-0.58,7.59,7.59,7.60
40.14,8.54,1.00,8.54,1.00,-1.02,-0.78,-0.57,7.51,7.51,7.53
40.54,8.51,1.04,8.51,1.05,-1.06,-0.81,-0.56,7.45,7.45,7.47
40.94,8.48,1.08,8.48,1.09,-1.07,-0.84,-0.54,7.41,7.41,7.40
41.35,8.45,1.11,8.45,1.10,-1.06,-0.87,-0.53,7.40,7.40,7.34
41.76,8.43,1.09,8.43,1.09,-1.02,-0.89,-0.52,7.41,7.42,7.34
42.18,8.41,1.03,8.42,1.02,-0.95,-0.91,-0.51,7.46,7.46,7.39
42.60,8.40,0.92,8.40,0.91,-0.88,-0.93,-0.50,7.52,7.52,7.47
43.03,8.38,0.76,8.38,0.78,-0.79,-0.94,-0.49,7.59,7.58,7.62
43.46,8.35,0.65,8.35,0.66,-0.72,-0.95,-0.47,7.63,7.63,7.70
43.90,8.32,0.58,8.32,0.58,-0.66,-0.95,-0.46,7.66,7.66,7.74
44.33,8.29,0.55,8.30,0.54,-0.62,-0.95,-0.45,7.68,7.68,7.74
44.78,8.28,0.54,8.28,0.55,-0.60,-0.94,-0.44,7.68,7.68,7.74
45.23,8.26,0.59,8.26,0.61,-0.61,-0.93,-0.44,7.65,7.65,7.68
45.68,8.24,0.69,8.23,0.67,-0.63,-0.91,-0.43,7.60,7.60,7.55
46.13,8.20,0.73,8.20,0.71,-0.67,-0.89,-0.42,7.53,7.53,7.47
46.60,8.16,0.72,8.17,0.73,-0.70,-0.86,-0.41,7.46,7.46,7.44
47.06,8.14,0.71,8.15,0.74,-0.73,-0.83,-0.40,7.41,7.42,7.43
47.53,8.13,0.77,8.13,0.75,-0.74,-0.79,-0.39,7.39,7.39,7.36
48.01,8.11,0.77,8.11,0.75,-0.74,-0.75,-0.39,7.37,7.37,7.34
48.49,8.07,0.73,8.06,0.73,-0.72,-0.71,-0.38,7.35,7.34,7.34
48.97,8.01,0.67,8.01,0.70,-0.70,-0.67,-0.37,7.31,7.31,7.34
49.46,7.95,0.66,7.96,0.66,-0.67,-0.62,-0.37,7.28,7.29,7.29
49.96,7.92,0.66,7.93,0.63,-0.63,-0.58,-0.36,7.29,7.30,7.26
50.46,7.92,0.58,7.91,0.60,-0.59,-0.54,-0.36,7.32,7.32,7.33
50.96,7.91,0.57,7.90,0.57,-0.56,-0.49,-0.35,7.35,7.34,7.34
51.47,7.88,0.54,7.87,0.52,-0.54,-0.45,-0.34,7.34,7.34,7.34
51.99,7.83,0.49,7.83,0.49,-0.52,-0.41,-0.34,7.31,7.32,7.34
52.51,7.79,0.45,7.80,0.47,-0.51,-0.37,-0.33,7.29,7.29,7.34
53.03,7.77,0.46,7.78,0.48,-0.50,-0.33,-0.33,7.27,7.28,7.31
53.56,7.76,0.52,7.76,0.49,-0.48,-0.29,-0.32,7.28,7.27,7.24
54.10,7.74,0.50,7.73,0.51,-0.47,-0.25,-0.31,7.26,7.26,7.24
54.64,7.69,0.49,7.68,0.49,-0.46,-0.21,-0.31,7.23,7.22,7.20
55.18,7.61,0.47,7.61,0.45,-0.44,-0.18,-0.30,7.17,7.17,7.14
55.74,7.54,0.40,7.55,0.41,-0.41,-0.14,-0.29,7.13,7.14,7.14
56.29,7.50,0.36,7.50,0.37,-0.38,-0.11,-0.29,7.12,7.12,7.14
56.86,7.47,0.33,7.46,0.32,-0.34,-0.08,-0.28,7.13,7.12,7.14
57.42,7.42,0.28,7.42,0.28,-0.29,-0.04,-0.27,7.14,7.13,7.14
58.00,7.37,0.23,7.38,0.24,-0.23,-0.01,-0.26,7.14,7.15,7.14
58.58,7.33,0.19,7.33,0.19,-0.17,0.02,-0.25,7.16,7.16,7.14
59.16,7.28,0.14,7.28,0.14,-0.11,0.04,-0.24,7.17,7.17,7.14
59.76,7.23,0.09,7.23,0.07,-0.06,0.07,-0.23,7.17,7.17,7.14
60.35,7.18,0.01,7.18,-0.01,-0.01,0.10,-0.22,7.16,7.16,7.17
60.96,7.14,-0.10,7.15,-0.07,0.02,0.12,-0.21,7.16,7.17,7.24
61.57,7.13,-0.11,7.13,-0.10,0.05,0.15,-0.20,7.18,7.18,7.24
62.18,7.11,-0.08,7.10,-0.10,0.07,0.17,-0.18,7.19,7.17,7.20
62.80,7.06,-0.07,7.06,-0.08,0.09,0.20,-0.17,7.15,7.15,7.13
63.43,6.99,-0.07,6.99,-0.07,0.11,0.22,-0.16,7.10,7.10,7.07
64.07,6.92,-0.08,6.93,-0.07,0.12,0.25,-0.14,7.04,7.04,7.00
64.71,6.86,-0.08,6.86,-0.09,0.12,0.27,-0.12,6.99,6.99,6.94
65.35,6.81,-0.13,6.81,-0.13,0.12,0.29,-0.10,6.94,6.94,6.94
66.01,6.77,-0.17,6.77,-0.16,0.12,0.31,-0.09,6.89,6.89,6.94
66.67,6.72,-0.20,6.72,-0.18,0.12,0.33,-0.07,6.84,6.84,6.92
67.33,6.68,-0.17,6.68,-0.17,0.12,0.36,-0.05,6.80,6.80,6.85
68.01,6.64,-0.14,6.64,-0.14,0.14,0.38,-0.02,6.78,6.78,6.78
68.69,6.60,-0.11,6.59,-0.11,0.16,0.40,-0.00,6.76,6.76,6.71
69.37,6.54,-0.10,6.53,-0.12,0.20,0.42,0.02,6.74,6.73,6.64
70.07,6.47,-0.17,6.46,-0.18,0.25,0.44,0.04,6.72,6.71,6.64
70.77,6.38,-0.29,6.39,-0.28,0.31,0.46,0.07,6.70,6.71,6.67
71.48,6.32,-0.41,6.33,-0.41,0.39,0.48,0.09,6.72,6.72,6.74
72.19,6.27,-0.54,6.27,-0.53,0.48,0.50,0.12,6.75,6.75,6.81
72.91,6.21,-0.63,6.21,-0.62,0.58,0.52,0.14,6.79,6.79,6.84
73.64,6.15,-0.69,6.15,-0.69,0.67,0.54,0.17,6.82,6.82,6.84
74.38,6.09,-0.75,6.09,-0.75,0.75,0.56,0.20,6.84,6.84,6.84
75.12,6.03,-0.81,6.03,-0.81,0.82,0.58,0.23,6.84,6.85,6.84
75.87,5.98,-0.86,5.98,-0.86,0.87,0.60,0.26,6.85,6.85,6.84
76.63,5.93,-0.91,5.93,-0.91,0.93,0.62,0.29,6.86,6.86,6.84
77.40,5.89,-0.95,5.88,-0.96,0.98,0.64,0.32,6.87,6.86,6.84
78.17,5.83,-1.01,5.83,-1.01,1.03,0.67,0.35,6.86,6.86,6.84
78.95,5.77,-1.07,5.77,-1.05,1.08,0.69,0.38,6.84,6.84,6.84
79.74,5.70,-1.08,5.71,-1.09,1.10,0.71,0.41,6.80,6.81,6.78
80.54,5.64,-1.10,5.64,-1.13,1.10,0.73,0.44,6.75,6.74,6.74
81.35,5.58,-1.16,5.57,-1.13,1.07,0.75,0.48,6.65,6.65,6.74
82.16,5.50,-1.12,5.50,-1.10,1.01,0.77,0.51,6.51,6.52,6.61
82.98,5.43,-1.01,5.44,-1.01,0.93,0.79,0.54,6.36,6.36,6.44
83.81,5.38,-0.86,5.37,-0.87,0.83,0.82,0.58,6.20,6.20,6.24
84.65,5.32,-0.71,5.31,-0.70,0.73,0.84,0.61,6.04,6.04,6.03
85.50,5.25,-0.56,5.25,-0.56,0.64,0.86,0.65,5.89,5.89,5.82
86.35,5.18,-0.45,5.18,-0.48,0.58,0.88,0.69,5.75,5.75,5.63
87.22,5.10,-0.46,5.11,-0.45,0.55,0.91,0.72,5.65,5.66,5.56
88.09,5.05,-0.49,5.05,-0.49,0.55,0.93,0.76,5.60,5.60,5.54
88.97,4.99,-0.57,4.98,-0.59,0.60,0.95,0.80,5.58,5.58,5.56
89.86,4.91,-0.72,4.91,-0.70,0.67,0.97,0.84,5.58,5.58,5.63
90.76,4.83,-0.81,4.83,-0.80,0.76,1.00,0.88,5.59,5.59,5.64
91.66,4.75,-0.88,4.76,-0.89,0.85,1.02,0.92,5.60,5.61,5.64
92.58,4.69,-0.95,4.69,-0.96,0.93,1.05,0.96,5.62,5.62,5.64
93.51,4.62,-1.02,4.62,-1.02,0.99,1.07,1.00,5.61,5.61,5.64
94.44,4.54,-1.07,4.54,-1.06,1.04,1.09,1.04,5.58,5.58,5.61
95.39,4.46,-1.08,4.47,-1.08,1.07,1.12,1.09,5.53,5.54,5.54
96.34,4.40,-1.07,4.39,-1.09,1.09,1.14,1.13,5.49,5.48,5.47
97.30,4.31,-1.09,4.32,-1.08,1.10,1.17,1.17,5.42,5.42,5.40
98.28,4.24,-1.09,4.24,-1.09,1.11,1.19,1.22,5.35,5.35,5.33
99.26,4.17,-1.09,4.17,-1.11,1.11,1.22,1.26,5.28,5.28,5.26
100.25,4.10,-1.14,4.10,-1.14,1.11,1.24,1.30,5.21,5.21,5.24
101.25,4.03,-1.19,4.02,-1.16,1.13,1.27,1.35,5.15,5.15,5.21
102.27,3.95,-1.16,3.95,-1.16,1.16,1.30,1.39,5.11,5.11,5.11
103.29,3.87,-1.14,3.87,-1.15,1.21,1.32,1.44,5.08,5.08,5.01
104.32,3.79,-1.16,3.79,-1.19,1.28,1.35,1.48,5.07,5.07,4.96
105.37,3.71,-1.30,3.71,-1.30,1.36,1.37,1.52,5.07,5.07,5.01
106.42,3.63,-1.45,3.63,-1.44,1.45,1.40,1.56,5.08,5.08,5.08
107.48,3.55,-1.59,3.55,-1.57,1.55,1.42,1.61,5.09,5.10,5.14
108.56,3.48,-1.66,3.47,-1.67,1.63,1.45,1.65,5.11,5.11,5.14
109.64,3.40,-1.74,3.39,-1.77,1.71,1.48,1.69,5.10,5.10,5.14
110.74,3.31,-1.83,3.31,-1.83,1.77,1.50,1.72,5.08,5.07,5.14
111.85,3.22,-1.92,3.23,-1.85,1.81,1.53,1.76,5.02,5.03,5.14
112.97,3.15,-1.80,3.15,-1.82,1.82,1.55,1.79,4.97,4.98,4.95
114.10,3.08,-1.75,3.07,-1.78,1.83,1.58,1.83,4.91,4.90,4.83
115.24,2.98,-1.75,2.97,-1.76,1.83,1.60,1.86,4.82,4.81,4.73
116.39,2.86,-1.81,2.86,-1.79,1.83,1.63,1.89,4.70,4.70,4.67
117.55,2.74,-1.84,2.76,-1.82,1.83,1.65,1.91,4.57,4.58,4.58
118.73,2.67,-1.83,2.68,-1.83,1.81,1.68,1.93,4.48,4.49,4.50
119.92,2.63,-1.81,2.62,-1.83,1.78,1.70,1.95,4.41,4.40,4.44
121.12,2.57,-1.81,2.56,-1.83,1.75,1.72,1.97,4.33,4.31,4.38
122.33,2.51,-1.82,2.53,-1.79,1.73,1.75,1.98,4.24,4.26,4.32
123.55,2.48,-1.78,2.51,-1.71,1.72,1.77,2.00,4.20,4.22,4.26
124.79,2.53,-1.55,2.49,-1.62,1.71,1.79,2.00,4.24,4.20,4.08
126.03,2.48,-1.56,2.48,-1.58,1.72,1.81,2.01,4.21,4.20,4.04
127.29,2.45,-1.62,2.47,-1.62,1.74,1.83,2.01,4.18,4.20,4.07
128.57,2.45,-1.75,2.46,-1.75,1.76,1.85,2.01,4.20,4.21,4.20
129.85,2.46,-1.86,2.46,-1.86,1.77,1.87,2.00,4.23,4.23,4.33
131.15,2.48,-1.94,2.46,-1.90,1.78,1.89,1.99,4.26,4.24,4.42
132.46,2.43,-1.86,2.43,-1.88,1.77,1.90,1.98,4.20,4.20,4.29
133.79,2.37,-1.79,2.39,-1.80,1.74,1.92,1.97,4.11,4.12,4.16
135.12,2.33,-1.70,2.33,-1.69,1.69,1.93,1.95,4.02,4.02,4.03
136.48,2.29,-1.61,2.28,-1.60,1.63,1.95,1.93,3.92,3.91,3.89
137.84,2.23,-1.53,2.23,-1.52,1.57,1.96,1.91,3.80,3.80,3.76
139.22,2.17,-1.46,2.17,-1.47,1.55,1.97,1.89,3.71,3.72,3.63
140.61,2.11,-1.45,2.11,-1.45,1.55,1.98,1.87,3.66,3.66,3.56
142.02,2.05,-1.49,2.05,-1.51,1.59,1.99,1.84,3.64,3.63,3.54
143.44,1.99,-1.60,1.99,-1.63,1.65,2.00,1.81,3.63,3.63,3.58
144.87,1.92,-1.81,1.92,-1.76,1.72,2.00,1.79,3.64,3.64,3.73
146.32,1.86,-1.88,1.86,-1.88,1.79,2.01,1.76,3.65,3.65,3.74
147.78,1.80,-1.94,1.80,-1.95,1.86,2.01,1.73,3.66,3.66,3.74
149.26,1.75,-1.98,1.75,-1.96,1.92,2.01,1.70,3.67,3.67,3.73
150.75,1.69,-1.96,1.69,-1.97,1.98,2.02,1.67,3.67,3.67,3.65
152.26,1.64,-1.96,1.64,-1.97,2.01,2.01,1.64,3.65,3.65,3.60
153.78,1.58,-1.97,1.58,-1.98,2.03,2.01,1.61,3.61,3.61,3.55
155.32,1.52,-2.02,1.53,-2.02,2.04,2.01,1.58,3.56,3.57,3.54
156.88,1.48,-2.06,1.47,-2.06,2.05,2.00,1.55,3.53,3.52,3.54
158.44,1.42,-2.10,1.42,-2.08,2.05,2.00,1.52,3.47,3.47,3.52
160.03,1.35,-2.09,1.37,-2.09,2.05,1.99,1.49,3.40,3.42,3.44
161.63,1.32,-2.06,1.32,-2.07,2.05,1.98,1.46,3.38,3.37,3.39
163.24,1.29,-2.04,1.28,-2.04,2.05,1.97,1.43,3.34,3.33,3.33
164.88,1.24,-2.01,1.24,-2.02,2.05,1.96,1.40,3.28,3.29,3.25
166.53,1.19,-2.00,1.19,-1.99,2.03,1.94,1.38,3.22,3.22,3.19
168.19,1.14,-1.99,1.14,-1.98,2.01,1.93,1.35,3.15,3.15,3.13
169.87,1.09,-1.96,1.09,-1.98,1.97,1.91,1.33,3.06,3.07,3.05
171.57,1.05,-1.99,1.05,-1.98,1.93,1.89,1.31,2.97,2.97,3.04
173.29,1.00,-1.95,1.00,-1.94,1.87,1.88,1.28,2.87,2.87,2.95
175.02,0.96,-1.88,0.96,-1.87,1.81,1.86,1.26,2.77,2.77,2.84
176.77,0.92,-1.74,0.92,-1.76,1.75,1.83,1.24,2.68,2.67,2.66
178.54,0.88,-1.66,0.88,-1.66,1.70,1.81,1.22,2.58,2.58,2.54
180.32,0.84,-1.59,0.85,-1.59,1.66,1.79,1.20,2.50,2.50,2.43
182.13,0.82,-1.55,0.81,-1.56,1.63,1.76,1.19,2.44,2.44,2.37
183.95,0.77,-1.57,0.77,-1.57,1.62,1.74,1.17,2.39,2.39,2.34
185.79,0.73,-1.61,0.74,-1.60,1.62,1.71,1.15,2.35,2.36,2.34
187.65,0.70,-1.64,0.69,-1.65,1.63,1.68,1.14,2.33,2.33,2.34
189.52,0.66,-1.68,0.65,-1.69,1.64,1.66,1.13,2.30,2.29,2.34
191.42,0.61,-1.72,0.61,-1.70,1.64,1.63,1.11,2.24,2.25,2.33
193.33,0.57,-1.69,0.58,-1.69,1.62,1.60,1.10,2.18,2.19,2.26
195.27,0.56,-1.62,0.54,-1.63,1.58,1.57,1.09,2.14,2.12,2.18
197.22,0.51,-1.55,0.51,-1.54,1.53,1.53,1.08,2.04,2.05,2.06
199.19,0.48,-1.45,0.48,-1.44,1.48,1.50,1.07,1.96,1.96,1.93
201.18,0.45,-1.34,0.45,-1.37,1.43,1.47,1.06,1.88,1.88,1.79
203.19,0.42,-1.31,0.42,-1.33,1.39,1.44,1.05,1.81,1.81,1.74
205.23,0.39,-1.35,0.40,-1.34,1.36,1.40,1.04,1.75,1.75,1.74
207.28,0.37,-1.37,0.37,-1.35,1.34,1.37,1.04,1.71,1.71,1.74
209.35,0.34,-1.35,0.34,-1.36,1.34,1.34,1.03,1.68,1.68,1.69
211.44,0.30,-1.34,0.31,-1.36,1.35,1.30,1.02,1.66,1.66,1.64
213.56,0.28,-1.36,0.28,-1.36,1.36,1.27,1.02,1.64,1.65,1.64
215.69,0.26,-1.38,0.25,-1.37,1.37,1.23,1.01,1.62,1.62,1.64
217.85,0.24,-1.37,0.23,-1.37,1.35,1.19,1.00,1.59,1.58,1.61
220.03,0.19,-1.35,0.20,-1.35,1.32,1.16,1.00,1.51,1.52,1.54
222.23,0.17,-1.31,0.18,-1.32,1.28,1.12,0.99,1.45,1.45,1.48
224.45,0.16,-1.27,0.15,-1.27,1.24,1.08,0.98,1.39,1.39,1.42
226.70,0.13,-1.22,0.13,-1.20,1.20,1.05,0.97,1.33,1.33,1.35
228.96,0.10,-1.11,0.11,-1.11,1.16,1.01,0.96,1.27,1.27,1.21
231.25,0.08,-1.03,0.08,-1.05,1.12,0.97,0.96,1.20,1.20,1.11
233.57,0.05,-1.00,0.05,-1.04,1.09,0.94,0.95,1.14,1.13,1.05
235.90,0.01,-1.09,0.02,-1.06,1.06,0.90,0.93,1.07,1.08,1.10
238.26,0.00,-1.10,-0.00,-1.08,1.02,0.86,0.92,1.02,1.02,1.10
240.64,-0.01,-1.04,-0.02,-1.06,0.99,0.82,0.91,0.98,0.97,1.02
243.05,-0.03,-1.00,-0.03,-0.97,0.95,0.79,0.90,0.92,0.92,0.96
245.48,-0.05,-0.89,-0.05,-0.89,0.90,0.75,0.88,0.86,0.86,0.84
247.93,-0.05,-0.79,-0.05,-0.83,0.84,0.71,0.87,0.78,0.78,0.74
250.41,-0.05,-0.79,-0.05,-0.77,0.77,0.67,0.85,0.72,0.72,0.74
252.92,-0.03,-0.72,-0.02,-0.69,0.69,0.63,0.83,0.65,0.67,0.69
255.45,0.01,-0.61,0.02,-0.61,0.61,0.59,0.81,0.62,0.63,0.62
258.00,0.07,-0.47,0.05,-0.52,0.54,0.56,0.79,0.62,0.59,0.54
260.58,0.06,-0.48,0.07,-0.46,0.48,0.52,0.77,0.55,0.55,0.54
263.19,0.06,-0.45,0.08,-0.42,0.44,0.48,0.74,0.50,0.51,0.51
265.82,0.08,-0.37,0.07,-0.40,0.39,0.44,0.72,0.47,0.47,0.44
268.48,0.09,-0.35,0.07,-0.36,0.36,0.40,0.69,0.45,0.43,0.44
271.16,0.06,-0.35,0.07,-0.33,0.33,0.36,0.67,0.39,0.40,0.41
273.87,0.05,-0.29,0.06,-0.31,0.31,0.32,0.64,0.36,0.37,0.34
276.61,0.05,-0.29,0.04,-0.30,0.28,0.29,0.61,0.33,0.32,0.34
279.38,0.02,-0.29,0.02,-0.27,0.24,0.25,0.58,0.26,0.27,0.31
282.17,0.00,-0.24,0.00,-0.24,0.21,0.21,0.55,0.21,0.21,0.24
284.99,-0.01,-0.18,-0.02,-0.18,0.17,0.17,0.52,0.16,0.16,0.16
287.84,-0.03,-0.12,-0.03,-0.12,0.14,0.13,0.48,0.11,0.11,0.09
290.72,-0.05,-0.07,-0.05,-0.06,0.11,0.09,0.45,0.06,0.06,0.02
293.63,-0.06,-0.01,-0.06,-0.03,0.07,0.05,0.42,0.01,0.01,-0.05
296.57,-0.07,-0.01,-0.07,-0.03,0.03,0.02,0.38,-0.04,-0.04,-0.06
299.53,-0.09,-0.03,-0.09,-0.02,-0.01,-0.02,0.35,-0.10,-0.10,-0.06
302.53,-0.10,-0.04,-0.10,0.00,-0.06,-0.06,0.31,-0.16,-0.16,-0.06
305.55,-0.11,0.08,-0.11,0.06,-0.11,-0.10,0.28,-0.22,-0.23,-0.19
308.61,-0.13,0.17,-0.13,0.14,-0.16,-0.13,0.24,-0.29,-0.29,-0.29
311.69,-0.14,0.21,-0.14,0.22,-0.20,-0.17,0.21,-0.34,-0.34,-0.35
314.81,-0.16,0.28,-0.16,0.29,-0.24,-0.21,0.17,-0.39,-0.39,-0.43
317.96,-0.17,0.33,-0.17,0.33,-0.26,-0.24,0.13,-0.43,-0.43,-0.50
321.14,-0.18,0.37,-0.18,0.33,-0.28,-0.28,0.09,-0.46,-0.46,-0.56
324.35,-0.19,0.28,-0.19,0.31,-0.28,-0.31,0.06,-0.48,-0.48,-0.48
327.59,-0.20,0.26,-0.20,0.27,-0.29,-0.34,0.02,-0.50,-0.50,-0.46
330.87,-0.21,0.25,-0.21,0.24,-0.31,-0.38,-0.02,-0.52,-0.52,-0.46
334.18,-0.22,0.24,-0.22,0.25,-0.32,-0.41,-0.06,-0.54,-0.54,-0.46
337.52,-0.23,0.28,-0.23,0.29,-0.35,-0.44,-0.10,-0.58,-0.58,-0.51
340.90,-0.24,0.36,-0.24,0.37,-0.38,-0.47,-0.13,-0.62,-0.62,-0.60
344.30,-0.25,0.48,-0.24,0.48,-0.42,-0.50,-0.17,-0.67,-0.66,-0.73
347.75,-0.25,0.57,-0.25,0.54,-0.47,-0.52,-0.21,-0.72,-0.72,-0.82
351.23,-0.25,0.58,-0.26,0.55,-0.52,-0.55,-0.25,-0.77,-0.78,-0.84
354.74,-0.27,0.49,-0.27,0.55,-0.56,-0.57,-0.29,-0.83,-0.83,-0.77
358.28,-0.28,0.55,-0.28,0.56,-0.59,-0.60,-0.33,-0.87,-0.87,-0.83
361.87,-0.29,0.61,-0.29,0.60,-0.60,-0.62,-0.37,-0.89,-0.89,-0.90
365.49,-0.30,0.66,-0.30,0.64,-0.62,-0.64,-0.41,-0.91,-0.91,-0.96
369.14,-0.31,0.65,-0.31,0.65,-0.63,-0.66,-0.45,-0.94,-0.94,-0.96
372.83,-0.32,0.64,-0.32,0.65,-0.66,-0.68,-0.49,-0.98,-0.98,-0.96
376.56,-0.33,0.64,-0.33,0.65,-0.70,-0.70,-0.53,-1.03,-1.03,-0.97
380.33,-0.34,0.69,-0.34,0.69,-0.74,-0.72,-0.57,-1.08,-1.07,-1.03
384.13,-0.35,0.76,-0.35,0.76,-0.77,-0.74,-0.62,-1.12,-1.12,-1.10
387.97,-0.35,0.83,-0.35,0.82,-0.80,-0.75,-0.66,-1.15,-1.16,-1.18
391.85,-0.36,0.88,-0.36,0.87,-0.83,-0.77,-0.70,-1.19,-1.19,-1.24
395.77,-0.37,0.89,-0.37,0.89,-0.85,-0.79,-0.74,-1.22,-1.22,-1.26
399.73,-0.38,0.88,-0.38,0.89,-0.87,-0.80,-0.78,-1.24,-1.24,-1.26
403.72,-0.38,0.88,-0.39,0.87,-0.88,-0.81,-0.82,-1.26,-1.26,-1.26
407.76,-0.40,0.86,-0.40,0.86,-0.88,-0.83,-0.86,-1.27,-1.27,-1.26
411.84,-0.41,0.85,-0.40,0.85,-0.87,-0.84,-0.91,-1.29,-1.28,-1.26
415.96,-0.41,0.85,-0.41,0.85,-0.87,-0.85,-0.95,-1.28,-1.28,-1.26
420.12,-0.41,0.85,-0.42,0.86,-0.86,-0.87,-0.99,-1.28,-1.28,-1.26
424.32,-0.43,0.87,-0.43,0.88,-0.87,-0.88,-1.03,-1.30,-1.29,-1.30
428.56,-0.44,0.92,-0.44,0.90,-0.88,-0.89,-1.06,-1.32,-1.32,-1.36
432.85,-0.45,0.91,-0.45,0.90,-0.90,-0.90,-1.10,-1.35,-1.35,-1.36
437.18,-0.46,0.90,-0.46,0.90,-0.92,-0.91,-1.14,-1.39,-1.39,-1.36
441.55,-0.47,0.90,-0.47,0.92,-0.95,-0.93,-1.18,-1.42,-1.42,-1.37
445.96,-0.48,0.96,-0.48,0.96,-0.97,-0.94,-1.21,-1.45,-1.45,-1.44
450.42,-0.49,1.02,-0.49,1.01,-0.99,-0.95,-1.25,-1.47,-1.48,-1.51
454.93,-0.50,1.06,-0.50,1.05,-1.01,-0.96,-1.28,-1.51,-1.51,-1.56
459.48,-0.50,1.06,-0.50,1.06,-1.04,-0.98,-1.31,-1.54,-1.55,-1.56
464.07,-0.51,1.05,-0.51,1.06,-1.08,-0.99,-1.34,-1.59,-1.59,-1.56
468.71,-0.52,1.06,-0.52,1.08,-1.12,-1.00,-1.36,-1.64,-1.64,-1.58
473.40,-0.53,1.12,-0.53,1.12,-1.16,-1.02,-1.39,-1.68,-1.69,-1.65
478.13,-0.54,1.18,-0.54,1.18,-1.19,-1.03,-1.41,-1.73,-1.73,-1.72
482.91,-0.55,1.24,-0.55,1.25,-1.22,-1.04,-1.43,-1.77,-1.77,-1.79
487.74,-0.55,1.30,-0.55,1.28,-1.25,-1.06,-1.45,-1.80,-1.80,-1.86
492.62,-0.56,1.30,-0.56,1.30,-1.26,-1.07,-1.47,-1.82,-1.83,-1.86
497.55,-0.57,1.29,-0.57,1.30,-1.28,-1.09,-1.49,-1.85,-1.85,-1.86
502.52,-0.58,1.28,-0.58,1.28,-1.28,-1.10,-1.50,-1.86,-1.86,-1.86
507.55,-0.59,1.27,-0.59,1.27,-1.29,-1.11,-1.51,-1.88,-1.88,-1.86
512.62,-0.60,1.26,-0.60,1.25,-1.29,-1.13,-1.52,-1.89,-1.89,-1.86
517.75,-0.61,1.25,-0.61,1.25,-1.29,-1.14,-1.52,-1.90,-1.90,-1.86
522.93,-0.62,1.24,-0.62,1.26,-1.28,-1.16,-1.53,-1.90,-1.90,-1.86
528.16,-0.63,1.29,-0.63,1.29,-1.27,-1.17,-1.53,-1.90,-1.90,-1.91
533.44,-0.64,1.32,-0.64,1.31,-1.25,-1.19,-1.53,-1.89,-1.89,-1.96
