frequency,raw,error,smoothed,error_smoothed,equalization,parametric_eq,fixed_band_eq,equalized_raw,equalized_smoothed,target
20.00,18.04,1.94,18.04,1.94,-1.94,-1.76,-0.52,16.10,16.10,16.10
20.20,18.01,1.89,18.01,1.89,-1.89,-1.77,-0.53,16.12,16.12,16.12
20.40,17.99,1.85,17.99,1.85,-1.85,-1.77,-0.55,16.14,16.14,16.14
20.61,17.96,1.80,17.96,1.80,-1.81,-1.77,-0.56,16.15,16.15,16.16
20.81,17.93,1.77,17.93,1.77,-1.77,-1.77,-0.58,16.17,16.17,16.17
21.02,17.91,1.73,17.91,1.73,-1.73,-1.77,-0.60,16.18,16.18,16.18
21.23,17.88,1.69,17.88,1.70,-1.70,-1.77,-0.61,16.19,16.19,16.19
21.44,17.86,1.66,17.86,1.66,-1.66,-1.76,-0.63,16.20,16.20,16.19
21.66,17.83,1.64,17.83,1.64,-1.64,-1.75,-0.65,16.20,16.20,16.20
21.87,17.81,1.61,17.81,1.61,-1.61,-1.74,-0.67,16.20,16.20,16.20
22.09,17.78,1.58,17.78,1.58,-1.58,-1.73,-0.69,16.20,16.20,16.20
22.31,17.76,1.56,17.76,1.56,-1.56,-1.72,-0.71,16.19,16.19,16.19
22.54,17.73,1.54,17.73,1.54,-1.54,-1.71,-0.73,16.19,16.19,16.19
22.76,17.70,1.52,17.71,1.52,-1.52,-1.69,-0.75,16.18,16.18,16.18
22.99,17.68,1.51,17.68,1.51,-1.51,-1.67,-0.77,16.17,16.17,16.17
23.22,17.65,1.49,17.65,1.49,-1.49,-1.66,-0.79,16.16,16.16,16.16
23.45,17.63,1.48,17.63,1.48,-1.48,-1.64,-0.82,16.15,16.15,16.15
23.69,17.60,1.47,17.60,1.47,-1.47,-1.62,-0.84,16.13,16.13,16.13
23.92,17.57,1.46,17.57,1.46,-1.45,-1.60,-0.86,16.11,16.11,16.11
24.16,17.53,1.44,17.53,1.44,-1.44,-1.58,-0.89,16.09,16.09,16.09
24.40,17.50,1.43,17.50,1.43,-1.43,-1.55,-0.91,16.07,16.07,16.07
24.65,17.46,1.42,17.46,1.42,-1.42,-1.53,-0.94,16.05,16.05,16.05
24.89,17.43,1.41,17.43,1.41,-1.41,-1.51,-0.96,16.02,16.02,16.02
25.14,17.39,1.40,17.39,1.40,-1.40,-1.49,-0.99,15.99,15.99,15.99
25.39,17.36,1.39,17.36,1.39,-1.39,-1.46,-1.01,15.96,15.96,15.97
25.65,17.32,1.39,17.32,1.39,-1.39,-1.44,-1.04,15.93,15.93,15.94
25.91,17.29,1.38,17.29,1.38,-1.39,-1.42,-1.06,15.90,15.90,15.91
26.16,17.26,1.38,17.26,1.38,-1.38,-1.40,-1.09,15.87,15.87,15.87
26.43,17.22,1.38,17.22,1.38,-1.38,-1.37,-1.11,15.84,15.84,15.84
26.69,17.19,1.38,17.19,1.38,-1.38,-1.35,-1.14,15.81,15.81,15.81
26.96,17.15,1.38,17.15,1.38,-1.37,-1.33,-1.16,15.78,15.78,15.78
27.23,17.12,1.37,17.12,1.37,-1.37,-1.31,-1.18,15.75,15.75,15.75
27.50,17.08,1.36,17.08,1.36,-1.36,-1.29,-1.21,15.72,15.72,15.72
27.77,17.05,1.35,17.05,1.35,-1.36,-1.27,-1.23,15.69,15.69,15.69
28.05,17.01,1.35,17.01,1.35,-1.35,-1.25,-1.25,15.66,15.66,15.66
28.33,16.97,1.35,16.98,1.35,-1.35,-1.23,-1.27,15.62,15.62,15.63
28.62,16.94,1.34,16.94,1.34,-1.35,-1.21,-1.29,15.59,15.59,15.59
28.90,16.90,1.34,16.90,1.34,-1.34,-1.19,-1.31,15.56,15.56,15.56
29.19,16.86,1.34,16.86,1.34,-1.34,-1.17,-1.33,15.53,15.53,15.52
29.48,16.82,1.33,16.82,1.33,-1.33,-1.16,-1.34,15.49,15.49,15.49
29.78,16.78,1.32,16.78,1.32,-1.32,-1.14,-1.35,15.46,15.46,15.46
30.08,16.74,1.31,16.74,1.31,-1.31,-1.12,-1.37,15.43,15.43,15.43
30.38,16.70,1.29,16.70,1.29,-1.29,-1.11,-1.38,15.40,15.40,15.40
30.68,16.65,1.28,16.65,1.28,-1.28,-1.09,-1.39,15.38,15.38,15.38
30.99,16.61,1.26,16.61,1.26,-1.26,-1.08,-1.39,15.35,15.35,15.35
31.30,16.57,1.24,16.57,1.24,-1.24,-1.07,-1.40,15.33,15.33,15.33
31.61,16.53,1.22,16.53,1.22,-1.22,-1.05,-1.40,15.30,15.30,15.30
31.93,16.48,1.20,16.48,1.20,-1.20,-1.04,-1.41,15.28,15.28,15.28
32.24,16.44,1.18,16.44,1.18,-1.18,-1.03,-1.41,15.26,15.26,15.26
32.57,16.40,1.16,16.40,1.16,-1.16,-1.02,-1.41,15.23,15.23,15.24
32.89,16.35,1.14,16.35,1.14,-1.14,-1.01,-1.40,15.21,15.21,15.21
33.22,16.31,1.12,16.31,1.12,-1.12,-1.00,-1.40,15.19,15.19,15.19
33.55,16.26,1.10,16.26,1.10,-1.10,-0.99,-1.39,15.16,15.16,15.16
33.89,16.21,1.08,16.21,1.08,-1.07,-0.98,-1.39,15.14,15.14,15.13
34.23,16.16,1.05,16.16,1.05,-1.05,-0.98,-1.38,15.11,15.11,15.11
34.57,16.11,1.02,16.11,1.02,-1.02,-0.97,-1.37,15.08,15.08,15.08
34.92,16.06,1.00,16.06,1.00,-1.00,-0.96,-1.36,15.06,15.06,15.06
35.27,16.01,0.98,16.01,0.98,-0.98,-0.96,-1.35,15.02,15.02,15.03
35.62,15.96,0.96,15.96,0.96,-0.96,-0.95,-1.34,14.99,14.99,15.00
35.97,15.91,0.95,15.91,0.95,-0.95,-0.95,-1.32,14.95,14.95,14.96
36.33,15.86,0.94,15.86,0.94,-0.94,-0.94,-1.31,14.91,14.91,14.92
36.70,15.81,0.93,15.81,0.93,-0.94,-0.94,-1.30,14.87,14.87,14.87
37.06,15.75,0.93,15.75,0.93,-0.93,-0.94,-1.28,14.82,14.82,14.83
37.43,15.70,0.93,15.70,0.93,-0.93,-0.93,-1.27,14.78,14.78,14.78
37.81,15.65,0.92,15.65,0.92,-0.92,-0.93,-1.26,14.73,14.73,14.73
38.19,15.60,0.92,15.60,0.92,-0.91,-0.93,-1.24,14.69,14.69,14.68
38.57,15.55,0.91,15.55,0.91,-0.90,-0.93,-1.23,14.65,14.65,14.63
38.95,15.49,0.90,15.49,0.90,-0.89,-0.93,-1.22,14.61,14.61,14.60
39.34,15.44,0.88,15.44,0.88,-0.87,-0.93,-1.21,14.57,14.57,14.57
39.74,15.39,0.85,15.39,0.85,-0.86,-0.93,-1.19,14.53,14.53,14.54
40.14,15.34,0.83,15.34,0.83,-0.84,-0.93,-1.18,14.49,14.49,14.51
40.54,15.28,0.82,15.28,0.82,-0.83,-0.93,-1.17,14.45,14.45,14.47
40.94,15.23,0.81,15.23,0.81,-0.82,-0.94,-1.16,14.41,14.41,14.42
41.35,15.18,0.81,15.18,0.81,-0.81,-0.94,-1.15,14.37,14.37,14.37
41.76,15.12,0.81,15.12,0.81,-0.80,-0.94,-1.14,14.32,14.32,14.31
42.18,15.07,0.80,15.07,0.80,-0.79,-0.95,-1.13,14.28,14.28,14.27
42.60,15.01,0.79,15.01,0.79,-0.78,-0.95,-1.13,14.23,14.23,14.22
43.03,14.95,0.77,14.95,0.77,-0.77,-0.95,-1.12,14.18,14.18,14.18
43.46,14.90,0.76,14.90,0.76,-0.76,-0.96,-1.11,14.14,14.14,14.14
43.90,14.84,0.75,14.84,0.75,-0.75,-0.97,-1.11,14.09,14.09,14.09
44.33,14.78,0.74,14.78,0.74,-0.74,-0.97,-1.11,14.04,14.04,14.04
44.78,14.72,0.73,14.72,0.73,-0.73,-0.98,-1.10,14.00,14.00,13.99
45.23,14.66,0.72,14.66,0.72,-0.72,-0.99,-1.10,13.94,13.94,13.95
45.68,14.61,0.71,14.61,0.71,-0.72,-0.99,-1.10,13.89,13.89,13.90
46.13,14.55,0.71,14.55,0.71,-0.72,-1.00,-1.10,13.83,13.83,13.84
46.60,14.50,0.72,14.50,0.73,-0.73,-1.01,-1.10,13.76,13.76,13.77
47.06,14.44,0.74,14.44,0.74,-0.75,-1.02,-1.10,13.69,13.69,13.69
47.53,14.38,0.77,14.38,0.77,-0.76,-1.03,-1.10,13.62,13.62,13.61
48.01,14.32,0.79,14.32,0.79,-0.78,-1.04,-1.10,13.54,13.54,13.54
48.49,14.26,0.81,14.26,0.81,-0.80,-1.05,-1.10,13.47,13.47,13.46
48.97,14.21,0.82,14.21,0.82,-0.81,-1.06,-1.11,13.39,13.39,13.38
49.46,14.15,0.83,14.15,0.83,-0.83,-1.07,-1.11,13.32,13.32,13.31
49.96,14.08,0.84,14.08,0.85,-0.85,-1.08,-1.12,13.24,13.24,13.24
50.46,14.02,0.86,14.02,0.86,-0.86,-1.09,-1.12,13.16,13.16,13.16
50.96,13.96,0.87,13.96,0.87,-0.88,-1.11,-1.13,13.08,13.08,13.09
51.47,13.90,0.89,13.90,0.89,-0.90,-1.12,-1.14,13.00,13.00,13.00
51.99,13.83,0.92,13.83,0.92,-0.92,-1.13,-1.15,12.92,12.92,12.92
52.51,13.77,0.94,13.77,0.94,-0.94,-1.15,-1.15,12.83,12.83,12.83
53.03,13.71,0.97,13.71,0.97,-0.96,-1.16,-1.16,12.75,12.75,12.74
53.56,13.65,0.99,13.65,0.99,-0.99,-1.18,-1.17,12.66,12.66,12.65
54.10,13.58,1.02,13.58,1.02,-1.01,-1.19,-1.18,12.57,12.57,12.57
54.64,13.52,1.04,13.52,1.04,-1.04,-1.21,-1.19,12.48,12.48,12.48
55.18,13.46,1.06,13.46,1.06,-1.06,-1.23,-1.20,12.40,12.40,12.40
55.74,13.39,1.08,13.39,1.08,-1.09,-1.24,-1.21,12.31,12.31,12.31
56.29,13.33,1.11,13.33,1.11,-1.11,-1.26,-1.22,12.22,12.22,12.22
56.86,13.27,1.13,13.27,1.14,-1.14,-1.28,-1.23,12.13,12.13,12.13
57.42,13.20,1.16,13.20,1.16,-1.17,-1.30,-1.24,12.04,12.04,12.04
58.00,13.14,1.20,13.14,1.19,-1.20,-1.31,-1.25,11.94,11.94,11.94
58.58,13.07,1.23,13.07,1.23,-1.23,-1.33,-1.26,11.85,11.85,11.85
59.16,13.01,1.26,13.01,1.26,-1.26,-1.35,-1.28,11.75,11.75,11.75
59.76,12.95,1.30,12.95,1.30,-1.30,-1.37,-1.29,11.65,11.65,11.65
60.35,12.88,1.33,12.88,1.33,-1.33,-1.39,-1.30,11.55,11.55,11.55
60.96,12.82,1.37,12.82,1.37,-1.37,-1.41,-1.31,11.45,11.45,11.45
61.57,12.75,1.41,12.75,1.41,-1.41,-1.43,-1.32,11.35,11.35,11.35
62.18,12.69,1.44,12.69,1.44,-1.44,-1.46,-1.32,11.25,11.25,11.25
62.80,12.62,1.48,12.62,1.48,-1.48,-1.48,-1.33,11.14,11.14,11.14
63.43,12.56,1.52,12.56,1.52,-1.51,-1.50,-1.34,11.04,11.04,11.04
64.07,12.49,1.55,12.49,1.55,-1.55,-1.52,-1.35,10.94,10.94,10.94
64.71,12.43,1.58,12.43,1.58,-1.58,-1.55,-1.36,10.84,10.84,10.84
65.35,12.36,1.62,12.36,1.62,-1.62,-1.57,-1.37,10.74,10.74,10.74
66.01,12.29,1.65,12.29,1.65,-1.65,-1.60,-1.38,10.64,10.64,10.64
66.67,12.23,1.69,12.23,1.69,-1.69,-1.62,-1.39,10.54,10.54,10.54
67.33,12.16,1.72,12.16,1.72,-1.72,-1.65,-1.40,10.44,10.44,10.44
68.01,12.09,1.75,12.09,1.75,-1.75,-1.67,-1.40,10.35,10.35,10.34
68.69,12.03,1.78,12.03,1.78,-1.78,-1.70,-1.41,10.25,10.25,10.24
69.37,11.96,1.81,11.96,1.81,-1.81,-1.72,-1.42,10.15,10.15,10.15
70.07,11.89,1.84,11.89,1.84,-1.84,-1.75,-1.43,10.05,10.05,10.05
70.77,11.82,1.87,11.82,1.87,-1.87,-1.78,-1.44,9.95,9.95,9.95
71.48,11.76,1.90,11.76,1.90,-1.90,-1.80,-1.45,9.85,9.85,9.85
72.19,11.69,1.94,11.69,1.93,-1.93,-1.83,-1.46,9.76,9.76,9.75
72.91,11.62,1.97,11.62,1.97,-1.97,-1.86,-1.48,9.66,9.66,9.66
73.64,11.56,1.99,11.56,2.00,-2.00,-1.89,-1.49,9.55,9.55,9.56
74.38,11.49,2.03,11.49,2.03,-2.04,-1.92,-1.50,9.45,9.45,9.46
75.12,11.42,2.07,11.42,2.07,-2.07,-1.94,-1.51,9.35,9.35,9.35
75.87,11.35,2.11,11.35,2.11,-2.10,-1.97,-1.53,9.25,9.25,9.24
76.63,11.28,2.15,11.28,2.14,-2.13,-2.00,-1.54,9.15,9.15,9.14
77.40,11.21,2.17,11.21,2.17,-2.16,-2.03,-1.56,9.05,9.05,9.04
78.17,11.14,2.19,11.14,2.19,-2.19,-2.06,-1.58,8.95,8.95,8.95
78.95,11.08,2.21,11.08,2.21,-2.22,-2.09,-1.60,8.86,8.86,8.87
79.74,11.01,2.24,11.01,2.24,-2.24,-2.12,-1.62,8.77,8.77,8.77
80.54,10.94,2.27,10.94,2.27,-2.27,-2.15,-1.64,8.67,8.67,8.68
81.35,10.88,2.30,10.87,2.30,-2.29,-2.18,-1.66,8.58,8.58,8.57
82.16,10.81,2.33,10.81,2.33,-2.32,-2.21,-1.69,8.48,8.48,8.48
82.98,10.74,2.35,10.74,2.35,-2.36,-2.24,-1.71,8.38,8.38,8.38
83.81,10.67,2.38,10.67,2.38,-2.39,-2.27,-1.74,8.27,8.27,8.29
84.65,10.59,2.42,10.60,2.42,-2.44,-2.30,-1.77,8.16,8.16,8.18
85.50,10.52,2.46,10.52,2.47,-2.48,-2.33,-1.80,8.04,8.04,8.06
86.35,10.45,2.52,10.45,2.52,-2.53,-2.36,-1.83,7.93,7.93,7.94
87.22,10.38,2.56,10.38,2.56,-2.56,-2.39,-1.86,7.82,7.81,7.82
88.09,10.31,2.61,10.31,2.61,-2.59,-2.41,-1.89,7.72,7.72,7.70
88.97,10.23,2.64,10.23,2.64,-2.60,-2.44,-1.93,7.63,7.63,7.59
89.86,10.16,2.66,10.16,2.66,-2.59,-2.47,-1.96,7.56,7.57,7.50
90.76,10.09,2.65,10.09,2.64,-2.58,-2.50,-2.00,7.51,7.51,7.44
91.66,10.03,2.61,10.03,2.60,-2.57,-2.53,-2.04,7.45,7.45,7.42
92.58,9.96,2.55,9.96,2.55,-2.58,-2.55,-2.08,7.38,7.38,7.42
93.51,9.90,2.51,9.90,2.52,-2.61,-2.58,-2.13,7.29,7.28,7.39
94.44,9.83,2.53,9.83,2.54,-2.67,-2.60,-2.17,7.16,7.16,7.30
95.39,9.77,2.63,9.77,2.64,-2.75,-2.63,-2.22,7.02,7.02,7.14
96.34,9.70,2.78,9.70,2.79,-2.83,-2.65,-2.26,6.87,6.87,6.92
97.30,9.63,2.96,9.63,2.96,-2.91,-2.68,-2.31,6.72,6.72,6.67
98.28,9.56,3.10,9.56,3.10,-2.97,-2.70,-2.36,6.59,6.59,6.46
99.26,9.50,3.17,9.50,3.15,-3.00,-2.72,-2.41,6.50,6.50,6.33
100.25,9.43,3.13,9.43,3.12,-2.99,-2.74,-2.46,6.44,6.44,6.30
101.25,9.36,3.00,9.36,3.00,-2.95,-2.76,-2.51,6.41,6.41,6.36
102.27,9.30,2.85,9.30,2.85,-2.88,-2.78,-2.56,6.42,6.42,6.45
103.29,9.23,2.70,9.23,2.71,-2.79,-2.80,-2.61,6.44,6.44,6.53
104.32,9.16,2.59,9.16,2.61,-2.70,-2.81,-2.66,6.46,6.46,6.57
105.37,9.09,2.56,9.09,2.55,-2.63,-2.83,-2.71,6.46,6.46,6.53
106.42,9.02,2.54,9.02,2.55,-2.58,-2.85,-2.76,6.43,6.43,6.47
107.48,8.95,2.57,8.95,2.57,-2.57,-2.86,-2.81,6.38,6.38,6.38
108.56,8.88,2.60,8.88,2.60,-2.58,-2.87,-2.85,6.30,6.30,6.27
109.64,8.81,2.64,8.81,2.64,-2.61,-2.88,-2.90,6.20,6.20,6.17
110.74,8.74,2.67,8.74,2.67,-2.64,-2.89,-2.95,6.10,6.10,6.07
111.85,8.67,2.69,8.67,2.69,-2.67,-2.90,-2.99,5.99,5.99,5.98
112.97,8.60,2.71,8.60,2.71,-2.71,-2.91,-3.03,5.89,5.89,5.89
114.10,8.53,2.72,8.53,2.72,-2.73,-2.91,-3.07,5.80,5.80,5.81
115.24,8.46,2.74,8.46,2.75,-2.75,-2.92,-3.10,5.71,5.71,5.72
116.39,8.39,2.77,8.39,2.77,-2.77,-2.92,-3.13,5.62,5.62,5.62
117.55,8.32,2.79,8.32,2.79,-2.79,-2.92,-3.16,5.54,5.53,5.53
118.73,8.25,2.81,8.25,2.81,-2.80,-2.92,-3.19,5.45,5.45,5.45
119.92,8.18,2.82,8.18,2.82,-2.81,-2.92,-3.20,5.37,5.37,5.36
121.12,8.11,2.82,8.11,2.82,-2.81,-2.91,-3.22,5.30,5.30,5.29
122.33,8.04,2.82,8.04,2.82,-2.81,-2.91,-3.23,5.23,5.23,5.22
123.55,7.97,2.81,7.97,2.81,-2.81,-2.90,-3.24,5.16,5.16,5.16
124.79,7.90,2.80,7.90,2.80,-2.81,-2.90,-3.24,5.10,5.10,5.10
126.03,7.84,2.79,7.84,2.80,-2.81,-2.89,-3.24,5.03,5.03,5.04
127.29,7.77,2.79,7.77,2.79,-2.81,-2.88,-3.23,4.96,4.96,4.97
128.57,7.70,2.80,7.70,2.80,-2.81,-2.87,-3.22,4.89,4.89,4.90
129.85,7.63,2.81,7.63,2.81,-2.81,-2.85,-3.20,4.82,4.82,4.83
131.15,7.56,2.81,7.56,2.81,-2.81,-2.84,-3.18,4.75,4.75,4.75
132.46,7.49,2.81,7.49,2.81,-2.81,-2.82,-3.16,4.68,4.69,4.68
133.79,7.42,2.81,7.42,2.81,-2.80,-2.81,-3.13,4.62,4.62,4.61
135.12,7.35,2.80,7.35,2.80,-2.80,-2.79,-3.10,4.55,4.55,4.55
136.48,7.28,2.79,7.28,2.79,-2.79,-2.77,-3.06,4.49,4.49,4.49
137.84,7.22,2.78,7.22,2.78,-2.78,-2.75,-3.02,4.43,4.43,4.44
139.22,7.15,2.76,7.15,2.76,-2.77,-2.73,-2.98,4.38,4.38,4.38
140.61,7.08,2.75,7.08,2.75,-2.75,-2.71,-2.94,4.33,4.33,4.33
142.02,7.01,2.73,7.01,2.73,-2.73,-2.68,-2.89,4.28,4.28,4.28
143.44,6.94,2.72,6.94,2.72,-2.71,-2.66,-2.84,4.23,4.23,4.22
144.87,6.87,2.70,6.87,2.69,-2.69,-2.63,-2.79,4.18,4.18,4.17
146.32,6.80,2.67,6.80,2.67,-2.66,-2.61,-2.74,4.14,4.14,4.13
147.78,6.73,2.63,6.73,2.64,-2.64,-2.58,-2.69,4.09,4.09,4.09
149.26,6.66,2.60,6.66,2.60,-2.61,-2.55,-2.64,4.05,4.05,4.06
150.75,6.59,2.57,6.59,2.57,-2.58,-2.53,-2.59,4.01,4.01,4.02
152.26,6.52,2.54,6.52,2.54,-2.55,-2.50,-2.53,3.97,3.97,3.98
153.78,6.45,2.52,6.45,2.52,-2.52,-2.47,-2.48,3.94,3.94,3.94
155.32,6.38,2.49,6.38,2.49,-2.49,-2.44,-2.43,3.90,3.89,3.89
156.88,6.31,2.46,6.31,2.46,-2.46,-2.41,-2.37,3.85,3.85,3.85
158.44,6.24,2.43,6.24,2.43,-2.43,-2.38,-2.32,3.81,3.81,3.81
160.03,6.17,2.40,6.17,2.40,-2.40,-2.35,-2.27,3.77,3.77,3.77
161.63,6.10,2.38,6.10,2.38,-2.37,-2.31,-2.22,3.72,3.72,3.72
163.24,6.03,2.35,6.03,2.35,-2.35,-2.28,-2.17,3.68,3.68,3.68
164.88,5.95,2.32,5.95,2.32,-2.31,-2.25,-2.13,3.64,3.64,3.64
166.53,5.88,2.29,5.88,2.29,-2.28,-2.22,-2.08,3.60,3.60,3.60
168.19,5.81,2.25,5.81,2.25,-2.25,-2.19,-2.03,3.56,3.56,3.56
169.87,5.74,2.22,5.74,2.22,-2.22,-2.15,-1.99,3.52,3.52,3.52
171.57,5.67,2.19,5.66,2.19,-2.19,-2.12,-1.95,3.47,3.47,3.48
173.29,5.59,2.16,5.59,2.16,-2.16,-2.09,-1.90,3.43,3.43,3.43
175.02,5.52,2.13,5.52,2.13,-2.14,-2.05,-1.87,3.38,3.38,3.38
176.77,5.44,2.11,5.44,2.11,-2.11,-2.02,-1.83,3.34,3.34,3.34
178.54,5.37,2.08,5.37,2.08,-2.08,-1.99,-1.79,3.29,3.29,3.29
180.32,5.30,2.05,5.30,2.05,-2.06,-1.96,-1.75,3.24,3.24,3.25
182.13,5.23,2.03,5.23,2.03,-2.03,-1.92,-1.72,3.20,3.20,3.20
183.95,5.15,1.99,5.15,1.99,-2.00,-1.89,-1.69,3.15,3.15,3.16
185.79,5.07,1.96,5.07,1.96,-1.96,-1.86,-1.66,3.11,3.11,3.11
187.65,4.99,1.92,4.99,1.92,-1.92,-1.82,-1.62,3.08,3.08,3.07
189.52,4.91,1.88,4.91,1.88,-1.86,-1.79,-1.60,3.05,3.05,3.03
191.42,4.83,1.83,4.83,1.83,-1.80,-1.76,-1.57,3.03,3.03,3.00
193.33,4.74,1.76,4.74,1.76,-1.73,-1.73,-1.54,3.01,3.01,2.98
195.27,4.65,1.68,4.65,1.67,-1.66,-1.70,-1.52,2.99,2.99,2.97
197.22,4.56,1.58,4.56,1.58,-1.59,-1.67,-1.49,2.97,2.97,2.98
199.19,4.48,1.50,4.49,1.50,-1.54,-1.63,-1.47,2.95,2.95,2.99
201.18,4.44,1.45,4.44,1.45,-1.49,-1.60,-1.45,2.94,2.94,2.99
203.19,4.41,1.43,4.42,1.43,-1.46,-1.57,-1.43,2.95,2.96,2.99
205.23,4.43,1.44,4.43,1.44,-1.45,-1.54,-1.41,2.98,2.98,2.99
207.28,4.46,1.46,4.46,1.46,-1.46,-1.51,-1.39,3.00,3.00,3.00
209.35,4.51,1.48,4.51,1.49,-1.48,-1.48,-1.37,3.03,3.03,3.02
211.44,4.56,1.51,4.56,1.51,-1.51,-1.45,-1.35,3.05,3.05,3.05
213.56,4.61,1.54,4.60,1.54,-1.53,-1.42,-1.34,3.07,3.07,3.07
215.69,4.64,1.56,4.64,1.57,-1.56,-1.39,-1.32,3.08,3.09,3.07
217.85,4.66,1.58,4.66,1.58,-1.57,-1.36,-1.31,3.10,3.09,3.08
220.03,4.66,1.59,4.66,1.58,-1.57,-1.34,-1.29,3.09,3.09,3.07
222.23,4.63,1.57,4.63,1.57,-1.56,-1.31,-1.28,3.07,3.08,3.06
224.45,4.59,1.54,4.59,1.54,-1.54,-1.28,-1.26,3.06,3.05,3.05
226.70,4.54,1.50,4.53,1.50,-1.51,-1.25,-1.25,3.03,3.03,3.03
228.96,4.47,1.46,4.47,1.46,-1.47,-1.22,-1.23,3.00,3.00,3.01
231.25,4.40,1.41,4.40,1.41,-1.42,-1.20,-1.22,2.98,2.98,2.98
233.57,4.33,1.37,4.33,1.37,-1.37,-1.17,-1.20,2.95,2.95,2.96
235.90,4.25,1.32,4.25,1.32,-1.32,-1.15,-1.19,2.93,2.93,2.93
238.26,4.18,1.27,4.18,1.27,-1.27,-1.12,-1.17,2.91,2.91,2.91
240.64,4.10,1.22,4.10,1.22,-1.22,-1.09,-1.16,2.88,2.88,2.88
243.05,4.03,1.17,4.03,1.17,-1.17,-1.07,-1.14,2.86,2.86,2.86
245.48,3.96,1.13,3.96,1.13,-1.13,-1.04,-1.12,2.83,2.83,2.83
247.93,3.89,1.08,3.89,1.08,-1.08,-1.02,-1.11,2.80,2.80,2.81
250.41,3.82,1.04,3.82,1.04,-1.04,-0.99,-1.09,2.78,2.78,2.78
252.92,3.75,1.00,3.75,1.00,-1.00,-0.97,-1.07,2.75,2.75,2.75
255.45,3.69,0.96,3.69,0.96,-0.96,-0.95,-1.05,2.72,2.72,2.72
258.00,3.62,0.93,3.62,0.93,-0.93,-0.92,-1.03,2.69,2.69,2.69
260.58,3.56,0.89,3.56,0.89,-0.89,-0.90,-1.01,2.67,2.67,2.67
263.19,3.49,0.86,3.49,0.86,-0.86,-0.88,-0.99,2.64,2.64,2.64
265.82,3.43,0.82,3.43,0.82,-0.83,-0.85,-0.97,2.61,2.61,2.61
268.48,3.37,0.79,3.37,0.79,-0.79,-0.83,-0.95,2.58,2.58,2.58
271.16,3.31,0.77,3.31,0.77,-0.77,-0.81,-0.93,2.55,2.55,2.55
273.87,3.25,0.74,3.25,0.74,-0.74,-0.79,-0.91,2.52,2.52,2.52
276.61,3.20,0.71,3.20,0.71,-0.71,-0.77,-0.89,2.48,2.48,2.48
279.38,3.14,0.69,3.14,0.69,-0.69,-0.74,-0.86,2.45,2.45,2.45
282.17,3.08,0.66,3.08,0.66,-0.66,-0.72,-0.84,2.42,2.42,2.42
284.99,3.02,0.64,3.02,0.64,-0.64,-0.70,-0.82,2.38,2.38,2.38
287.84,2.96,0.62,2.96,0.62,-0.62,-0.68,-0.79,2.35,2.35,2.35
290.72,2.91,0.59,2.91,0.59,-0.59,-0.66,-0.77,2.31,2.31,2.31
293.63,2.85,0.57,2.85,0.57,-0.57,-0.64,-0.75,2.28,2.28,2.28
296.57,2.79,0.55,2.79,0.55,-0.55,-0.62,-0.72,2.25,2.25,2.24
299.53,2.73,0.52,2.73,0.52,-0.53,-0.60,-0.70,2.21,2.21,2.21
302.53,2.68,0.50,2.68,0.50,-0.51,-0.58,-0.67,2.17,2.17,2.18
305.55,2.63,0.48,2.63,0.48,-0.49,-0.56,-0.65,2.14,2.14,2.14
308.61,2.58,0.47,2.58,0.47,-0.47,-0.54,-0.63,2.10,2.10,2.11
311.69,2.53,0.45,2.53,0.45,-0.46,-0.52,-0.60,2.07,2.07,2.08
314.81,2.49,0.44,2.49,0.44,-0.44,-0.50,-0.58,2.04,2.04,2.04
317.96,2.44,0.43,2.44,0.43,-0.43,-0.48,-0.56,2.01,2.01,2.01
321.14,2.40,0.42,2.40,0.42,-0.42,-0.47,-0.53,1.98,1.98,1.97
324.35,2.35,0.41,2.35,0.41,-0.40,-0.45,-0.51,1.94,1.94,1.94
327.59,2.30,0.39,2.30,0.39,-0.39,-0.43,-0.49,1.91,1.91,1.91
330.87,2.24,0.37,2.24,0.37,-0.37,-0.41,-0.47,1.87,1.87,1.87
334.18,2.19,0.35,2.19,0.35,-0.35,-0.39,-0.45,1.84,1.84,1.84
337.52,2.14,0.33,2.14,0.33,-0.34,-0.37,-0.42,1.80,1.80,1.81
340.90,2.09,0.32,2.09,0.32,-0.32,-0.35,-0.40,1.77,1.77,1.77
344.30,2.04,0.30,2.04,0.30,-0.30,-0.34,-0.38,1.74,1.74,1.74
347.75,1.99,0.28,1.99,0.28,-0.28,-0.32,-0.36,1.71,1.71,1.71
351.23,1.94,0.26,1.94,0.26,-0.26,-0.30,-0.34,1.68,1.68,1.68
354.74,1.89,0.24,1.89,0.24,-0.24,-0.28,-0.32,1.65,1.65,1.65
358.28,1.84,0.22,1.84,0.22,-0.22,-0.26,-0.30,1.63,1.63,1.63
361.87,1.80,0.20,1.80,0.20,-0.20,-0.24,-0.28,1.60,1.60,1.60
365.49,1.75,0.18,1.75,0.18,-0.18,-0.23,-0.26,1.57,1.57,1.57
369.14,1.70,0.16,1.70,0.16,-0.16,-0.21,-0.24,1.54,1.54,1.55
372.83,1.66,0.14,1.66,0.14,-0.14,-0.19,-0.22,1.52,1.52,1.52
376.56,1.61,0.12,1.61,0.12,-0.12,-0.17,-0.20,1.49,1.49,1.49
380.33,1.57,0.10,1.57,0.10,-0.10,-0.15,-0.18,1.47,1.47,1.47
384.13,1.53,0.08,1.53,0.08,-0.08,-0.13,-0.16,1.45,1.45,1.44
387.97,1.48,0.06,1.48,0.06,-0.06,-0.12,-0.15,1.42,1.42,1.42
391.85,1.44,0.04,1.44,0.04,-0.04,-0.10,-0.13,1.40,1.40,1.40
395.77,1.39,0.02,1.39,0.02,-0.02,-0.08,-0.11,1.37,1.37,1.37
399.73,1.35,-0.00,1.35,-0.00,0.00,-0.06,-0.09,1.35,1.35,1.35
403.72,1.31,-0.02,1.31,-0.02,0.02,-0.04,-0.07,1.33,1.33,1.33
407.76,1.26,-0.04,1.26,-0.04,0.04,-0.02,-0.05,1.31,1.31,1.31
411.84,1.22,-0.06,1.22,-0.06,0.06,0.00,-0.04,1.28,1.28,1.29
415.96,1.18,-0.08,1.18,-0.08,0.08,0.02,-0.02,1.26,1.26,1.26
420.12,1.14,-0.10,1.14,-0.10,0.10,0.04,-0.00,1.24,1.24,1.24
424.32,1.10,-0.12,1.10,-0.12,0.12,0.06,0.01,1.22,1.22,1.22
428.56,1.06,-0.14,1.06,-0.14,0.14,0.08,0.03,1.21,1.21,1.21
432.85,1.02,-0.16,1.02,-0.16,0.16,0.10,0.05,1.19,1.19,1.19
437.18,0.99,-0.18,0.99,-0.18,0.18,0.13,0.07,1.17,1.17,1.17
441.55,0.95,-0.20,0.95,-0.20,0.20,0.15,0.08,1.15,1.15,1.15
445.96,0.91,-0.22,0.91,-0.22,0.22,0.17,0.10,1.14,1.14,1.14
450.42,0.88,-0.24,0.88,-0.24,0.24,0.19,0.12,1.12,1.12,1.12
454.93,0.84,-0.27,0.84,-0.27,0.26,0.22,0.13,1.10,1.10,1.11
459.48,0.80,-0.29,0.80,-0.29,0.29,0.24,0.15,1.09,1.09,1.09
464.07,0.77,-0.31,0.77,-0.31,0.31,0.26,0.16,1.08,1.08,1.07
468.71,0.73,-0.33,0.73,-0.33,0.33,0.29,0.18,1.06,1.06,1.06
473.40,0.70,-0.35,0.70,-0.35,0.35,0.31,0.20,1.05,1.05,1.05
478.13,0.66,-0.37,0.66,-0.37,0.37,0.34,0.21,1.03,1.03,1.03
482.91,0.63,-0.39,0.63,-0.39,0.39,0.36,0.23,1.02,1.02,1.02
487.74,0.59,-0.42,0.59,-0.42,0.42,0.39,0.24,1.01,1.01,1.01
