frequency,raw,error,smoothed,error_smoothed,equalization,parametric_eq,fixed_band_eq,equalized_raw,equalized_smoothed,target
20.00,6.92,1.56,6.92,1.57,-1.59,0.17,-0.01,5.33,5.33,5.36
20.20,6.92,1.56,6.92,1.54,-1.54,0.17,-0.01,5.37,5.37,5.36
20.40,6.91,1.51,6.91,1.51,-1.50,0.18,-0.01,5.41,5.41,5.39
20.61,6.90,1.44,6.90,1.47,-1.45,0.18,-0.02,5.45,5.45,5.46
20.81,6.88,1.42,6.88,1.41,-1.40,0.18,-0.02,5.48,5.48,5.46
21.02,6.86,1.36,6.86,1.35,-1.35,0.19,-0.02,5.51,5.51,5.50
21.23,6.84,1.28,6.84,1.31,-1.30,0.19,-0.02,5.54,5.54,5.56
21.44,6.82,1.26,6.82,1.25,-1.25,0.19,-0.02,5.57,5.57,5.56
21.66,6.80,1.22,6.80,1.20,-1.19,0.20,-0.03,5.61,5.61,5.58
21.87,6.77,1.12,6.77,1.15,-1.13,0.20,-0.03,5.65,5.65,5.65
22.09,6.75,1.09,6.75,1.08,-1.07,0.21,-0.03,5.68,5.68,5.66
22.31,6.72,1.02,6.72,1.01,-1.01,0.21,-0.03,5.70,5.70,5.70
22.54,6.69,0.93,6.69,0.96,-0.97,0.21,-0.03,5.72,5.72,5.76
22.76,6.67,0.91,6.67,0.91,-0.93,0.22,-0.04,5.74,5.74,5.76
22.99,6.64,0.88,6.64,0.87,-0.90,0.22,-0.04,5.74,5.74,5.76
23.22,6.62,0.86,6.62,0.86,-0.87,0.23,-0.04,5.75,5.75,5.76
23.45,6.60,0.84,6.60,0.87,-0.86,0.23,-0.04,5.74,5.74,5.76
23.69,6.58,0.89,6.58,0.87,-0.85,0.24,-0.05,5.73,5.73,5.70
23.92,6.57,0.88,6.57,0.86,-0.84,0.24,-0.05,5.73,5.73,5.69
24.16,6.56,0.82,6.56,0.84,-0.84,0.25,-0.05,5.73,5.73,5.75
24.40,6.57,0.81,6.57,0.82,-0.83,0.25,-0.05,5.74,5.74,5.76
24.65,6.57,0.81,6.57,0.81,-0.81,0.26,-0.06,5.76,5.76,5.76
24.89,6.59,0.83,6.59,0.81,-0.80,0.26,-0.06,5.79,5.79,5.76
25.14,6.60,0.78,6.60,0.78,-0.77,0.27,-0.06,5.83,5.83,5.82
25.39,6.62,0.73,6.62,0.74,-0.75,0.27,-0.06,5.88,5.87,5.89
25.65,6.64,0.68,6.64,0.71,-0.72,0.28,-0.07,5.92,5.92,5.96
25.91,6.65,0.69,6.65,0.68,-0.68,0.28,-0.07,5.97,5.97,5.96
26.16,6.66,0.66,6.65,0.65,-0.63,0.29,-0.07,6.03,6.02,6.00
26.43,6.64,0.58,6.64,0.61,-0.58,0.30,-0.07,6.07,6.07,6.06
26.69,6.61,0.55,6.61,0.54,-0.52,0.30,-0.07,6.10,6.10,6.06
26.96,6.57,0.47,6.57,0.46,-0.46,0.31,-0.07,6.11,6.11,6.10
27.23,6.52,0.36,6.52,0.38,-0.40,0.31,-0.07,6.12,6.12,6.16
27.50,6.46,0.30,6.46,0.30,-0.34,0.32,-0.07,6.12,6.12,6.16
27.77,6.40,0.24,6.40,0.25,-0.28,0.33,-0.07,6.12,6.12,6.16
28.05,6.34,0.20,6.34,0.22,-0.22,0.33,-0.07,6.12,6.12,6.15
28.33,6.29,0.21,6.29,0.17,-0.16,0.34,-0.07,6.12,6.12,6.08
28.62,6.24,0.12,6.24,0.12,-0.10,0.35,-0.06,6.13,6.13,6.11
28.90,6.19,0.03,6.19,0.06,-0.03,0.36,-0.06,6.16,6.16,6.16
29.19,6.15,-0.01,6.14,-0.03,0.06,0.36,-0.05,6.21,6.20,6.16
29.48,6.10,-0.13,6.10,-0.12,0.16,0.37,-0.05,6.26,6.26,6.23
29.78,6.07,-0.24,6.07,-0.23,0.27,0.38,-0.04,6.33,6.33,6.30
30.08,6.03,-0.36,6.03,-0.37,0.37,0.39,-0.04,6.41,6.41,6.39
30.38,6.01,-0.50,6.01,-0.50,0.47,0.39,-0.03,6.48,6.48,6.51
30.68,5.99,-0.62,5.99,-0.61,0.55,0.40,-0.02,6.54,6.54,6.60
30.99,5.97,-0.68,5.97,-0.68,0.62,0.41,-0.01,6.59,6.59,6.66
31.30,5.97,-0.69,5.97,-0.70,0.66,0.42,0.00,6.63,6.63,6.66
31.61,5.96,-0.70,5.96,-0.69,0.69,0.43,0.01,6.65,6.65,6.66
31.93,5.95,-0.68,5.95,-0.68,0.70,0.44,0.03,6.64,6.64,6.63
32.24,5.93,-0.64,5.93,-0.67,0.69,0.45,0.04,6.62,6.62,6.57
32.57,5.90,-0.66,5.89,-0.66,0.69,0.45,0.06,6.58,6.58,6.56
32.89,5.85,-0.68,5.85,-0.66,0.69,0.46,0.07,6.54,6.54,6.54
33.22,5.81,-0.65,5.81,-0.68,0.69,0.47,0.09,6.50,6.50,6.46
33.55,5.76,-0.70,5.77,-0.69,0.71,0.48,0.11,6.47,6.47,6.46
33.89,5.73,-0.72,5.74,-0.71,0.72,0.49,0.13,6.45,6.46,6.46
34.23,5.72,-0.74,5.72,-0.74,0.73,0.50,0.15,6.45,6.45,6.46
34.57,5.71,-0.74,5.72,-0.75,0.72,0.51,0.17,6.44,6.44,6.46
34.92,5.71,-0.74,5.71,-0.75,0.72,0.52,0.19,6.43,6.43,6.46
35.27,5.70,-0.74,5.70,-0.73,0.70,0.54,0.22,6.40,6.40,6.45
35.62,5.68,-0.70,5.67,-0.68,0.68,0.55,0.24,6.36,6.36,6.38
35.97,5.63,-0.62,5.63,-0.63,0.66,0.56,0.27,6.29,6.29,6.25
36.33,5.57,-0.57,5.57,-0.59,0.63,0.57,0.29,6.20,6.20,6.14
36.70,5.50,-0.58,5.50,-0.57,0.60,0.58,0.32,6.10,6.10,6.08
37.06,5.43,-0.57,5.43,-0.57,0.57,0.59,0.35,6.00,6.00,6.01
37.43,5.38,-0.56,5.38,-0.56,0.53,0.61,0.37,5.91,5.91,5.94
37.81,5.34,-0.53,5.34,-0.53,0.50,0.62,0.40,5.84,5.84,5.87
38.19,5.31,-0.49,5.32,-0.49,0.46,0.63,0.43,5.77,5.77,5.80
38.57,5.30,-0.43,5.30,-0.43,0.41,0.64,0.46,5.72,5.72,5.73
38.95,5.30,-0.37,5.30,-0.37,0.36,0.66,0.49,5.66,5.66,5.67
39.34,5.29,-0.30,5.29,-0.31,0.31,0.67,0.52,5.60,5.60,5.59
39.74,5.26,-0.25,5.26,-0.26,0.26,0.68,0.56,5.53,5.53,5.52
40.14,5.22,-0.23,5.22,-0.23,0.23,0.70,0.59,5.46,5.46,5.45
40.54,5.17,-0.22,5.16,-0.22,0.23,0.71,0.62,5.40,5.39,5.39
40.94,5.09,-0.23,5.09,-0.22,0.26,0.73,0.66,5.35,5.35,5.32
41.35,5.01,-0.25,5.01,-0.26,0.32,0.74,0.69,5.33,5.33,5.26
41.76,4.92,-0.34,4.92,-0.34,0.41,0.76,0.73,5.33,5.33,5.26
42.18,4.85,-0.45,4.85,-0.46,0.51,0.77,0.76,5.36,5.36,5.31
42.60,4.79,-0.60,4.79,-0.62,0.62,0.79,0.80,5.41,5.41,5.39
43.03,4.75,-0.79,4.75,-0.77,0.72,0.81,0.84,5.47,5.47,5.54
43.46,4.73,-0.89,4.73,-0.88,0.80,0.82,0.88,5.53,5.53,5.62
43.90,4.72,-0.94,4.72,-0.94,0.85,0.84,0.92,5.58,5.58,5.66
44.33,4.72,-0.93,4.72,-0.95,0.88,0.86,0.95,5.60,5.60,5.66
44.78,4.73,-0.93,4.73,-0.91,0.87,0.88,0.99,5.60,5.60,5.66
45.23,4.73,-0.86,4.73,-0.84,0.85,0.89,1.04,5.58,5.58,5.59
45.68,4.72,-0.74,4.72,-0.76,0.81,0.91,1.08,5.53,5.53,5.47
46.13,4.70,-0.68,4.70,-0.71,0.77,0.93,1.12,5.47,5.47,5.39
46.60,4.67,-0.69,4.67,-0.69,0.74,0.95,1.16,5.41,5.41,5.36
47.06,4.62,-0.73,4.62,-0.70,0.73,0.97,1.21,5.35,5.35,5.35
47.53,4.56,-0.72,4.56,-0.74,0.75,0.99,1.25,5.31,5.30,5.28
48.01,4.49,-0.77,4.49,-0.79,0.78,1.01,1.30,5.27,5.27,5.26
48.49,4.41,-0.85,4.41,-0.85,0.84,1.03,1.34,5.24,5.24,5.26
48.97,4.32,-0.94,4.32,-0.91,0.91,1.05,1.39,5.23,5.23,5.26
49.46,4.24,-0.97,4.24,-0.98,0.98,1.07,1.43,5.22,5.22,5.21
49.96,4.16,-1.02,4.16,-1.06,1.06,1.10,1.48,5.22,5.22,5.18
50.46,4.09,-1.16,4.09,-1.13,1.14,1.12,1.53,5.23,5.23,5.25
50.96,4.03,-1.23,4.03,-1.22,1.21,1.14,1.57,5.24,5.24,5.26
51.47,3.98,-1.28,3.98,-1.29,1.27,1.16,1.62,5.25,5.25,5.26
51.99,3.92,-1.34,3.92,-1.35,1.33,1.19,1.67,5.25,5.25,5.26
52.51,3.86,-1.40,3.86,-1.39,1.38,1.21,1.71,5.24,5.24,5.26
53.03,3.80,-1.43,3.80,-1.42,1.42,1.24,1.76,5.22,5.22,5.23
53.56,3.73,-1.43,3.73,-1.46,1.45,1.26,1.81,5.18,5.18,5.16
54.10,3.66,-1.49,3.66,-1.48,1.48,1.29,1.85,5.14,5.14,5.16
54.64,3.61,-1.51,3.61,-1.50,1.50,1.31,1.90,5.10,5.10,5.12
55.18,3.56,-1.50,3.56,-1.52,1.52,1.34,1.94,5.07,5.08,5.06
55.74,3.53,-1.53,3.53,-1.53,1.54,1.37,1.99,5.07,5.07,5.06
56.29,3.50,-1.56,3.50,-1.55,1.56,1.39,2.03,5.07,5.07,5.06
56.86,3.48,-1.58,3.47,-1.59,1.60,1.42,2.07,5.07,5.07,5.06
57.42,3.43,-1.63,3.43,-1.63,1.63,1.45,2.11,5.07,5.07,5.06
58.00,3.38,-1.67,3.38,-1.68,1.68,1.48,2.15,5.07,5.07,5.06
58.58,3.33,-1.73,3.33,-1.73,1.74,1.51,2.18,5.06,5.06,5.06
59.16,3.28,-1.78,3.28,-1.77,1.79,1.54,2.21,5.07,5.07,5.06
59.76,3.24,-1.82,3.24,-1.83,1.84,1.57,2.25,5.08,5.08,5.06
60.35,3.21,-1.88,3.21,-1.90,1.88,1.60,2.28,5.09,5.09,5.09
60.96,3.19,-1.97,3.19,-1.95,1.91,1.63,2.30,5.10,5.10,5.15
61.57,3.17,-1.99,3.17,-1.98,1.93,1.66,2.33,5.10,5.10,5.16
62.18,3.14,-1.98,3.14,-1.98,1.95,1.70,2.35,5.09,5.09,5.12
62.80,3.09,-1.95,3.09,-1.96,1.97,1.73,2.37,5.06,5.06,5.05
63.43,3.03,-1.95,3.03,-1.95,1.98,1.76,2.39,5.02,5.02,4.99
64.07,2.96,-1.95,2.97,-1.95,2.00,1.80,2.40,4.97,4.97,4.92
64.71,2.89,-1.96,2.90,-1.98,2.03,1.83,2.42,4.92,4.92,4.86
65.35,2.82,-2.04,2.83,-2.04,2.05,1.86,2.43,4.88,4.88,4.86
66.01,2.75,-2.11,2.75,-2.10,2.08,1.90,2.44,4.83,4.83,4.86
66.67,2.67,-2.17,2.67,-2.16,2.11,1.93,2.45,4.78,4.78,4.84
67.33,2.58,-2.18,2.58,-2.19,2.14,1.97,2.45,4.72,4.72,4.77
68.01,2.49,-2.21,2.49,-2.20,2.17,2.01,2.46,4.66,4.66,4.70
68.69,2.42,-2.21,2.42,-2.20,2.21,2.04,2.46,4.62,4.63,4.63
69.37,2.36,-2.20,2.36,-2.21,2.25,2.08,2.46,4.61,4.61,4.56
70.07,2.32,-2.24,2.32,-2.24,2.30,2.12,2.46,4.62,4.62,4.56
70.77,2.29,-2.30,2.29,-2.31,2.36,2.15,2.46,4.65,4.65,4.59
71.48,2.25,-2.40,2.25,-2.41,2.43,2.19,2.46,4.68,4.68,4.66
72.19,2.20,-2.53,2.19,-2.52,2.51,2.23,2.46,4.71,4.71,4.73
72.91,2.12,-2.64,2.12,-2.63,2.60,2.27,2.46,4.72,4.72,4.76
73.64,2.04,-2.72,2.04,-2.73,2.69,2.31,2.46,4.73,4.73,4.76
74.38,1.96,-2.80,1.96,-2.80,2.78,2.35,2.46,4.73,4.73,4.76
75.12,1.89,-2.87,1.89,-2.87,2.85,2.39,2.46,4.74,4.75,4.76
75.87,1.84,-2.92,1.84,-2.92,2.92,2.42,2.46,4.77,4.77,4.76
76.63,1.80,-2.96,1.80,-2.96,2.99,2.46,2.47,4.78,4.78,4.76
77.40,1.75,-3.00,1.75,-3.02,3.04,2.50,2.47,4.80,4.79,4.76
78.17,1.69,-3.07,1.69,-3.07,3.10,2.54,2.47,4.79,4.79,4.76
78.95,1.62,-3.14,1.62,-3.12,3.14,2.58,2.48,4.76,4.76,4.76
79.74,1.55,-3.15,1.55,-3.17,3.17,2.62,2.49,4.72,4.72,4.70
80.54,1.48,-3.18,1.48,-3.20,3.17,2.66,2.49,4.65,4.65,4.66
81.35,1.42,-3.24,1.42,-3.21,3.14,2.70,2.50,4.56,4.56,4.66
82.16,1.36,-3.17,1.36,-3.17,3.09,2.74,2.52,4.44,4.44,4.53
82.98,1.29,-3.07,1.29,-3.08,3.00,2.78,2.53,4.29,4.29,4.36
83.81,1.22,-2.94,1.22,-2.94,2.90,2.81,2.55,4.12,4.13,4.16
84.65,1.15,-2.80,1.15,-2.79,2.81,2.85,2.56,3.96,3.96,3.95
85.50,1.08,-2.65,1.08,-2.65,2.73,2.89,2.58,3.81,3.81,3.73
86.35,1.01,-2.54,1.01,-2.57,2.67,2.93,2.61,3.68,3.68,3.55
87.22,0.94,-2.54,0.94,-2.54,2.64,2.96,2.63,3.58,3.58,3.48
88.09,0.87,-2.59,0.87,-2.59,2.64,3.00,2.66,3.51,3.51,3.46
88.97,0.80,-2.68,0.80,-2.69,2.68,3.03,2.68,3.48,3.48,3.48
89.86,0.74,-2.80,0.74,-2.78,2.74,3.07,2.71,3.49,3.49,3.55
90.76,0.69,-2.87,0.69,-2.87,2.82,3.10,2.75,3.51,3.51,3.56
91.66,0.63,-2.93,0.63,-2.93,2.90,3.13,2.78,3.53,3.53,3.56
92.58,0.58,-2.98,0.58,-2.99,2.97,3.16,2.82,3.54,3.54,3.56
93.51,0.52,-3.04,0.52,-3.03,3.01,3.19,2.85,3.53,3.53,3.56
94.44,0.46,-3.07,0.46,-3.06,3.05,3.22,2.90,3.50,3.50,3.53
95.39,0.39,-3.07,0.39,-3.07,3.07,3.25,2.94,3.46,3.46,3.46
96.34,0.32,-3.07,0.32,-3.07,3.08,3.28,2.98,3.40,3.40,3.39
97.30,0.26,-3.07,0.26,-3.06,3.08,3.30,3.03,3.34,3.34,3.32
98.28,0.19,-3.06,0.19,-3.06,3.08,3.33,3.07,3.27,3.27,3.25
99.26,0.13,-3.06,0.13,-3.08,3.07,3.35,3.12,3.20,3.20,3.18
100.25,0.06,-3.10,0.06,-3.10,3.06,3.37,3.17,3.13,3.13,3.16
101.25,0.00,-3.13,0.00,-3.10,3.07,3.39,3.22,3.07,3.07,3.13
102.27,-0.06,-3.09,-0.06,-3.08,3.08,3.41,3.27,3.02,3.02,3.03
103.29,-0.12,-3.05,-0.12,-3.07,3.12,3.43,3.32,3.00,3.00,2.93
104.32,-0.19,-3.06,-0.19,-3.09,3.17,3.45,3.37,2.98,2.98,2.88
105.37,-0.24,-3.17,-0.24,-3.17,3.23,3.46,3.43,2.99,2.99,2.93
106.42,-0.30,-3.30,-0.30,-3.29,3.31,3.47,3.48,3.00,3.00,3.00
107.48,-0.36,-3.42,-0.36,-3.40,3.38,3.48,3.53,3.02,3.02,3.06
108.56,-0.42,-3.48,-0.42,-3.48,3.44,3.49,3.58,3.03,3.03,3.06
109.64,-0.47,-3.53,-0.47,-3.56,3.50,3.50,3.63,3.03,3.03,3.06
110.74,-0.53,-3.59,-0.53,-3.59,3.54,3.51,3.67,3.01,3.00,3.06
111.85,-0.59,-3.65,-0.59,-3.59,3.55,3.51,3.72,2.96,2.96,3.06
112.97,-0.66,-3.52,-0.66,-3.55,3.54,3.52,3.76,2.88,2.88,2.87
114.10,-0.72,-3.47,-0.72,-3.49,3.52,3.52,3.80,2.79,2.79,2.75
115.24,-0.78,-3.43,-0.78,-3.43,3.48,3.52,3.83,2.70,2.70,2.65
116.39,-0.84,-3.43,-0.84,-3.41,3.44,3.52,3.86,2.61,2.61,2.59
117.55,-0.89,-3.39,-0.89,-3.39,3.40,3.52,3.89,2.51,2.51,2.50
118.73,-0.93,-3.35,-0.93,-3.36,3.35,3.52,3.92,2.42,2.42,2.42
119.92,-0.97,-3.33,-0.97,-3.33,3.30,3.51,3.93,2.33,2.33,2.36
121.12,-1.01,-3.31,-1.01,-3.32,3.26,3.51,3.95,2.25,2.25,2.30
122.33,-1.04,-3.28,-1.04,-3.28,3.23,3.50,3.95,2.19,2.19,2.24
123.55,-1.08,-3.26,-1.08,-3.22,3.23,3.49,3.96,2.15,2.15,2.18
124.79,-1.12,-3.13,-1.12,-3.16,3.25,3.48,3.96,2.12,2.12,2.00
126.03,-1.17,-3.13,-1.17,-3.15,3.29,3.47,3.95,2.12,2.12,1.96
127.29,-1.21,-3.20,-1.21,-3.21,3.33,3.46,3.94,2.12,2.12,1.99
128.57,-1.25,-3.36,-1.25,-3.38,3.38,3.45,3.92,2.13,2.13,2.12
129.85,-1.28,-3.53,-1.28,-3.52,3.42,3.44,3.89,2.14,2.14,2.24
131.15,-1.32,-3.66,-1.32,-3.60,3.45,3.43,3.87,2.14,2.14,2.34
132.46,-1.36,-3.57,-1.36,-3.58,3.46,3.42,3.83,2.10,2.10,2.21
133.79,-1.40,-3.48,-1.40,-3.50,3.44,3.40,3.80,2.04,2.04,2.08
135.12,-1.44,-3.39,-1.44,-3.39,3.39,3.39,3.75,1.94,1.94,1.95
136.48,-1.49,-3.30,-1.49,-3.29,3.32,3.38,3.71,1.83,1.83,1.81
137.84,-1.53,-3.20,-1.53,-3.20,3.25,3.36,3.66,1.72,1.72,1.67
139.22,-1.57,-3.12,-1.57,-3.12,3.20,3.35,3.61,1.63,1.63,1.55
140.61,-1.61,-3.09,-1.61,-3.09,3.19,3.34,3.55,1.58,1.58,1.48
142.02,-1.65,-3.11,-1.65,-3.12,3.20,3.32,3.49,1.55,1.55,1.46
143.44,-1.69,-3.19,-1.68,-3.22,3.23,3.31,3.43,1.55,1.55,1.50
144.87,-1.72,-3.37,-1.72,-3.32,3.28,3.30,3.37,1.56,1.56,1.65
146.32,-1.76,-3.41,-1.76,-3.41,3.33,3.29,3.31,1.57,1.57,1.66
147.78,-1.79,-3.45,-1.79,-3.46,3.38,3.27,3.25,1.59,1.59,1.66
149.26,-1.83,-3.48,-1.83,-3.46,3.43,3.26,3.18,1.59,1.59,1.65
150.75,-1.87,-3.44,-1.87,-3.45,3.46,3.25,3.12,1.59,1.59,1.57
152.26,-1.91,-3.43,-1.91,-3.43,3.48,3.24,3.05,1.56,1.56,1.52
153.78,-1.95,-3.42,-1.95,-3.43,3.48,3.23,2.99,1.53,1.53,1.47
155.32,-1.99,-3.45,-1.99,-3.46,3.48,3.22,2.92,1.48,1.48,1.46
156.88,-2.03,-3.49,-2.03,-3.48,3.47,3.21,2.86,1.43,1.43,1.46
158.44,-2.07,-3.51,-2.07,-3.49,3.46,3.20,2.80,1.39,1.39,1.44
160.03,-2.10,-3.46,-2.10,-3.48,3.45,3.19,2.73,1.35,1.35,1.36
161.63,-2.14,-3.44,-2.14,-3.44,3.44,3.18,2.67,1.30,1.30,1.30
163.24,-2.17,-3.42,-2.17,-3.41,3.43,3.17,2.61,1.25,1.25,1.25
164.88,-2.21,-3.37,-2.21,-3.38,3.41,3.16,2.56,1.20,1.20,1.17
166.53,-2.25,-3.35,-2.25,-3.35,3.38,3.14,2.50,1.14,1.14,1.11
168.19,-2.28,-3.33,-2.28,-3.33,3.34,3.13,2.45,1.06,1.06,1.05
169.87,-2.32,-3.28,-2.31,-3.31,3.29,3.12,2.39,0.98,0.98,0.97
171.57,-2.34,-3.30,-2.34,-3.29,3.23,3.10,2.34,0.89,0.89,0.96
173.29,-2.37,-3.24,-2.37,-3.23,3.16,3.09,2.29,0.79,0.79,0.87
175.02,-2.39,-3.14,-2.39,-3.13,3.08,3.07,2.24,0.69,0.69,0.76
176.77,-2.40,-2.99,-2.40,-3.00,3.00,3.05,2.20,0.60,0.60,0.58
178.54,-2.42,-2.88,-2.42,-2.88,2.93,3.03,2.15,0.51,0.51,0.46
180.32,-2.44,-2.79,-2.44,-2.79,2.86,3.00,2.11,0.43,0.43,0.35
182.13,-2.46,-2.74,-2.46,-2.75,2.82,2.97,2.07,0.36,0.36,0.29
183.95,-2.48,-2.74,-2.48,-2.74,2.79,2.94,2.03,0.31,0.31,0.26
185.79,-2.50,-2.76,-2.50,-2.75,2.77,2.91,1.99,0.27,0.27,0.26
187.65,-2.52,-2.78,-2.52,-2.78,2.76,2.87,1.95,0.24,0.25,0.26
189.52,-2.53,-2.79,-2.53,-2.79,2.75,2.83,1.92,0.22,0.22,0.26
191.42,-2.55,-2.79,-2.55,-2.79,2.72,2.79,1.88,0.18,0.18,0.24
193.33,-2.56,-2.74,-2.56,-2.74,2.68,2.74,1.85,0.12,0.12,0.18
195.27,-2.57,-2.67,-2.58,-2.67,2.62,2.69,1.82,0.04,0.04,0.10
197.22,-2.58,-2.56,-2.58,-2.55,2.54,2.64,1.79,-0.04,-0.04,-0.02
199.19,-2.58,-2.43,-2.58,-2.42,2.46,2.58,1.77,-0.13,-0.13,-0.15
201.18,-2.57,-2.28,-2.57,-2.31,2.37,2.52,1.74,-0.20,-0.20,-0.29
203.19,-2.56,-2.22,-2.56,-2.23,2.29,2.46,1.71,-0.27,-0.27,-0.34
205.23,-2.54,-2.20,-2.54,-2.19,2.22,2.40,1.69,-0.32,-0.33,-0.34
207.28,-2.53,-2.19,-2.53,-2.17,2.16,2.33,1.67,-0.37,-0.37,-0.34
209.35,-2.52,-2.13,-2.52,-2.13,2.12,2.26,1.64,-0.40,-0.40,-0.39
211.44,-2.51,-2.07,-2.51,-2.09,2.09,2.19,1.62,-0.42,-0.42,-0.44
213.56,-2.50,-2.05,-2.50,-2.06,2.06,2.12,1.60,-0.44,-0.44,-0.44
215.69,-2.48,-2.04,-2.48,-2.03,2.02,2.05,1.58,-0.47,-0.47,-0.44
217.85,-2.47,-2.00,-2.47,-1.99,1.96,1.98,1.56,-0.51,-0.51,-0.47
220.03,-2.46,-1.91,-2.46,-1.93,1.90,1.90,1.54,-0.56,-0.56,-0.54
222.23,-2.44,-1.85,-2.44,-1.85,1.82,1.83,1.51,-0.62,-0.62,-0.60
224.45,-2.43,-1.77,-2.43,-1.77,1.75,1.76,1.49,-0.68,-0.68,-0.66
226.70,-2.42,-1.69,-2.43,-1.67,1.68,1.68,1.47,-0.75,-0.75,-0.73
228.96,-2.43,-1.55,-2.43,-1.56,1.61,1.61,1.45,-0.81,-0.81,-0.87
231.25,-2.43,-1.46,-2.43,-1.48,1.55,1.54,1.43,-0.88,-0.88,-0.97
233.57,-2.44,-1.41,-2.44,-1.45,1.49,1.46,1.41,-0.95,-0.95,-1.03
235.90,-2.45,-1.47,-2.45,-1.45,1.44,1.39,1.38,-1.01,-1.01,-0.98
238.26,-2.45,-1.47,-2.45,-1.45,1.39,1.32,1.36,-1.06,-1.06,-0.98
240.64,-2.46,-1.40,-2.46,-1.41,1.34,1.25,1.33,-1.12,-1.12,-1.06
243.05,-2.46,-1.34,-2.46,-1.32,1.29,1.18,1.31,-1.17,-1.17,-1.12
245.48,-2.45,-1.21,-2.45,-1.22,1.24,1.11,1.28,-1.22,-1.22,-1.24
247.93,-2.45,-1.11,-2.45,-1.15,1.17,1.04,1.25,-1.28,-1.28,-1.34
250.41,-2.45,-1.10,-2.44,-1.09,1.10,0.98,1.22,-1.34,-1.34,-1.34
252.92,-2.44,-1.05,-2.44,-1.03,1.03,0.91,1.19,-1.40,-1.40,-1.39
255.45,-2.43,-0.97,-2.43,-0.97,0.97,0.85,1.16,-1.46,-1.46,-1.46
258.00,-2.42,-0.88,-2.42,-0.91,0.91,0.79,1.12,-1.51,-1.51,-1.54
260.58,-2.41,-0.87,-2.41,-0.86,0.87,0.72,1.09,-1.55,-1.55,-1.54
263.19,-2.41,-0.84,-2.41,-0.82,0.83,0.66,1.05,-1.58,-1.58,-1.57
265.82,-2.40,-0.77,-2.40,-0.79,0.79,0.60,1.02,-1.62,-1.62,-1.64
268.48,-2.40,-0.75,-2.40,-0.74,0.75,0.54,0.98,-1.65,-1.65,-1.64
271.16,-2.39,-0.72,-2.39,-0.70,0.71,0.49,0.94,-1.68,-1.68,-1.67
273.87,-2.38,-0.64,-2.38,-0.67,0.66,0.43,0.90,-1.71,-1.71,-1.74
276.61,-2.37,-0.63,-2.37,-0.62,0.61,0.38,0.85,-1.76,-1.76,-1.74
279.38,-2.36,-0.59,-2.36,-0.57,0.55,0.32,0.81,-1.81,-1.81,-1.78
282.17,-2.36,-0.52,-2.36,-0.52,0.50,0.27,0.77,-1.87,-1.87,-1.85
284.99,-2.36,-0.44,-2.36,-0.45,0.44,0.22,0.72,-1.92,-1.92,-1.92
287.84,-2.35,-0.37,-2.35,-0.36,0.38,0.16,0.68,-1.97,-1.97,-1.99
290.72,-2.35,-0.29,-2.35,-0.28,0.33,0.11,0.63,-2.02,-2.02,-2.06
293.63,-2.34,-0.21,-2.34,-0.23,0.27,0.06,0.58,-2.07,-2.07,-2.13
296.57,-2.33,-0.19,-2.33,-0.20,0.20,0.01,0.54,-2.13,-2.13,-2.14
299.53,-2.32,-0.18,-2.32,-0.17,0.14,-0.03,0.49,-2.18,-2.18,-2.14
302.53,-2.31,-0.16,-2.31,-0.12,0.06,-0.08,0.44,-2.24,-2.24,-2.14
305.55,-2.29,-0.02,-2.29,-0.04,-0.01,-0.13,0.39,-2.30,-2.30,-2.27
308.61,-2.28,0.09,-2.28,0.07,-0.08,-0.17,0.34,-2.36,-2.36,-2.37
311.69,-2.27,0.16,-2.27,0.17,-0.15,-0.22,0.29,-2.42,-2.42,-2.44
314.81,-2.27,0.24,-2.27,0.26,-0.20,-0.26,0.24,-2.47,-2.47,-2.51
317.96,-2.26,0.32,-2.26,0.31,-0.25,-0.31,0.19,-2.51,-2.51,-2.58
321.14,-2.26,0.38,-2.26,0.34,-0.29,-0.35,0.14,-2.54,-2.54,-2.64
324.35,-2.25,0.31,-2.25,0.33,-0.32,-0.39,0.09,-2.56,-2.56,-2.56
327.59,-2.23,0.31,-2.23,0.32,-0.35,-0.43,0.04,-2.58,-2.58,-2.54
330.87,-2.22,0.32,-2.22,0.31,-0.38,-0.47,-0.01,-2.60,-2.60,-2.54
334.18,-2.20,0.34,-2.20,0.34,-0.42,-0.52,-0.06,-2.62,-2.62,-2.54
337.52,-2.19,0.40,-2.19,0.41,-0.46,-0.56,-0.12,-2.65,-2.65,-2.59
340.90,-2.18,0.50,-2.18,0.51,-0.51,-0.60,-0.17,-2.69,-2.69,-2.68
344.30,-2.18,0.64,-2.18,0.63,-0.57,-0.63,-0.22,-2.74,-2.74,-2.81
347.75,-2.17,0.73,-2.17,0.70,-0.64,-0.67,-0.27,-2.81,-2.81,-2.90
351.23,-2.16,0.75,-2.16,0.73,-0.71,-0.71,-0.33,-2.87,-2.87,-2.92
354.74,-2.15,0.69,-2.15,0.74,-0.77,-0.75,-0.38,-2.92,-2.92,-2.85
358.28,-2.14,0.77,-2.14,0.78,-0.81,-0.79,-0.43,-2.95,-2.95,-2.91
361.87,-2.12,0.86,-2.12,0.85,-0.85,-0.82,-0.49,-2.97,-2.97,-2.98
365.49,-2.11,0.94,-2.11,0.92,-0.89,-0.86,-0.54,-2.99,-2.99,-3.04
369.14,-2.09,0.95,-2.09,0.94,-0.92,-0.90,-0.60,-3.02,-3.02,-3.04
372.83,-2.09,0.96,-2.09,0.96,-0.97,-0.93,-0.65,-3.06,-3.06,-3.04
376.56,-2.08,0.97,-2.08,0.99,-1.03,-0.97,-0.71,-3.11,-3.11,-3.05
380.33,-2.07,1.04,-2.07,1.04,-1.08,-1.00,-0.76,-3.15,-3.15,-3.11
384.13,-2.07,1.12,-2.07,1.12,-1.13,-1.04,-0.82,-3.20,-3.20,-3.18
387.97,-2.06,1.20,-2.06,1.20,-1.18,-1.07,-0.87,-3.24,-3.24,-3.26
391.85,-2.05,1.27,-2.05,1.26,-1.22,-1.11,-0.93,-3.27,-3.27,-3.32
395.77,-2.05,1.30,-2.05,1.29,-1.26,-1.14,-0.98,-3.30,-3.30,-3.34
399.73,-2.04,1.30,-2.04,1.31,-1.29,-1.18,-1.04,-3.33,-3.33,-3.34
403.72,-2.03,1.31,-2.03,1.31,-1.32,-1.21,-1.10,-3.34,-3.34,-3.34
407.76,-2.02,1.32,-2.02,1.32,-1.34,-1.24,-1.15,-3.36,-3.35,-3.34
411.84,-2.01,1.33,-2.01,1.33,-1.35,-1.28,-1.21,-3.36,-3.36,-3.34
415.96,-2.00,1.35,-2.00,1.34,-1.36,-1.31,-1.26,-3.36,-3.36,-3.34
420.12,-1.98,1.36,-1.99,1.37,-1.38,-1.34,-1.32,-3.36,-3.36,-3.34
424.32,-1.98,1.40,-1.98,1.41,-1.40,-1.37,-1.37,-3.38,-3.38,-3.38
428.56,-1.97,1.47,-1.97,1.45,-1.43,-1.41,-1.43,-3.40,-3.40,-3.44
432.85,-1.96,1.48,-1.96,1.47,-1.47,-1.44,-1.48,-3.43,-3.43,-3.44
437.18,-1.95,1.49,-1.95,1.49,-1.51,-1.47,-1.53,-3.46,-3.46,-3.44
441.55,-1.95,1.50,-1.95,1.52,-1.55,-1.50,-1.58,-3.50,-3.50,-3.45
445.96,-1.94,1.58,-1.94,1.58,-1.59,-1.53,-1.63,-3.53,-3.53,-3.52
450.42,-1.93,1.66,-1.93,1.65,-1.63,-1.56,-1.68,-3.56,-3.56,-3.59
454.93,-1.92,1.72,-1.92,1.70,-1.67,-1.59,-1.73,-3.59,-3.59,-3.64
459.48,-1.91,1.73,-1.91,1.73,-1.72,-1.62,-1.77,-3.63,-3.63,-3.64
464.07,-1.90,1.74,-1.90,1.75,-1.77,-1.65,-1.82,-3.67,-3.67,-3.64
468.71,-1.89,1.78,-1.89,1.79,-1.83,-1.68,-1.86,-3.72,-3.72,-3.67
473.40,-1.88,1.85,-1.88,1.85,-1.88,-1.72,-1.90,-3.76,-3.76,-3.73
478.13,-1.87,1.93,-1.87,1.93,-1.93,-1.74,-1.93,-3.80,-3.80,-3.80
482.91,-1.86,2.01,-1.86,2.01,-1.98,-1.77,-1.97,-3.84,-3.84,-3.87
487.74,-1.86,2.08,-1.86,2.06,-2.02,-1.80,-2.00,-3.88,-3.88,-3.94
492.62,-1.85,2.09,-1.85,2.09,-2.06,-1.83,-2.03,-3.91,-3.91,-3.94
497.55,-1.84,2.10,-1.84,2.10,-2.09,-1.86,-2.06,-3.93,-3.93,-3.94
502.52,-1.83,2.11,-1.83,2.11,-2.12,-1.89,-2.09,-3.95,-3.95,-3.94
507.55,-1.82,2.12,-1.82,2.12,-2.14,-1.92,-2.11,-3.96,-3.96,-3.94
512.62,-1.81,2.13,-1.81,2.13,-2.16,-1.95,-2.13,-3.97,-3.97,-3.94
517.75,-1.80,2.14,-1.80,2.14,-2.18,-1.98,-2.15,-3.98,-3.98,-3.94
