frequency,raw,error,smoothed,error_smoothed,equalization,parametric_eq,fixed_band_eq,equalized_raw,equalized_smoothed,target
20.00,7.42,1.86,7.42,1.85,-1.83,-1.67,-0.64,5.59,5.59,5.57
20.20,7.44,1.83,7.44,1.83,-1.83,-1.74,-0.66,5.61,5.61,5.62
20.40,7.46,1.79,7.46,1.81,-1.83,-1.81,-0.68,5.63,5.63,5.67
20.61,7.48,1.81,7.48,1.81,-1.83,-1.86,-0.70,5.65,5.65,5.67
20.81,7.49,1.83,7.49,1.83,-1.82,-1.90,-0.72,5.67,5.67,5.67
21.02,7.51,1.84,7.51,1.84,-1.82,-1.92,-0.74,5.69,5.69,5.67
21.23,7.52,1.85,7.52,1.83,-1.81,-1.94,-0.76,5.70,5.70,5.67
21.44,7.53,1.81,7.53,1.81,-1.81,-1.92,-0.79,5.72,5.72,5.73
21.66,7.55,1.78,7.55,1.80,-1.80,-1.91,-0.81,5.74,5.74,5.77
21.87,7.56,1.79,7.56,1.79,-1.80,-1.88,-0.83,5.77,5.77,5.77
22.09,7.57,1.81,7.57,1.79,-1.79,-1.85,-0.86,5.79,5.79,5.77
22.31,7.59,1.78,7.59,1.78,-1.78,-1.81,-0.88,5.81,5.81,5.80
22.54,7.60,1.74,7.60,1.76,-1.77,-1.77,-0.91,5.83,5.83,5.87
22.76,7.62,1.75,7.62,1.75,-1.77,-1.73,-0.93,5.85,5.85,5.87
22.99,7.63,1.76,7.63,1.76,-1.76,-1.69,-0.96,5.87,5.87,5.87
23.22,7.64,1.77,7.64,1.77,-1.75,-1.65,-0.99,5.89,5.88,5.87
23.45,7.65,1.78,7.65,1.76,-1.74,-1.62,-1.02,5.91,5.90,5.87
23.69,7.66,1.73,7.66,1.74,-1.73,-1.59,-1.05,5.93,5.93,5.93
23.92,7.66,1.70,7.66,1.71,-1.71,-1.57,-1.08,5.95,5.95,5.97
24.16,7.67,1.70,7.67,1.68,-1.69,-1.55,-1.11,5.98,5.98,5.97
24.40,7.68,1.64,7.68,1.66,-1.66,-1.54,-1.14,6.02,6.02,6.03
24.65,7.68,1.62,7.68,1.64,-1.62,-1.53,-1.17,6.06,6.06,6.07
24.89,7.69,1.63,7.69,1.60,-1.58,-1.52,-1.20,6.11,6.11,6.07
25.14,7.70,1.57,7.70,1.56,-1.55,-1.52,-1.23,6.15,6.15,6.13
25.39,7.71,1.51,7.71,1.52,-1.53,-1.52,-1.26,6.18,6.19,6.20
25.65,7.72,1.45,7.72,1.47,-1.50,-1.53,-1.29,6.22,6.22,6.27
25.91,7.73,1.46,7.73,1.46,-1.48,-1.54,-1.32,6.25,6.25,6.27
26.16,7.74,1.47,7.74,1.47,-1.47,-1.55,-1.35,6.27,6.27,6.27
26.43,7.75,1.48,7.75,1.48,-1.47,-1.56,-1.39,6.28,6.28,6.27
26.69,7.76,1.49,7.76,1.49,-1.48,-1.57,-1.42,6.28,6.28,6.27
26.96,7.77,1.50,7.77,1.50,-1.50,-1.58,-1.45,6.26,6.26,6.27
27.23,7.78,1.51,7.78,1.51,-1.53,-1.58,-1.48,6.24,6.24,6.27
27.50,7.78,1.52,7.78,1.54,-1.56,-1.59,-1.51,6.22,6.22,6.27
27.77,7.79,1.58,7.79,1.58,-1.59,-1.60,-1.53,6.21,6.21,6.21
28.05,7.80,1.64,7.80,1.62,-1.61,-1.60,-1.56,6.19,6.19,6.17
28.33,7.81,1.64,7.81,1.65,-1.62,-1.60,-1.59,6.19,6.19,6.17
28.62,7.82,1.65,7.82,1.64,-1.62,-1.60,-1.61,6.19,6.19,6.17
28.90,7.82,1.63,7.82,1.62,-1.61,-1.60,-1.63,6.21,6.21,6.19
29.19,7.82,1.56,7.82,1.59,-1.58,-1.59,-1.65,6.25,6.25,6.26
29.48,7.82,1.56,7.82,1.55,-1.53,-1.59,-1.67,6.30,6.30,6.27
29.78,7.82,1.51,7.82,1.49,-1.46,-1.57,-1.69,6.36,6.36,6.31
30.08,7.82,1.42,7.82,1.41,-1.40,-1.56,-1.70,6.42,6.42,6.40
30.38,7.81,1.30,7.81,1.32,-1.33,-1.54,-1.72,6.48,6.48,6.52
30.68,7.81,1.24,7.81,1.24,-1.28,-1.53,-1.73,6.53,6.53,6.57
30.99,7.80,1.22,7.81,1.19,-1.23,-1.51,-1.74,6.57,6.57,6.58
31.30,7.80,1.16,7.80,1.19,-1.21,-1.49,-1.74,6.60,6.60,6.65
31.61,7.80,1.19,7.80,1.19,-1.20,-1.47,-1.75,6.60,6.60,6.61
31.93,7.80,1.23,7.80,1.20,-1.22,-1.44,-1.75,6.58,6.58,6.57
32.24,7.79,1.23,7.79,1.24,-1.25,-1.42,-1.75,6.54,6.54,6.57
32.57,7.79,1.28,7.79,1.29,-1.30,-1.40,-1.75,6.49,6.49,6.51
32.89,7.79,1.35,7.79,1.35,-1.35,-1.38,-1.74,6.44,6.44,6.44
33.22,7.79,1.42,7.79,1.42,-1.40,-1.36,-1.73,6.38,6.38,6.36
33.55,7.79,1.49,7.79,1.48,-1.45,-1.34,-1.73,6.34,6.34,6.30
33.89,7.78,1.52,7.78,1.51,-1.48,-1.33,-1.72,6.30,6.30,6.27
34.23,7.78,1.52,7.78,1.52,-1.51,-1.31,-1.71,6.27,6.27,6.27
34.57,7.78,1.52,7.78,1.52,-1.52,-1.29,-1.69,6.26,6.26,6.27
34.92,7.78,1.51,7.78,1.51,-1.53,-1.28,-1.68,6.25,6.25,6.27
35.27,7.77,1.51,7.77,1.51,-1.52,-1.27,-1.66,6.26,6.26,6.27
35.62,7.77,1.50,7.77,1.51,-1.50,-1.26,-1.65,6.27,6.27,6.27
35.97,7.76,1.49,7.76,1.49,-1.48,-1.25,-1.63,6.28,6.28,6.27
36.33,7.75,1.46,7.75,1.45,-1.45,-1.24,-1.61,6.30,6.30,6.29
36.70,7.75,1.40,7.75,1.41,-1.42,-1.23,-1.59,6.33,6.33,6.35
37.06,7.74,1.37,7.74,1.38,-1.38,-1.22,-1.58,6.35,6.35,6.37
37.43,7.73,1.36,7.73,1.36,-1.35,-1.22,-1.56,6.38,6.38,6.37
37.81,7.72,1.35,7.72,1.33,-1.31,-1.22,-1.54,6.41,6.41,6.37
38.19,7.71,1.28,7.71,1.29,-1.28,-1.21,-1.52,6.43,6.43,6.42
38.57,7.70,1.23,7.70,1.24,-1.26,-1.21,-1.50,6.44,6.44,6.47
38.95,7.69,1.22,7.69,1.21,-1.25,-1.21,-1.49,6.44,6.44,6.47
39.34,7.68,1.21,7.68,1.22,-1.26,-1.22,-1.47,6.41,6.41,6.47
39.74,7.67,1.24,7.67,1.25,-1.29,-1.22,-1.45,6.38,6.38,6.43
40.14,7.66,1.30,7.66,1.29,-1.32,-1.22,-1.44,6.34,6.34,6.36
40.54,7.65,1.35,7.65,1.36,-1.36,-1.23,-1.42,6.29,6.29,6.29
40.94,7.63,1.41,7.63,1.41,-1.39,-1.23,-1.41,6.25,6.25,6.23
41.35,7.62,1.45,7.62,1.44,-1.40,-1.24,-1.39,6.22,6.22,6.17
41.76,7.60,1.44,7.60,1.45,-1.38,-1.25,-1.38,6.22,6.22,6.17
42.18,7.59,1.42,7.59,1.42,-1.35,-1.25,-1.37,6.24,6.24,6.17
42.60,7.57,1.37,7.57,1.34,-1.29,-1.26,-1.36,6.28,6.28,6.20
43.03,7.56,1.21,7.56,1.24,-1.22,-1.27,-1.35,6.33,6.33,6.34
43.46,7.54,1.12,7.54,1.12,-1.16,-1.28,-1.34,6.38,6.38,6.43
43.90,7.53,1.04,7.53,1.03,-1.11,-1.29,-1.33,6.42,6.42,6.49
44.33,7.52,0.96,7.52,1.00,-1.07,-1.30,-1.32,6.45,6.45,6.56
44.78,7.51,1.01,7.51,1.01,-1.06,-1.31,-1.32,6.45,6.45,6.50
45.23,7.50,1.07,7.50,1.05,-1.07,-1.32,-1.31,6.43,6.43,6.43
45.68,7.49,1.12,7.49,1.13,-1.11,-1.33,-1.31,6.39,6.39,6.37
46.13,7.48,1.19,7.48,1.19,-1.15,-1.34,-1.30,6.33,6.33,6.29
46.60,7.47,1.25,7.47,1.24,-1.20,-1.36,-1.30,6.27,6.27,6.22
47.06,7.46,1.29,7.46,1.27,-1.24,-1.37,-1.30,6.21,6.21,6.17
47.53,7.44,1.27,7.44,1.29,-1.28,-1.38,-1.30,6.16,6.16,6.17
48.01,7.42,1.30,7.42,1.30,-1.31,-1.39,-1.30,6.11,6.11,6.12
48.49,7.40,1.33,7.40,1.31,-1.33,-1.40,-1.30,6.07,6.07,6.07
48.97,7.38,1.31,7.38,1.33,-1.34,-1.41,-1.31,6.04,6.04,6.07
49.46,7.36,1.35,7.36,1.35,-1.35,-1.42,-1.31,6.01,6.01,6.01
49.96,7.35,1.38,7.35,1.36,-1.36,-1.43,-1.31,5.99,5.99,5.97
50.46,7.33,1.36,7.33,1.39,-1.37,-1.44,-1.32,5.96,5.96,5.97
50.96,7.31,1.40,7.31,1.40,-1.38,-1.45,-1.32,5.93,5.93,5.91
51.47,7.29,1.42,7.29,1.40,-1.40,-1.46,-1.33,5.89,5.89,5.87
51.99,7.26,1.40,7.26,1.42,-1.43,-1.47,-1.34,5.84,5.84,5.87
52.51,7.24,1.44,7.24,1.44,-1.46,-1.48,-1.34,5.78,5.78,5.80
53.03,7.22,1.48,7.22,1.47,-1.51,-1.49,-1.35,5.70,5.70,5.73
53.56,7.19,1.54,7.19,1.53,-1.57,-1.49,-1.36,5.63,5.63,5.66
54.10,7.17,1.58,7.17,1.60,-1.62,-1.50,-1.36,5.55,5.55,5.59
54.64,7.15,1.67,7.15,1.68,-1.68,-1.51,-1.37,5.47,5.47,5.48
55.18,7.12,1.77,7.12,1.75,-1.72,-1.51,-1.38,5.41,5.41,5.36
55.74,7.10,1.82,7.10,1.81,-1.74,-1.51,-1.39,5.36,5.36,5.29
56.29,7.08,1.81,7.08,1.81,-1.75,-1.52,-1.40,5.33,5.33,5.27
56.86,7.06,1.77,7.06,1.76,-1.73,-1.52,-1.40,5.33,5.33,5.29
57.42,7.04,1.68,7.04,1.71,-1.70,-1.52,-1.41,5.34,5.34,5.36
58.00,7.02,1.65,7.02,1.65,-1.65,-1.52,-1.42,5.37,5.37,5.37
58.58,6.99,1.61,6.99,1.58,-1.61,-1.53,-1.42,5.39,5.39,5.39
59.16,6.97,1.51,6.97,1.53,-1.57,-1.53,-1.43,5.40,5.40,5.46
59.76,6.95,1.48,6.95,1.49,-1.55,-1.53,-1.43,5.40,5.40,5.47
60.35,6.92,1.48,6.92,1.49,-1.54,-1.52,-1.43,5.38,5.38,5.44
60.96,6.90,1.53,6.90,1.53,-1.55,-1.52,-1.44,5.34,5.34,5.37
61.57,6.87,1.58,6.87,1.58,-1.57,-1.52,-1.44,5.30,5.30,5.30
62.18,6.85,1.63,6.85,1.62,-1.59,-1.52,-1.44,5.26,5.26,5.22
62.80,6.82,1.66,6.82,1.64,-1.60,-1.52,-1.44,5.23,5.23,5.17
63.43,6.80,1.63,6.80,1.64,-1.60,-1.51,-1.44,5.20,5.20,5.17
64.07,6.77,1.61,6.77,1.61,-1.58,-1.51,-1.44,5.19,5.19,5.17
64.71,6.75,1.57,6.75,1.55,-1.55,-1.51,-1.43,5.20,5.20,5.18
65.35,6.72,1.47,6.72,1.49,-1.49,-1.50,-1.43,5.23,5.23,5.25
66.01,6.69,1.42,6.69,1.42,-1.42,-1.50,-1.43,5.27,5.27,5.27
66.67,6.65,1.37,6.65,1.35,-1.35,-1.50,-1.42,5.31,5.31,5.28
67.33,6.62,1.26,6.62,1.29,-1.27,-1.49,-1.42,5.35,5.35,5.36
68.01,6.59,1.22,6.59,1.21,-1.21,-1.49,-1.41,5.38,5.38,5.37
68.69,6.56,1.16,6.56,1.14,-1.16,-1.48,-1.40,5.40,5.40,5.40
69.37,6.53,1.07,6.53,1.11,-1.13,-1.48,-1.40,5.40,5.40,5.46
70.07,6.50,1.10,6.50,1.10,-1.13,-1.48,-1.39,5.37,5.37,5.40
70.77,6.47,1.14,6.47,1.12,-1.16,-1.47,-1.38,5.31,5.31,5.33
71.48,6.44,1.17,6.44,1.17,-1.21,-1.47,-1.37,5.23,5.23,5.27
72.19,6.41,1.21,6.41,1.25,-1.27,-1.46,-1.36,5.14,5.14,5.20
72.91,6.38,1.34,6.38,1.35,-1.34,-1.46,-1.36,5.04,5.04,5.04
73.64,6.35,1.49,6.35,1.45,-1.41,-1.46,-1.35,4.94,4.94,4.85
74.38,6.31,1.53,6.31,1.53,-1.46,-1.46,-1.34,4.86,4.86,4.79
75.12,6.28,1.56,6.28,1.57,-1.49,-1.45,-1.33,4.78,4.78,4.72
75.87,6.24,1.58,6.24,1.56,-1.52,-1.45,-1.33,4.72,4.72,4.67
76.63,6.21,1.54,6.21,1.54,-1.54,-1.45,-1.32,4.67,4.67,4.67
77.40,6.17,1.51,6.18,1.51,-1.56,-1.45,-1.32,4.61,4.61,4.67
78.17,6.14,1.50,6.14,1.51,-1.58,-1.44,-1.31,4.56,4.56,4.64
78.95,6.11,1.53,6.11,1.54,-1.62,-1.44,-1.31,4.49,4.49,4.58
79.74,6.07,1.62,6.07,1.62,-1.66,-1.44,-1.30,4.41,4.41,4.45
80.54,6.03,1.72,6.03,1.72,-1.72,-1.44,-1.30,4.31,4.31,4.31
81.35,5.99,1.81,5.99,1.80,-1.77,-1.44,-1.30,4.22,4.22,4.17
82.16,5.95,1.85,5.95,1.85,-1.80,-1.44,-1.30,4.14,4.14,4.10
82.98,5.91,1.87,5.91,1.89,-1.82,-1.44,-1.30,4.09,4.09,4.03
83.81,5.87,1.90,5.87,1.89,-1.81,-1.44,-1.30,4.06,4.06,3.97
84.65,5.83,1.87,5.83,1.84,-1.78,-1.44,-1.30,4.05,4.05,3.97
85.50,5.80,1.75,5.80,1.74,-1.75,-1.44,-1.30,4.04,4.04,4.05
86.35,5.77,1.60,5.77,1.64,-1.72,-1.44,-1.31,4.04,4.04,4.17
87.22,5.73,1.56,5.73,1.57,-1.69,-1.44,-1.31,4.04,4.04,4.17
88.09,5.69,1.57,5.69,1.58,-1.66,-1.45,-1.32,4.03,4.03,4.12
88.97,5.65,1.62,5.65,1.64,-1.63,-1.45,-1.32,4.02,4.02,4.02
89.86,5.60,1.71,5.60,1.68,-1.60,-1.45,-1.33,4.00,4.00,3.89
90.76,5.55,1.69,5.55,1.68,-1.57,-1.45,-1.34,3.98,3.98,3.87
91.66,5.51,1.62,5.51,1.61,-1.55,-1.46,-1.35,3.96,3.96,3.89
92.58,5.47,1.51,5.47,1.51,-1.53,-1.46,-1.36,3.94,3.94,3.96
93.51,5.43,1.40,5.43,1.42,-1.49,-1.46,-1.37,3.94,3.94,4.03
94.44,5.39,1.36,5.39,1.38,-1.44,-1.46,-1.38,3.95,3.95,4.03
95.39,5.35,1.38,5.35,1.38,-1.38,-1.47,-1.40,3.97,3.97,3.97
96.34,5.30,1.40,5.30,1.37,-1.33,-1.47,-1.41,3.98,3.98,3.90
97.30,5.26,1.35,5.26,1.33,-1.29,-1.48,-1.43,3.97,3.97,3.90
98.28,5.21,1.24,5.21,1.27,-1.26,-1.48,-1.44,3.94,3.94,3.97
99.26,5.16,1.19,5.16,1.21,-1.25,-1.48,-1.46,3.91,3.91,3.97
100.25,5.12,1.20,5.12,1.19,-1.25,-1.49,-1.47,3.87,3.87,3.92
101.25,5.07,1.22,5.07,1.21,-1.23,-1.49,-1.49,3.84,3.84,3.85
102.27,5.03,1.23,5.03,1.24,-1.22,-1.50,-1.51,3.81,3.81,3.80
103.29,4.99,1.25,4.99,1.26,-1.21,-1.50,-1.53,3.78,3.78,3.74
104.32,4.95,1.28,4.95,1.26,-1.21,-1.51,-1.55,3.74,3.74,3.67
105.37,4.91,1.24,4.91,1.24,-1.21,-1.51,-1.57,3.70,3.70,3.67
106.42,4.87,1.20,4.87,1.21,-1.23,-1.52,-1.58,3.64,3.64,3.67
107.48,4.83,1.18,4.82,1.19,-1.25,-1.52,-1.60,3.57,3.57,3.64
108.56,4.78,1.19,4.78,1.22,-1.27,-1.53,-1.62,3.50,3.50,3.59
109.64,4.72,1.29,4.72,1.26,-1.30,-1.53,-1.64,3.43,3.43,3.44
110.74,4.67,1.34,4.67,1.33,-1.33,-1.54,-1.66,3.35,3.35,3.33
111.85,4.62,1.34,4.62,1.40,-1.35,-1.54,-1.67,3.26,3.26,3.27
112.97,4.56,1.49,4.56,1.43,-1.38,-1.55,-1.69,3.19,3.19,3.07
114.10,4.51,1.45,4.51,1.43,-1.39,-1.55,-1.71,3.12,3.12,3.07
115.24,4.46,1.39,4.46,1.41,-1.39,-1.56,-1.72,3.07,3.07,3.07
116.39,4.41,1.34,4.41,1.36,-1.37,-1.56,-1.73,3.04,3.04,3.07
117.55,4.36,1.35,4.36,1.34,-1.34,-1.57,-1.74,3.02,3.02,3.01
118.73,4.31,1.34,4.31,1.32,-1.31,-1.57,-1.76,3.00,3.00,2.97
119.92,4.26,1.29,4.26,1.29,-1.28,-1.58,-1.76,2.98,2.97,2.97
121.12,4.21,1.25,4.21,1.24,-1.28,-1.58,-1.77,2.93,2.93,2.97
122.33,4.17,1.22,4.17,1.24,-1.30,-1.59,-1.78,2.87,2.87,2.95
123.55,4.14,1.25,4.14,1.29,-1.35,-1.59,-1.78,2.79,2.79,2.89
124.79,4.11,1.41,4.12,1.37,-1.41,-1.60,-1.78,2.71,2.71,2.71
126.03,4.10,1.49,4.10,1.48,-1.48,-1.60,-1.78,2.62,2.62,2.61
127.29,4.09,1.55,4.09,1.58,-1.56,-1.61,-1.78,2.54,2.54,2.54
128.57,4.08,1.67,4.08,1.67,-1.63,-1.61,-1.78,2.46,2.46,2.41
129.85,4.08,1.75,4.08,1.74,-1.69,-1.61,-1.77,2.39,2.39,2.32
131.15,4.07,1.80,4.07,1.79,-1.73,-1.62,-1.77,2.34,2.33,2.27
132.46,4.05,1.78,4.05,1.79,-1.76,-1.62,-1.76,2.29,2.29,2.27
133.79,4.03,1.76,4.03,1.76,-1.77,-1.63,-1.75,2.26,2.26,2.27
135.12,4.00,1.73,4.00,1.73,-1.77,-1.63,-1.74,2.23,2.23,2.27
136.48,3.97,1.70,3.97,1.73,-1.77,-1.63,-1.73,2.20,2.20,2.27
137.84,3.93,1.75,3.93,1.75,-1.77,-1.64,-1.71,2.16,2.16,2.18
139.22,3.89,1.82,3.89,1.78,-1.78,-1.64,-1.70,2.11,2.11,2.07
140.61,3.85,1.78,3.85,1.80,-1.80,-1.64,-1.68,2.05,2.05,2.07
142.02,3.80,1.79,3.81,1.80,-1.82,-1.65,-1.67,1.98,1.98,2.02
143.44,3.76,1.82,3.76,1.82,-1.84,-1.65,-1.65,1.92,1.92,1.94
144.87,3.71,1.84,3.71,1.87,-1.84,-1.65,-1.64,1.87,1.87,1.87
146.32,3.66,1.93,3.66,1.89,-1.83,-1.65,-1.62,1.83,1.83,1.73
147.78,3.61,1.91,3.61,1.88,-1.82,-1.65,-1.60,1.80,1.80,1.71
149.26,3.56,1.80,3.56,1.83,-1.80,-1.66,-1.59,1.76,1.77,1.77
150.75,3.51,1.75,3.51,1.74,-1.78,-1.66,-1.57,1.74,1.74,1.77
152.26,3.46,1.70,3.46,1.69,-1.75,-1.66,-1.55,1.71,1.71,1.77
153.78,3.41,1.64,3.41,1.69,-1.73,-1.66,-1.54,1.68,1.68,1.77
155.32,3.36,1.73,3.36,1.70,-1.71,-1.66,-1.52,1.65,1.65,1.63
156.88,3.31,1.74,3.31,1.72,-1.70,-1.66,-1.51,1.61,1.61,1.57
158.44,3.26,1.71,3.26,1.74,-1.71,-1.66,-1.49,1.55,1.55,1.54
160.03,3.21,1.74,3.21,1.73,-1.73,-1.66,-1.48,1.47,1.47,1.47
161.63,3.16,1.74,3.16,1.75,-1.77,-1.66,-1.47,1.39,1.39,1.41
163.24,3.11,1.76,3.11,1.80,-1.81,-1.66,-1.46,1.30,1.30,1.34
164.88,3.06,1.88,3.06,1.84,-1.85,-1.66,-1.45,1.21,1.21,1.18
166.53,3.00,1.89,3.00,1.87,-1.89,-1.65,-1.44,1.11,1.11,1.12
168.19,2.95,1.90,2.95,1.92,-1.92,-1.65,-1.43,1.03,1.03,1.06
169.87,2.90,1.93,2.90,1.96,-1.95,-1.65,-1.42,0.95,0.95,0.97
171.57,2.85,2.04,2.85,2.01,-1.97,-1.65,-1.41,0.88,0.88,0.81
173.29,2.80,2.04,2.80,2.02,-1.98,-1.65,-1.41,0.82,0.82,0.77
175.02,2.75,1.99,2.75,2.00,-1.97,-1.64,-1.40,0.78,0.78,0.77
176.77,2.70,1.94,2.70,1.94,-1.96,-1.64,-1.40,0.75,0.75,0.77
178.54,2.66,1.89,2.66,1.90,-1.93,-1.64,-1.40,0.73,0.73,0.77
180.32,2.61,1.86,2.61,1.88,-1.88,-1.63,-1.40,0.73,0.73,0.76
182.13,2.57,1.87,2.57,1.84,-1.83,-1.63,-1.40,0.74,0.74,0.70
183.95,2.52,1.81,2.52,1.80,-1.78,-1.62,-1.40,0.75,0.75,0.71
185.79,2.48,1.72,2.48,1.74,-1.73,-1.62,-1.40,0.75,0.75,0.77
187.65,2.44,1.67,2.44,1.67,-1.69,-1.61,-1.40,0.75,0.75,0.77
189.52,2.40,1.63,2.40,1.62,-1.65,-1.61,-1.41,0.75,0.75,0.77
191.42,2.36,1.59,2.36,1.59,-1.61,-1.60,-1.41,0.75,0.75,0.77
193.33,2.31,1.55,2.31,1.57,-1.58,-1.59,-1.42,0.74,0.74,0.77
195.27,2.27,1.57,2.27,1.56,-1.55,-1.59,-1.42,0.72,0.72,0.70
197.22,2.23,1.56,2.23,1.54,-1.54,-1.58,-1.43,0.69,0.69,0.67
199.19,2.19,1.52,2.19,1.52,-1.53,-1.57,-1.44,0.66,0.66,0.67
201.18,2.14,1.47,2.14,1.49,-1.51,-1.57,-1.45,0.63,0.63,0.67
203.19,2.09,1.47,2.09,1.48,-1.48,-1.56,-1.46,0.62,0.62,0.63
205.23,2.05,1.49,2.05,1.49,-1.44,-1.55,-1.47,0.61,0.61,0.56
207.28,2.00,1.51,2.00,1.48,-1.41,-1.54,-1.48,0.59,0.59,0.49
209.35,1.95,1.44,1.95,1.41,-1.39,-1.53,-1.49,0.57,0.57,0.51
211.44,1.90,1.32,1.90,1.32,-1.37,-1.52,-1.50,0.53,0.53,0.58
213.56,1.85,1.20,1.85,1.25,-1.36,-1.51,-1.51,0.50,0.50,0.65
215.69,1.81,1.25,1.81,1.27,-1.35,-1.50,-1.52,0.46,0.46,0.55
217.85,1.76,1.35,1.76,1.34,-1.34,-1.49,-1.53,0.42,0.42,0.41
220.03,1.71,1.45,1.71,1.40,-1.33,-1.48,-1.53,0.38,0.38,0.27
222.23,1.67,1.40,1.67,1.40,-1.33,-1.47,-1.54,0.34,0.34,0.27
224.45,1.63,1.36,1.63,1.37,-1.34,-1.46,-1.55,0.28,0.28,0.27
226.70,1.58,1.32,1.58,1.34,-1.36,-1.45,-1.56,0.22,0.22,0.27
228.96,1.54,1.34,1.54,1.33,-1.37,-1.44,-1.56,0.17,0.17,0.20
231.25,1.50,1.34,1.50,1.32,-1.37,-1.42,-1.57,0.14,0.14,0.17
233.57,1.46,1.30,1.46,1.32,-1.35,-1.41,-1.57,0.11,0.11,0.17
235.90,1.43,1.32,1.42,1.34,-1.32,-1.40,-1.57,0.10,0.10,0.10
238.26,1.38,1.36,1.38,1.35,-1.28,-1.39,-1.57,0.10,0.10,0.02
240.64,1.34,1.36,1.34,1.33,-1.25,-1.37,-1.57,0.10,0.10,-0.02
243.05,1.30,1.26,1.30,1.26,-1.21,-1.36,-1.56,0.10,0.10,0.04
245.48,1.26,1.14,1.26,1.15,-1.17,-1.35,-1.56,0.09,0.09,0.12
247.93,1.22,1.05,1.22,1.06,-1.14,-1.33,-1.55,0.08,0.08,0.17
250.41,1.17,1.01,1.17,1.01,-1.11,-1.32,-1.54,0.06,0.06,0.17
252.92,1.13,1.01,1.13,1.03,-1.09,-1.30,-1.53,0.04,0.04,0.12
255.45,1.09,1.05,1.09,1.08,-1.07,-1.29,-1.51,0.02,0.02,0.04
258.00,1.05,1.18,1.05,1.13,-1.06,-1.27,-1.50,-0.02,-0.02,-0.13
260.58,1.01,1.14,1.01,1.14,-1.06,-1.26,-1.48,-0.06,-0.06,-0.13
263.19,0.97,1.10,0.97,1.11,-1.07,-1.24,-1.46,-0.10,-0.10,-0.13
265.82,0.93,1.06,0.93,1.05,-1.06,-1.23,-1.44,-0.14,-0.14,-0.13
268.48,0.88,1.02,0.88,1.03,-1.05,-1.21,-1.41,-0.17,-0.17,-0.13
271.16,0.84,1.01,0.84,1.02,-1.04,-1.19,-1.39,-0.20,-0.20,-0.16
273.87,0.80,1.03,0.80,1.01,-1.03,-1.18,-1.36,-0.23,-0.23,-0.23
276.61,0.76,1.00,0.76,1.00,-1.02,-1.16,-1.33,-0.26,-0.26,-0.23
279.38,0.72,0.99,0.72,1.01,-1.02,-1.14,-1.30,-0.30,-0.30,-0.27
282.17,0.68,1.02,0.68,1.02,-1.02,-1.12,-1.27,-0.34,-0.34,-0.34
284.99,0.64,1.05,0.64,1.06,-1.03,-1.11,-1.24,-0.38,-0.38,-0.41
287.84,0.61,1.09,0.61,1.07,-1.03,-1.09,-1.20,-0.43,-0.43,-0.48
290.72,0.57,1.08,0.57,1.05,-1.04,-1.07,-1.17,-0.47,-0.47,-0.52
293.63,0.53,0.97,0.53,1.02,-1.04,-1.05,-1.14,-0.51,-0.51,-0.44
296.57,0.49,0.99,0.49,1.00,-1.03,-1.03,-1.10,-0.54,-0.54,-0.50
299.53,0.45,1.02,0.45,1.01,-1.02,-1.01,-1.07,-0.57,-0.57,-0.56
302.53,0.42,1.04,0.42,1.03,-1.00,-1.00,-1.03,-0.59,-0.59,-0.62
305.55,0.38,1.01,0.38,1.01,-0.98,-0.98,-0.99,-0.60,-0.60,-0.63
308.61,0.34,0.98,0.34,0.98,-0.96,-0.96,-0.96,-0.62,-0.61,-0.63
311.69,0.31,0.94,0.31,0.94,-0.94,-0.94,-0.92,-0.63,-0.63,-0.63
314.81,0.27,0.91,0.27,0.90,-0.91,-0.92,-0.89,-0.64,-0.64,-0.63
317.96,0.24,0.87,0.24,0.87,-0.89,-0.90,-0.85,-0.65,-0.65,-0.63
321.14,0.20,0.84,0.20,0.86,-0.87,-0.88,-0.81,-0.67,-0.67,-0.64
324.35,0.17,0.88,0.17,0.86,-0.87,-0.85,-0.78,-0.70,-0.70,-0.72
327.59,0.13,0.86,0.13,0.85,-0.89,-0.83,-0.74,-0.76,-0.76,-0.73
330.87,0.09,0.85,0.09,0.86,-0.91,-0.81,-0.71,-0.82,-0.82,-0.75
334.18,0.06,0.88,0.06,0.89,-0.94,-0.79,-0.67,-0.88,-0.88,-0.82
337.52,0.03,0.96,0.03,0.97,-0.97,-0.77,-0.64,-0.94,-0.94,-0.93
340.90,-0.01,1.04,-0.01,1.03,-0.97,-0.75,-0.60,-0.98,-0.98,-1.05
344.30,-0.04,1.08,-0.04,1.05,-0.97,-0.72,-0.57,-1.00,-1.01,-1.12
347.75,-0.07,1.01,-0.07,1.00,-0.94,-0.70,-0.54,-1.01,-1.01,-1.08
351.23,-0.11,0.90,-0.11,0.92,-0.89,-0.68,-0.50,-1.00,-1.00,-1.01
354.74,-0.14,0.80,-0.14,0.83,-0.83,-0.66,-0.47,-0.97,-0.97,-0.94
358.28,-0.17,0.76,-0.17,0.72,-0.76,-0.63,-0.44,-0.93,-0.93,-0.93
361.87,-0.20,0.65,-0.20,0.63,-0.68,-0.61,-0.41,-0.89,-0.89,-0.86
365.49,-0.24,0.51,-0.24,0.57,-0.61,-0.58,-0.38,-0.85,-0.85,-0.74
369.14,-0.27,0.54,-0.27,0.52,-0.55,-0.56,-0.34,-0.82,-0.82,-0.80
372.83,-0.30,0.54,-0.30,0.51,-0.51,-0.54,-0.31,-0.81,-0.81,-0.83
376.56,-0.33,0.51,-0.33,0.51,-0.49,-0.51,-0.28,-0.82,-0.82,-0.83
380.33,-0.36,0.48,-0.36,0.47,-0.47,-0.49,-0.25,-0.83,-0.83,-0.83
384.13,-0.39,0.45,-0.39,0.45,-0.46,-0.46,-0.22,-0.85,-0.85,-0.83
387.97,-0.42,0.43,-0.42,0.45,-0.45,-0.44,-0.19,-0.86,-0.86,-0.85
391.85,-0.45,0.47,-0.45,0.46,-0.44,-0.41,-0.16,-0.88,-0.88,-0.91
395.77,-0.47,0.46,-0.47,0.43,-0.42,-0.38,-0.14,-0.90,-0.90,-0.93
399.73,-0.50,0.40,-0.50,0.40,-0.40,-0.36,-0.11,-0.90,-0.90,-0.90
403.72,-0.53,0.31,-0.53,0.36,-0.37,-0.33,-0.08,-0.90,-0.90,-0.84
407.76,-0.56,0.34,-0.56,0.34,-0.34,-0.30,-0.05,-0.89,-0.89,-0.90
411.84,-0.58,0.35,-0.58,0.33,-0.30,-0.28,-0.02,-0.88,-0.88,-0.93
415.96,-0.61,0.32,-0.61,0.30,-0.26,-0.25,0.00,-0.87,-0.87,-0.93
420.12,-0.64,0.23,-0.64,0.25,-0.24,-0.22,0.03,-0.87,-0.87,-0.87
424.32,-0.66,0.17,-0.66,0.18,-0.23,-0.19,0.06,-0.89,-0.89,-0.83
428.56,-0.69,0.15,-0.69,0.14,-0.22,-0.16,0.08,-0.91,-0.91,-0.83
432.85,-0.71,0.12,-0.71,0.15,-0.21,-0.13,0.11,-0.92,-0.92,-0.83
437.18,-0.74,0.19,-0.74,0.20,-0.19,-0.10,0.13,-0.93,-0.93,-0.92
441.55,-0.76,0.27,-0.76,0.24,-0.17,-0.07,0.16,-0.93,-0.93,-1.03
445.96,-0.78,0.25,-0.78,0.24,-0.15,-0.04,0.18,-0.93,-0.93,-1.03
450.42,-0.81,0.18,-0.81,0.18,-0.12,-0.01,0.21,-0.93,-0.93,-0.98
454.93,-0.83,0.09,-0.83,0.09,-0.10,0.02,0.23,-0.93,-0.93,-0.92
459.48,-0.85,-0.01,-0.85,0.01,-0.06,0.05,0.25,-0.91,-0.91,-0.84
464.07,-0.88,-0.04,-0.88,-0.04,-0.02,0.09,0.28,-0.89,-0.89,-0.83
468.71,-0.90,-0.07,-0.90,-0.07,0.03,0.12,0.30,-0.87,-0.87,-0.83
473.40,-0.92,-0.09,-0.92,-0.09,0.07,0.15,0.32,-0.85,-0.85,-0.83
478.13,-0.94,-0.11,-0.94,-0.10,0.11,0.19,0.34,-0.83,-0.83,-0.83
482.91,-0.96,-0.13,-0.96,-0.13,0.16,0.22,0.36,-0.81,-0.81,-0.83
487.74,-0.99,-0.15,-0.99,-0.17,0.21,0.25,0.38,-0.77,-0.77,-0.83
492.62,-1.01,-0.24,-1.01,-0.24,0.28,0.29,0.40,-0.72,-0.72,-0.77
497.55,-1.02,-0.33,-1.02,-0.32,0.36,0.33,0.42,-0.67,-0.67,-0.70
502.52,-1.04,-0.42,-1.04,-0.42,0.43,0.36,0.44,-0.61,-0.61,-0.63
507.55,-1.06,-0.51,-1.06,-0.54,0.51,0.40,0.46,-0.56,-0.56,-0.55
512.62,-1.08,-0.64,-1.08,-0.64,0.57,0.44,0.47,-0.51,-0.51,-0.44
517.75,-1.10,-0.75,-1.10,-0.70,0.62,0.47,0.49,-0.48,-0.48,-0.34
522.93,-1.11,-0.70,-1.11,-0.70,0.65,0.51,0.51,-0.46,-0.46,-0.42
