frequency,raw,error,smoothed,error_smoothed,equalization,parametric_eq,fixed_band_eq,equalized_raw,equalized_smoothed,target
20.00,4.07,-3.52,4.07,-3.53,3.54,-0.01,0.65,7.62,7.62,7.59
20.20,4.12,-3.47,4.12,-3.47,3.47,-0.01,0.67,7.59,7.59,7.59
20.40,4.17,-3.42,4.17,-3.41,3.39,-0.01,0.69,7.57,7.57,7.59
20.61,4.23,-3.37,4.23,-3.34,3.32,-0.01,0.72,7.55,7.55,7.59
20.81,4.28,-3.25,4.28,-3.26,3.26,-0.01,0.74,7.53,7.53,7.52
21.02,4.33,-3.17,4.33,-3.18,3.19,-0.01,0.76,7.52,7.52,7.49
21.23,4.38,-3.12,4.38,-3.11,3.13,-0.01,0.78,7.51,7.51,7.49
21.44,4.43,-3.07,4.43,-3.07,3.07,-0.01,0.81,7.50,7.50,7.49
21.66,4.48,-3.02,4.48,-3.02,3.02,-0.01,0.83,7.50,7.50,7.49
21.87,4.52,-2.97,4.52,-2.97,2.97,-0.01,0.86,7.50,7.50,7.49
22.09,4.57,-2.93,4.57,-2.93,2.93,-0.01,0.88,7.50,7.50,7.49
22.31,4.61,-2.88,4.61,-2.88,2.88,-0.01,0.91,7.50,7.50,7.49
22.54,4.66,-2.84,4.66,-2.84,2.84,-0.01,0.94,7.49,7.49,7.49
22.76,4.70,-2.79,4.70,-2.80,2.78,-0.01,0.97,7.48,7.48,7.49
22.99,4.74,-2.75,4.74,-2.75,2.72,-0.01,1.00,7.47,7.47,7.49
23.22,4.79,-2.70,4.79,-2.67,2.66,-0.01,1.03,7.45,7.45,7.49
23.45,4.84,-2.57,4.84,-2.59,2.60,-0.01,1.06,7.44,7.44,7.41
23.69,4.89,-2.51,4.89,-2.52,2.53,-0.01,1.09,7.42,7.42,7.39
23.92,4.94,-2.46,4.94,-2.45,2.47,-0.01,1.12,7.41,7.41,7.39
24.16,4.99,-2.41,4.99,-2.40,2.42,-0.01,1.15,7.40,7.40,7.39
24.40,5.04,-2.35,5.04,-2.35,2.36,-0.01,1.18,7.40,7.40,7.39
24.65,5.09,-2.30,5.09,-2.31,2.31,-0.01,1.22,7.40,7.39,7.39
24.89,5.14,-2.26,5.14,-2.26,2.25,-0.01,1.25,7.39,7.39,7.39
25.14,5.18,-2.21,5.18,-2.22,2.20,-0.01,1.28,7.38,7.38,7.39
25.39,5.23,-2.17,5.23,-2.16,2.14,-0.01,1.31,7.37,7.37,7.39
25.65,5.27,-2.11,5.27,-2.10,2.09,-0.01,1.35,7.35,7.35,7.38
25.91,5.31,-2.01,5.31,-2.02,2.03,-0.01,1.38,7.34,7.34,7.32
26.16,5.35,-1.95,5.35,-1.96,1.97,-0.01,1.41,7.32,7.32,7.29
26.43,5.39,-1.90,5.39,-1.90,1.92,-0.01,1.44,7.31,7.31,7.29
26.69,5.43,-1.86,5.43,-1.86,1.87,-0.01,1.48,7.30,7.30,7.29
26.96,5.47,-1.82,5.47,-1.82,1.82,-0.01,1.51,7.29,7.29,7.29
27.23,5.51,-1.78,5.51,-1.78,1.78,-0.01,1.54,7.29,7.29,7.29
27.50,5.55,-1.75,5.55,-1.75,1.74,-0.01,1.57,7.29,7.29,7.29
27.77,5.59,-1.71,5.59,-1.71,1.71,-0.01,1.59,7.29,7.29,7.29
28.05,5.62,-1.67,5.62,-1.67,1.67,-0.01,1.62,7.29,7.29,7.29
28.33,5.66,-1.64,5.66,-1.64,1.64,-0.01,1.64,7.29,7.29,7.29
28.62,5.69,-1.60,5.69,-1.60,1.60,-0.01,1.67,7.29,7.29,7.29
28.90,5.73,-1.57,5.73,-1.57,1.56,-0.01,1.68,7.29,7.29,7.29
29.19,5.76,-1.53,5.76,-1.53,1.53,-0.01,1.70,7.29,7.29,7.29
29.48,5.79,-1.50,5.79,-1.50,1.50,-0.02,1.72,7.29,7.29,7.29
29.78,5.83,-1.47,5.83,-1.46,1.47,-0.02,1.73,7.30,7.30,7.29
30.08,5.86,-1.44,5.86,-1.43,1.45,-0.02,1.74,7.31,7.31,7.29
30.38,5.89,-1.40,5.89,-1.42,1.44,-0.02,1.75,7.33,7.33,7.29
30.68,5.92,-1.42,5.92,-1.42,1.43,-0.02,1.75,7.35,7.35,7.34
30.99,5.95,-1.44,5.95,-1.42,1.43,-0.02,1.76,7.38,7.38,7.39
31.30,5.98,-1.41,5.99,-1.43,1.42,-0.02,1.75,7.40,7.40,7.39
31.61,6.02,-1.43,6.02,-1.43,1.41,-0.02,1.75,7.43,7.43,7.45
31.93,6.06,-1.44,6.06,-1.42,1.40,-0.02,1.74,7.46,7.46,7.49
32.24,6.09,-1.40,6.09,-1.40,1.39,-0.02,1.73,7.48,7.48,7.49
32.57,6.13,-1.36,6.13,-1.37,1.37,-0.02,1.72,7.50,7.50,7.49
32.89,6.17,-1.33,6.17,-1.33,1.34,-0.02,1.70,7.51,7.51,7.49
33.22,6.20,-1.30,6.20,-1.30,1.31,-0.02,1.68,7.50,7.50,7.49
33.55,6.23,-1.26,6.23,-1.27,1.26,-0.02,1.66,7.49,7.49,7.49
33.89,6.26,-1.24,6.26,-1.23,1.22,-0.02,1.64,7.47,7.47,7.49
34.23,6.29,-1.20,6.29,-1.18,1.17,-0.02,1.61,7.45,7.45,7.49
34.57,6.31,-1.11,6.31,-1.12,1.12,-0.02,1.58,7.43,7.44,7.42
34.92,6.34,-1.05,6.34,-1.06,1.08,-0.02,1.55,7.42,7.42,7.39
35.27,6.38,-1.02,6.38,-1.01,1.04,-0.02,1.52,7.41,7.41,7.39
35.62,6.41,-0.99,6.41,-0.98,1.00,-0.02,1.49,7.41,7.41,7.39
35.97,6.44,-0.96,6.44,-0.96,0.96,-0.02,1.45,7.40,7.40,7.39
36.33,6.47,-0.93,6.47,-0.93,0.93,-0.02,1.41,7.40,7.40,7.39
36.70,6.49,-0.90,6.49,-0.90,0.90,-0.02,1.38,7.39,7.39,7.39
37.06,6.51,-0.88,6.51,-0.89,0.87,-0.02,1.34,7.38,7.38,7.39
37.43,6.53,-0.86,6.53,-0.86,0.84,-0.02,1.30,7.37,7.37,7.39
37.81,6.55,-0.84,6.55,-0.82,0.81,-0.03,1.26,7.36,7.36,7.39
38.19,6.57,-0.77,6.57,-0.77,0.77,-0.03,1.22,7.34,7.34,7.34
38.57,6.59,-0.70,6.59,-0.72,0.73,-0.03,1.18,7.33,7.33,7.29
38.95,6.62,-0.68,6.61,-0.68,0.70,-0.03,1.14,7.31,7.31,7.29
39.34,6.64,-0.66,6.64,-0.65,0.66,-0.03,1.10,7.30,7.30,7.29
39.74,6.66,-0.63,6.66,-0.63,0.63,-0.03,1.06,7.29,7.29,7.29
40.14,6.69,-0.61,6.69,-0.61,0.60,-0.03,1.02,7.29,7.29,7.29
40.54,6.71,-0.58,6.71,-0.58,0.58,-0.03,0.99,7.29,7.29,7.29
40.94,6.73,-0.56,6.73,-0.56,0.56,-0.03,0.95,7.29,7.29,7.29
41.35,6.75,-0.54,6.75,-0.54,0.54,-0.03,0.91,7.30,7.30,7.29
41.76,6.77,-0.52,6.77,-0.52,0.52,-0.03,0.87,7.30,7.30,7.29
42.18,6.79,-0.50,6.79,-0.50,0.51,-0.03,0.83,7.30,7.30,7.29
42.60,6.81,-0.49,6.81,-0.49,0.49,-0.03,0.79,7.29,7.29,7.29
43.03,6.82,-0.47,6.82,-0.47,0.47,-0.03,0.76,7.29,7.29,7.29
43.46,6.84,-0.45,6.84,-0.45,0.45,-0.03,0.72,7.29,7.29,7.29
43.90,6.86,-0.43,6.86,-0.43,0.43,-0.03,0.68,7.29,7.29,7.29
44.33,6.88,-0.41,6.88,-0.41,0.41,-0.04,0.65,7.29,7.29,7.29
44.78,6.90,-0.39,6.90,-0.39,0.39,-0.04,0.61,7.29,7.29,7.29
45.23,6.93,-0.37,6.93,-0.37,0.37,-0.04,0.58,7.30,7.30,7.29
45.68,6.95,-0.34,6.95,-0.34,0.35,-0.04,0.55,7.30,7.30,7.29
46.13,6.97,-0.32,6.97,-0.32,0.32,-0.04,0.51,7.30,7.30,7.29
46.60,6.99,-0.30,6.99,-0.30,0.30,-0.04,0.48,7.30,7.30,7.29
47.06,7.01,-0.28,7.01,-0.28,0.28,-0.04,0.45,7.30,7.30,7.29
47.53,7.03,-0.27,7.03,-0.27,0.27,-0.04,0.42,7.30,7.30,7.29
48.01,7.04,-0.25,7.04,-0.25,0.25,-0.04,0.38,7.30,7.30,7.29
48.49,7.06,-0.24,7.06,-0.24,0.24,-0.04,0.35,7.30,7.30,7.29
48.97,7.07,-0.22,7.07,-0.22,0.23,-0.04,0.32,7.30,7.30,7.29
49.46,7.08,-0.21,7.08,-0.21,0.21,-0.04,0.29,7.30,7.30,7.29
49.96,7.09,-0.20,7.09,-0.20,0.21,-0.05,0.26,7.30,7.30,7.29
50.46,7.10,-0.20,7.10,-0.20,0.20,-0.05,0.24,7.30,7.30,7.29
50.96,7.11,-0.19,7.11,-0.19,0.19,-0.05,0.21,7.30,7.30,7.29
51.47,7.12,-0.18,7.12,-0.18,0.18,-0.05,0.18,7.30,7.30,7.29
51.99,7.13,-0.16,7.13,-0.16,0.16,-0.05,0.15,7.30,7.30,7.29
52.51,7.14,-0.15,7.14,-0.16,0.13,-0.05,0.13,7.28,7.28,7.29
53.03,7.16,-0.14,7.16,-0.14,0.10,-0.05,0.10,7.25,7.25,7.29
53.56,7.17,-0.12,7.17,-0.10,0.06,-0.05,0.08,7.23,7.23,7.29
54.10,7.18,-0.04,7.18,-0.04,0.02,-0.05,0.05,7.20,7.20,7.22
54.64,7.19,0.04,7.19,0.04,-0.01,-0.05,0.03,7.18,7.18,7.15
55.18,7.20,0.10,7.20,0.09,-0.03,-0.06,0.01,7.17,7.17,7.09
55.74,7.21,0.11,7.21,0.11,-0.04,-0.06,-0.02,7.17,7.17,7.09
56.29,7.22,0.08,7.22,0.07,-0.04,-0.06,-0.04,7.18,7.18,7.14
56.86,7.23,0.02,7.23,0.02,-0.03,-0.06,-0.06,7.21,7.21,7.21
57.42,7.24,-0.05,7.24,-0.02,0.00,-0.06,-0.08,7.24,7.24,7.29
58.00,7.25,-0.05,7.25,-0.06,0.04,-0.06,-0.10,7.29,7.29,7.29
58.58,7.26,-0.06,7.26,-0.08,0.07,-0.06,-0.11,7.33,7.33,7.32
59.16,7.26,-0.13,7.26,-0.10,0.10,-0.07,-0.13,7.36,7.36,7.39
59.76,7.27,-0.13,7.27,-0.13,0.11,-0.07,-0.15,7.37,7.38,7.39
60.35,7.28,-0.12,7.28,-0.13,0.10,-0.07,-0.16,7.37,7.37,7.39
60.96,7.28,-0.11,7.28,-0.09,0.08,-0.07,-0.17,7.36,7.36,7.39
61.57,7.29,-0.04,7.29,-0.06,0.05,-0.07,-0.19,7.33,7.33,7.32
62.18,7.29,-0.00,7.29,-0.01,0.01,-0.07,-0.20,7.30,7.30,7.29
62.80,7.30,0.01,7.30,0.04,-0.03,-0.07,-0.21,7.27,7.27,7.28
63.43,7.30,0.08,7.30,0.07,-0.06,-0.08,-0.22,7.24,7.24,7.22
64.07,7.31,0.11,7.31,0.10,-0.09,-0.08,-0.23,7.22,7.22,7.19
64.71,7.31,0.12,7.31,0.12,-0.10,-0.08,-0.24,7.21,7.21,7.19
65.35,7.31,0.12,7.31,0.13,-0.11,-0.08,-0.24,7.21,7.21,7.19
66.01,7.32,0.12,7.32,0.11,-0.11,-0.08,-0.25,7.21,7.21,7.19
66.67,7.32,0.11,7.32,0.09,-0.09,-0.08,-0.25,7.23,7.23,7.21
67.33,7.32,0.03,7.32,0.06,-0.07,-0.09,-0.26,7.25,7.25,7.29
68.01,7.32,0.03,7.32,0.04,-0.04,-0.09,-0.26,7.28,7.28,7.29
68.69,7.32,0.03,7.32,0.02,-0.01,-0.09,-0.26,7.31,7.31,7.29
69.37,7.32,0.03,7.32,0.00,0.01,-0.09,-0.27,7.34,7.34,7.29
70.07,7.32,-0.04,7.32,-0.03,0.03,-0.09,-0.27,7.36,7.36,7.36
70.77,7.32,-0.07,7.32,-0.06,0.04,-0.10,-0.27,7.37,7.37,7.39
71.48,7.32,-0.07,7.32,-0.08,0.05,-0.10,-0.27,7.37,7.37,7.39
72.19,7.32,-0.07,7.32,-0.06,0.04,-0.10,-0.27,7.36,7.36,7.39
72.91,7.32,-0.04,7.32,-0.03,0.02,-0.10,-0.27,7.34,7.34,7.35
73.64,7.32,0.02,7.32,-0.00,-0.00,-0.11,-0.27,7.31,7.31,7.29
74.38,7.31,0.02,7.31,0.04,-0.03,-0.11,-0.27,7.29,7.29,7.29
75.12,7.31,0.07,7.31,0.07,-0.05,-0.11,-0.27,7.26,7.26,7.25
75.87,7.31,0.12,7.31,0.10,-0.07,-0.11,-0.27,7.24,7.24,7.19
76.63,7.31,0.12,7.31,0.12,-0.09,-0.12,-0.27,7.22,7.22,7.19
77.40,7.31,0.12,7.31,0.12,-0.10,-0.12,-0.27,7.21,7.21,7.19
78.17,7.31,0.11,7.31,0.11,-0.11,-0.12,-0.27,7.20,7.20,7.19
78.95,7.30,0.11,7.30,0.10,-0.13,-0.12,-0.26,7.18,7.18,7.19
79.74,7.30,0.10,7.30,0.11,-0.15,-0.13,-0.26,7.15,7.15,7.19
80.54,7.29,0.13,7.29,0.14,-0.18,-0.13,-0.26,7.12,7.12,7.17
81.35,7.29,0.19,7.29,0.18,-0.21,-0.13,-0.26,7.07,7.07,7.10
82.16,7.28,0.25,7.28,0.25,-0.25,-0.14,-0.26,7.03,7.03,7.03
82.98,7.27,0.31,7.27,0.31,-0.28,-0.14,-0.26,6.99,6.99,6.96
83.81,7.27,0.37,7.27,0.35,-0.31,-0.14,-0.26,6.95,6.95,6.89
84.65,7.26,0.36,7.26,0.37,-0.33,-0.15,-0.26,6.92,6.92,6.89
85.50,7.25,0.36,7.25,0.37,-0.35,-0.15,-0.26,6.91,6.91,6.89
86.35,7.25,0.35,7.25,0.36,-0.35,-0.15,-0.26,6.90,6.90,6.89
87.22,7.25,0.35,7.25,0.33,-0.35,-0.16,-0.26,6.90,6.90,6.89
88.09,7.24,0.30,7.24,0.31,-0.34,-0.16,-0.26,6.91,6.91,6.94
88.97,7.24,0.26,7.24,0.30,-0.32,-0.16,-0.26,6.91,6.91,6.97
89.86,7.23,0.33,7.23,0.30,-0.31,-0.17,-0.26,6.92,6.92,6.91
90.76,7.22,0.32,7.22,0.31,-0.30,-0.17,-0.26,6.91,6.91,6.89
91.66,7.21,0.31,7.21,0.32,-0.30,-0.17,-0.26,6.91,6.91,6.89
92.58,7.19,0.30,7.19,0.30,-0.29,-0.18,-0.27,6.90,6.90,6.89
93.51,7.18,0.29,7.18,0.29,-0.28,-0.18,-0.27,6.90,6.90,6.89
94.44,7.17,0.28,7.17,0.28,-0.27,-0.19,-0.27,6.90,6.90,6.89
95.39,7.16,0.26,7.16,0.26,-0.26,-0.19,-0.27,6.90,6.90,6.89
96.34,7.15,0.25,7.15,0.25,-0.25,-0.20,-0.28,6.89,6.89,6.89
97.30,7.13,0.24,7.13,0.23,-0.25,-0.20,-0.28,6.89,6.89,6.89
98.28,7.12,0.23,7.12,0.22,-0.25,-0.21,-0.28,6.87,6.87,6.89
99.26,7.11,0.21,7.11,0.23,-0.25,-0.21,-0.29,6.86,6.86,6.89
100.25,7.10,0.25,7.10,0.25,-0.25,-0.22,-0.29,6.85,6.85,6.85
101.25,7.08,0.29,7.08,0.27,-0.24,-0.22,-0.29,6.84,6.84,6.79
102.27,7.07,0.27,7.07,0.27,-0.24,-0.23,-0.30,6.83,6.83,6.79
103.29,7.05,0.26,7.05,0.26,-0.24,-0.23,-0.30,6.82,6.82,6.79
104.32,7.04,0.24,7.04,0.24,-0.24,-0.24,-0.30,6.80,6.80,6.79
105.37,7.02,0.23,7.02,0.23,-0.25,-0.24,-0.31,6.78,6.78,6.79
106.42,7.01,0.21,7.01,0.22,-0.26,-0.25,-0.31,6.75,6.75,6.79
107.48,6.99,0.22,6.99,0.23,-0.27,-0.25,-0.32,6.72,6.72,6.77
108.56,6.98,0.26,6.98,0.27,-0.29,-0.26,-0.32,6.69,6.69,6.72
109.64,6.96,0.33,6.96,0.33,-0.31,-0.27,-0.32,6.65,6.65,6.63
110.74,6.94,0.38,6.94,0.38,-0.34,-0.27,-0.33,6.60,6.60,6.56
111.85,6.92,0.42,6.92,0.41,-0.37,-0.28,-0.33,6.55,6.55,6.50
112.97,6.91,0.41,6.91,0.41,-0.40,-0.29,-0.34,6.51,6.51,6.49
114.10,6.89,0.39,6.89,0.40,-0.41,-0.29,-0.34,6.47,6.47,6.49
115.24,6.87,0.39,6.87,0.41,-0.42,-0.30,-0.35,6.45,6.45,6.48
116.39,6.85,0.43,6.85,0.42,-0.41,-0.31,-0.35,6.44,6.44,6.43
117.55,6.83,0.44,6.83,0.43,-0.40,-0.31,-0.35,6.43,6.43,6.39
118.73,6.82,0.42,6.81,0.42,-0.40,-0.32,-0.36,6.42,6.42,6.39
119.92,6.79,0.40,6.79,0.40,-0.41,-0.33,-0.36,6.39,6.39,6.39
121.12,6.77,0.38,6.77,0.38,-0.42,-0.34,-0.36,6.35,6.35,6.39
122.33,6.75,0.37,6.75,0.39,-0.44,-0.34,-0.36,6.31,6.31,6.38
123.55,6.73,0.41,6.73,0.43,-0.46,-0.35,-0.37,6.27,6.27,6.32
124.79,6.71,0.49,6.71,0.49,-0.48,-0.36,-0.37,6.23,6.23,6.22
126.03,6.69,0.55,6.69,0.54,-0.49,-0.37,-0.37,6.20,6.20,6.14
127.29,6.67,0.57,6.67,0.56,-0.50,-0.38,-0.37,6.16,6.16,6.09
128.57,6.65,0.55,6.65,0.56,-0.52,-0.39,-0.38,6.13,6.13,6.09
129.85,6.62,0.53,6.62,0.53,-0.53,-0.39,-0.38,6.10,6.10,6.09
131.15,6.60,0.51,6.60,0.50,-0.53,-0.40,-0.38,6.07,6.07,6.09
132.46,6.58,0.48,6.58,0.49,-0.54,-0.41,-0.38,6.03,6.04,6.09
133.79,6.55,0.50,6.55,0.50,-0.55,-0.42,-0.38,6.00,6.00,6.06
135.12,6.53,0.54,6.53,0.53,-0.56,-0.43,-0.38,5.97,5.97,5.99
136.48,6.50,0.58,6.50,0.58,-0.57,-0.44,-0.38,5.93,5.93,5.92
137.84,6.47,0.62,6.47,0.62,-0.58,-0.45,-0.38,5.89,5.89,5.85
139.22,6.45,0.65,6.45,0.64,-0.59,-0.46,-0.38,5.86,5.86,5.79
140.61,6.42,0.62,6.42,0.63,-0.60,-0.47,-0.38,5.82,5.82,5.79
142.02,6.39,0.59,6.39,0.59,-0.60,-0.48,-0.38,5.79,5.79,5.79
143.44,6.36,0.57,6.36,0.57,-0.59,-0.49,-0.38,5.77,5.77,5.79
144.87,6.33,0.54,6.33,0.56,-0.59,-0.50,-0.38,5.75,5.75,5.79
146.32,6.30,0.57,6.30,0.56,-0.57,-0.51,-0.39,5.73,5.73,5.73
147.78,6.27,0.58,6.27,0.57,-0.57,-0.52,-0.39,5.71,5.71,5.69
149.26,6.24,0.56,6.24,0.59,-0.56,-0.53,-0.39,5.68,5.68,5.68
150.75,6.21,0.60,6.21,0.58,-0.57,-0.54,-0.39,5.64,5.64,5.61
152.26,6.18,0.58,6.18,0.57,-0.58,-0.55,-0.39,5.60,5.60,5.59
153.78,6.14,0.55,6.14,0.58,-0.59,-0.56,-0.39,5.55,5.55,5.59
155.32,6.11,0.58,6.11,0.59,-0.60,-0.57,-0.39,5.51,5.51,5.53
156.88,6.08,0.63,6.08,0.61,-0.61,-0.58,-0.40,5.47,5.47,5.45
158.44,6.04,0.65,6.04,0.63,-0.62,-0.59,-0.40,5.42,5.43,5.39
160.03,6.01,0.61,6.01,0.64,-0.62,-0.60,-0.40,5.38,5.38,5.39
161.63,5.97,0.63,5.97,0.63,-0.63,-0.61,-0.40,5.34,5.34,5.34
163.24,5.94,0.64,5.94,0.62,-0.63,-0.62,-0.41,5.31,5.31,5.29
164.88,5.90,0.60,5.90,0.63,-0.62,-0.63,-0.41,5.28,5.28,5.29
166.53,5.86,0.62,5.86,0.62,-0.61,-0.64,-0.42,5.25,5.25,5.24
168.19,5.82,0.62,5.82,0.60,-0.60,-0.65,-0.42,5.22,5.22,5.19
169.87,5.78,0.58,5.78,0.58,-0.58,-0.66,-0.43,5.20,5.20,5.19
171.57,5.74,0.54,5.74,0.56,-0.57,-0.67,-0.43,5.17,5.17,5.19
173.29,5.70,0.54,5.70,0.54,-0.56,-0.67,-0.44,5.14,5.14,5.15
175.02,5.66,0.56,5.66,0.54,-0.55,-0.68,-0.44,5.11,5.11,5.09
176.77,5.61,0.52,5.61,0.53,-0.54,-0.69,-0.45,5.08,5.08,5.09
178.54,5.57,0.53,5.57,0.54,-0.53,-0.70,-0.46,5.04,5.04,5.04
180.32,5.53,0.54,5.53,0.54,-0.53,-0.70,-0.46,4.99,4.99,4.98
182.13,5.48,0.56,5.48,0.55,-0.54,-0.71,-0.47,4.94,4.94,4.92
183.95,5.44,0.55,5.44,0.55,-0.55,-0.72,-0.48,4.89,4.89,4.89
185.79,5.41,0.54,5.41,0.55,-0.56,-0.72,-0.49,4.84,4.84,4.87
187.65,5.37,0.57,5.38,0.57,-0.58,-0.72,-0.50,4.79,4.79,4.81
189.52,5.35,0.61,5.35,0.60,-0.60,-0.73,-0.51,4.75,4.75,4.74
191.42,5.33,0.64,5.33,0.62,-0.62,-0.73,-0.51,4.71,4.71,4.69
193.33,5.32,0.62,5.32,0.65,-0.65,-0.73,-0.52,4.67,4.67,4.69
195.27,5.31,0.68,5.31,0.67,-0.67,-0.74,-0.53,4.64,4.64,4.63
197.22,5.29,0.70,5.29,0.69,-0.69,-0.74,-0.54,4.61,4.61,4.59
199.19,5.28,0.69,5.28,0.71,-0.70,-0.74,-0.55,4.58,4.58,4.59
201.18,5.26,0.73,5.26,0.72,-0.70,-0.74,-0.56,4.55,4.55,4.52
203.19,5.23,0.73,5.23,0.72,-0.70,-0.73,-0.57,4.53,4.53,4.49
205.23,5.20,0.70,5.20,0.70,-0.70,-0.73,-0.58,4.50,4.50,4.49
207.28,5.16,0.67,5.16,0.69,-0.69,-0.73,-0.59,4.47,4.47,4.49
209.35,5.12,0.68,5.12,0.67,-0.69,-0.73,-0.60,4.44,4.44,4.45
211.44,5.08,0.69,5.08,0.66,-0.68,-0.72,-0.61,4.40,4.40,4.39
213.56,5.04,0.65,5.04,0.66,-0.68,-0.72,-0.62,4.36,4.36,4.39
215.69,5.00,0.66,5.00,0.67,-0.68,-0.71,-0.63,4.31,4.31,4.34
217.85,4.95,0.69,4.95,0.68,-0.69,-0.70,-0.64,4.26,4.26,4.27
220.03,4.91,0.71,4.91,0.71,-0.70,-0.70,-0.65,4.21,4.21,4.19
222.23,4.86,0.73,4.86,0.72,-0.70,-0.69,-0.65,4.16,4.16,4.14
224.45,4.82,0.72,4.82,0.71,-0.70,-0.68,-0.66,4.12,4.12,4.09
226.70,4.77,0.68,4.77,0.71,-0.69,-0.67,-0.66,4.08,4.08,4.09
228.96,4.73,0.70,4.73,0.69,-0.68,-0.66,-0.67,4.05,4.05,4.03
231.25,4.68,0.68,4.68,0.67,-0.66,-0.65,-0.67,4.01,4.01,3.99
233.57,4.63,0.64,4.63,0.64,-0.64,-0.64,-0.67,3.99,3.99,3.99
235.90,4.58,0.59,4.58,0.61,-0.62,-0.63,-0.67,3.96,3.96,3.99
238.26,4.53,0.58,4.53,0.58,-0.59,-0.61,-0.67,3.94,3.94,3.95
240.64,4.49,0.59,4.49,0.57,-0.57,-0.60,-0.66,3.91,3.91,3.89
243.05,4.44,0.54,4.44,0.56,-0.56,-0.59,-0.66,3.88,3.88,3.89
245.48,4.39,0.55,4.39,0.55,-0.54,-0.57,-0.65,3.85,3.85,3.85
247.93,4.34,0.55,4.34,0.53,-0.53,-0.56,-0.64,3.81,3.81,3.79
250.41,4.29,0.50,4.29,0.51,-0.53,-0.54,-0.63,3.77,3.77,3.79
252.92,4.24,0.50,4.25,0.51,-0.53,-0.53,-0.62,3.72,3.72,3.75
255.45,4.20,0.52,4.20,0.52,-0.52,-0.51,-0.61,3.68,3.68,3.68
258.00,4.15,0.55,4.15,0.52,-0.51,-0.50,-0.59,3.64,3.64,3.59
260.58,4.10,0.50,4.10,0.52,-0.49,-0.48,-0.58,3.60,3.60,3.59
263.19,4.04,0.48,4.04,0.50,-0.47,-0.46,-0.56,3.57,3.57,3.57
265.82,3.99,0.49,3.99,0.47,-0.46,-0.44,-0.54,3.54,3.54,3.50
268.48,3.94,0.45,3.94,0.44,-0.44,-0.43,-0.52,3.51,3.51,3.49
271.16,3.89,0.40,3.89,0.40,-0.42,-0.41,-0.49,3.47,3.47,3.49
273.87,3.84,0.35,3.84,0.36,-0.41,-0.39,-0.47,3.43,3.43,3.49
276.61,3.79,0.36,3.79,0.36,-0.39,-0.37,-0.44,3.39,3.40,3.43
279.38,3.74,0.38,3.74,0.37,-0.38,-0.35,-0.41,3.36,3.36,3.36
282.17,3.68,0.39,3.68,0.40,-0.37,-0.34,-0.39,3.31,3.31,3.29
284.99,3.63,0.41,3.63,0.40,-0.36,-0.32,-0.36,3.27,3.27,3.22
287.84,3.58,0.38,3.58,0.37,-0.35,-0.30,-0.33,3.23,3.23,3.19
290.72,3.52,0.33,3.52,0.33,-0.33,-0.28,-0.29,3.19,3.19,3.19
293.63,3.47,0.27,3.47,0.30,-0.31,-0.26,-0.26,3.16,3.16,3.19
296.57,3.42,0.29,3.42,0.27,-0.29,-0.24,-0.23,3.13,3.13,3.13
299.53,3.36,0.27,3.36,0.25,-0.26,-0.22,-0.19,3.10,3.10,3.09
302.53,3.31,0.21,3.31,0.24,-0.24,-0.20,-0.16,3.07,3.07,3.09
305.55,3.26,0.23,3.26,0.21,-0.22,-0.18,-0.12,3.04,3.04,3.03
308.61,3.20,0.21,3.20,0.19,-0.20,-0.16,-0.09,3.01,3.01,2.99
311.69,3.15,0.15,3.15,0.18,-0.17,-0.14,-0.05,2.98,2.98,2.99
314.81,3.09,0.17,3.09,0.16,-0.14,-0.12,-0.01,2.95,2.95,2.92
317.96,3.04,0.14,3.04,0.13,-0.10,-0.10,0.02,2.93,2.93,2.89
321.14,2.98,0.09,2.98,0.09,-0.07,-0.08,0.06,2.91,2.91,2.89
324.35,2.92,0.03,2.93,0.03,-0.04,-0.06,0.10,2.89,2.89,2.89
327.59,2.87,-0.03,2.87,-0.02,-0.01,-0.04,0.14,2.85,2.85,2.89
330.87,2.81,-0.06,2.81,-0.05,0.01,-0.01,0.18,2.82,2.82,2.88
334.18,2.76,-0.05,2.76,-0.06,0.03,0.01,0.22,2.79,2.79,2.81
337.52,2.70,-0.04,2.70,-0.04,0.04,0.03,0.26,2.75,2.75,2.74
340.90,2.65,-0.03,2.65,-0.03,0.06,0.05,0.30,2.70,2.70,2.68
344.30,2.59,-0.02,2.59,-0.03,0.07,0.07,0.34,2.66,2.66,2.61
347.75,2.53,-0.06,2.53,-0.07,0.08,0.10,0.38,2.62,2.62,2.59
351.23,2.47,-0.12,2.47,-0.12,0.11,0.12,0.42,2.58,2.58,2.59
354.74,2.41,-0.18,2.41,-0.16,0.14,0.14,0.46,2.56,2.56,2.59
358.28,2.35,-0.18,2.35,-0.18,0.19,0.17,0.50,2.55,2.55,2.53
361.87,2.29,-0.20,2.29,-0.22,0.25,0.19,0.55,2.54,2.54,2.49
365.49,2.23,-0.27,2.23,-0.29,0.31,0.22,0.59,2.54,2.54,2.50
369.14,2.17,-0.39,2.17,-0.37,0.36,0.24,0.63,2.53,2.53,2.56
372.83,2.11,-0.45,2.11,-0.43,0.40,0.27,0.68,2.51,2.51,2.56
376.56,2.05,-0.45,2.05,-0.48,0.44,0.30,0.72,2.49,2.49,2.49
380.33,1.98,-0.51,1.98,-0.50,0.47,0.32,0.76,2.45,2.45,2.49
384.13,1.92,-0.53,1.92,-0.52,0.50,0.35,0.81,2.42,2.42,2.45
387.97,1.85,-0.52,1.85,-0.53,0.53,0.38,0.85,2.38,2.38,2.38
391.85,1.79,-0.52,1.79,-0.51,0.55,0.41,0.89,2.34,2.34,2.31
395.77,1.73,-0.51,1.73,-0.53,0.58,0.44,0.94,2.31,2.31,2.24
399.73,1.67,-0.56,1.67,-0.58,0.61,0.47,0.98,2.28,2.28,2.22
403.72,1.62,-0.67,1.62,-0.65,0.66,0.50,1.03,2.27,2.27,2.29
407.76,1.57,-0.73,1.57,-0.72,0.71,0.53,1.07,2.27,2.27,2.29
411.84,1.52,-0.77,1.52,-0.78,0.76,0.56,1.12,2.28,2.28,2.29
415.96,1.48,-0.81,1.48,-0.82,0.81,0.59,1.16,2.29,2.29,2.29
420.12,1.44,-0.85,1.44,-0.86,0.84,0.62,1.20,2.29,2.29,2.29
424.32,1.40,-0.89,1.40,-0.89,0.87,0.66,1.25,2.27,2.27,2.29
428.56,1.36,-0.92,1.36,-0.91,0.88,0.69,1.29,2.24,2.24,2.29
432.85,1.32,-0.90,1.32,-0.90,0.89,0.73,1.33,2.20,2.20,2.21
437.18,1.27,-0.88,1.27,-0.88,0.89,0.77,1.38,2.16,2.16,2.15
441.55,1.21,-0.87,1.21,-0.87,0.89,0.80,1.42,2.10,2.10,2.09
445.96,1.16,-0.85,1.16,-0.88,0.90,0.84,1.46,2.05,2.05,2.01
450.42,1.10,-0.89,1.10,-0.89,0.91,0.88,1.49,2.01,2.01,1.99
454.93,1.04,-0.94,1.04,-0.91,0.93,0.92,1.53,1.97,1.97,1.98
459.48,0.98,-0.92,0.98,-0.94,0.95,0.96,1.57,1.93,1.93,1.90
464.07,0.92,-0.98,0.92,-0.99,0.98,1.00,1.60,1.90,1.90,1.89
468.71,0.86,-1.04,0.86,-1.03,1.02,1.04,1.63,1.87,1.87,1.89
473.40,0.79,-1.10,0.79,-1.08,1.05,1.08,1.66,1.85,1.85,1.89
478.13,0.73,-1.10,0.73,-1.12,1.09,1.12,1.69,1.82,1.82,1.84
482.91,0.67,-1.13,0.67,-1.14,1.14,1.16,1.72,1.81,1.81,1.79
487.74,0.61,-1.19,0.61,-1.16,1.19,1.20,1.74,1.79,1.79,1.79
492.62,0.54,-1.19,0.54,-1.21,1.24,1.24,1.77,1.79,1.79,1.73
497.55,0.48,-1.25,0.48,-1.27,1.30,1.29,1.79,1.78,1.78,1.73
502.52,0.42,-1.38,0.42,-1.35,1.36,1.33,1.81,1.78,1.78,1.79
507.55,0.35,-1.44,0.35,-1.44,1.42,1.37,1.82,1.77,1.77,1.79
512.62,0.29,-1.50,0.29,-1.51,1.48,1.41,1.84,1.77,1.77,1.79
517.75,0.23,-1.57,0.23,-1.57,1.54,1.46,1.85,1.77,1.77,1.79
522.93,0.17,-1.63,0.17,-1.61,1.60,1.50,1.86,1.76,1.76,1.79
528.16,0.10,-1.64,0.10,-1.64,1.65,1.54,1.87,1.75,1.75,1.74
533.44,0.04,-1.65,0.04,-1.67,1.70,1.58,1.88,1.74,1.74,1.69
538.77,-0.02,-1.72,-0.02,-1.71,1.74,1.63,1.89,1.72,1.72,1.69
544.16,-0.08,-1.78,-0.08,-1.78,1.78,1.67,1.89,1.69,1.69,1.69
549.60,-0.15,-1.84,-0.15,-1.84,1.82,1.71,1.89,1.67,1.67,1.69
