frequency,raw,error,smoothed,error_smoothed,equalization,parametric_eq,fixed_band_eq,equalized_raw,equalized_smoothed,target
20.00,10.60,4.50,10.60,4.50,-4.64,-4.24,-2.27,5.96,5.95,6.09
20.20,10.69,4.59,10.70,4.60,-4.63,-4.27,-2.34,6.06,6.07,6.10
20.40,10.77,4.66,10.77,4.66,-4.61,-4.31,-2.41,6.15,6.16,6.11
20.61,10.82,4.70,10.81,4.69,-4.60,-4.34,-2.48,6.22,6.21,6.12
20.81,10.81,4.69,10.81,4.69,-4.58,-4.37,-2.55,6.24,6.23,6.12
21.02,10.78,4.65,10.78,4.65,-4.56,-4.40,-2.62,6.22,6.22,6.13
21.23,10.72,4.59,10.72,4.58,-4.53,-4.43,-2.70,6.19,6.19,6.14
21.44,10.65,4.50,10.65,4.50,-4.51,-4.45,-2.78,6.14,6.14,6.14
21.66,10.57,4.42,10.57,4.42,-4.45,-4.48,-2.86,6.12,6.12,6.15
21.87,10.50,4.35,10.51,4.36,-4.40,-4.51,-2.95,6.11,6.11,6.15
22.09,10.47,4.32,10.47,4.32,-4.36,-4.53,-3.03,6.11,6.12,6.16
22.31,10.47,4.30,10.47,4.30,-4.34,-4.55,-3.12,6.13,6.13,6.16
22.54,10.49,4.32,10.49,4.32,-4.34,-4.57,-3.21,6.15,6.15,6.17
22.76,10.54,4.36,10.54,4.36,-4.36,-4.60,-3.30,6.17,6.17,6.18
22.99,10.60,4.41,10.60,4.40,-4.40,-4.62,-3.40,6.20,6.20,6.19
23.22,10.66,4.46,10.66,4.46,-4.44,-4.63,-3.50,6.22,6.22,6.20
23.45,10.71,4.50,10.71,4.50,-4.48,-4.65,-3.60,6.23,6.23,6.21
23.69,10.75,4.54,10.75,4.53,-4.51,-4.67,-3.70,6.24,6.24,6.22
23.92,10.78,4.56,10.78,4.56,-4.54,-4.68,-3.80,6.24,6.24,6.22
24.16,10.80,4.57,10.80,4.57,-4.57,-4.69,-3.91,6.23,6.23,6.23
24.40,10.81,4.58,10.81,4.58,-4.59,-4.71,-4.01,6.22,6.22,6.23
24.65,10.82,4.59,10.82,4.59,-4.60,-4.72,-4.12,6.22,6.22,6.23
24.89,10.83,4.60,10.83,4.60,-4.62,-4.73,-4.23,6.21,6.22,6.23
25.14,10.84,4.61,10.85,4.62,-4.62,-4.74,-4.35,6.22,6.22,6.23
25.39,10.86,4.63,10.86,4.63,-4.63,-4.75,-4.46,6.23,6.23,6.23
25.65,10.87,4.64,10.87,4.64,-4.63,-4.75,-4.57,6.24,6.24,6.23
25.91,10.88,4.65,10.88,4.64,-4.62,-4.76,-4.68,6.25,6.25,6.23
26.16,10.87,4.64,10.87,4.63,-4.61,-4.76,-4.79,6.26,6.26,6.23
26.43,10.85,4.61,10.85,4.61,-4.59,-4.76,-4.91,6.26,6.26,6.24
26.69,10.82,4.58,10.82,4.58,-4.57,-4.77,-5.01,6.25,6.25,6.25
26.96,10.80,4.54,10.80,4.54,-4.56,-4.77,-5.12,6.24,6.24,6.25
27.23,10.78,4.52,10.78,4.52,-4.55,-4.77,-5.23,6.23,6.23,6.26
27.50,10.78,4.52,10.78,4.52,-4.56,-4.76,-5.33,6.22,6.22,6.26
27.77,10.81,4.54,10.81,4.55,-4.58,-4.76,-5.43,6.23,6.23,6.27
28.05,10.86,4.59,10.86,4.59,-4.62,-4.76,-5.52,6.24,6.24,6.27
28.33,10.93,4.66,10.92,4.66,-4.66,-4.75,-5.61,6.26,6.26,6.27
28.62,10.99,4.72,10.99,4.72,-4.71,-4.75,-5.70,6.28,6.28,6.27
28.90,11.05,4.79,11.05,4.78,-4.76,-4.74,-5.77,6.30,6.29,6.26
29.19,11.09,4.82,11.09,4.82,-4.79,-4.73,-5.84,6.30,6.30,6.26
29.48,11.11,4.85,11.11,4.84,-4.82,-4.72,-5.90,6.30,6.29,6.26
29.78,11.11,4.84,11.11,4.84,-4.83,-4.71,-5.96,6.28,6.29,6.27
30.08,11.10,4.82,11.10,4.82,-4.82,-4.70,-6.00,6.28,6.28,6.28
30.38,11.08,4.80,11.08,4.80,-4.80,-4.69,-6.03,6.28,6.28,6.29
30.68,11.06,4.77,11.06,4.77,-4.78,-4.67,-6.05,6.28,6.28,6.29
30.99,11.04,4.74,11.04,4.74,-4.75,-4.66,-6.07,6.29,6.29,6.30
31.30,11.01,4.72,11.01,4.72,-4.72,-4.64,-6.07,6.29,6.29,6.29
31.61,10.99,4.70,10.99,4.69,-4.69,-4.63,-6.06,6.29,6.29,6.29
31.93,10.96,4.67,10.96,4.67,-4.67,-4.61,-6.04,6.28,6.28,6.29
32.24,10.94,4.65,10.94,4.65,-4.66,-4.59,-6.02,6.28,6.28,6.29
32.57,10.93,4.64,10.93,4.64,-4.65,-4.57,-5.98,6.27,6.27,6.29
32.89,10.93,4.63,10.93,4.64,-4.65,-4.55,-5.93,6.28,6.28,6.29
33.22,10.94,4.64,10.94,4.64,-4.65,-4.53,-5.87,6.29,6.29,6.30
33.55,10.96,4.65,10.95,4.65,-4.65,-4.50,-5.81,6.30,6.30,6.30
33.89,10.96,4.66,10.96,4.66,-4.65,-4.48,-5.73,6.31,6.31,6.30
34.23,10.96,4.66,10.96,4.66,-4.64,-4.45,-5.66,6.31,6.31,6.30
34.57,10.94,4.65,10.94,4.65,-4.63,-4.43,-5.57,6.31,6.31,6.29
34.92,10.90,4.62,10.91,4.62,-4.60,-4.40,-5.48,6.30,6.30,6.29
35.27,10.86,4.58,10.86,4.58,-4.57,-4.37,-5.38,6.30,6.30,6.29
35.62,10.82,4.53,10.82,4.53,-4.52,-4.34,-5.28,6.29,6.29,6.29
35.97,10.77,4.47,10.77,4.47,-4.48,-4.31,-5.17,6.29,6.29,6.29
36.33,10.72,4.42,10.72,4.42,-4.44,-4.28,-5.07,6.28,6.28,6.29
36.70,10.67,4.38,10.67,4.38,-4.40,-4.25,-4.96,6.27,6.27,6.29
37.06,10.63,4.34,10.64,4.34,-4.37,-4.21,-4.84,6.26,6.27,6.29
37.43,10.61,4.32,10.62,4.32,-4.35,-4.18,-4.73,6.27,6.27,6.29
37.81,10.61,4.31,10.61,4.31,-4.32,-4.14,-4.62,6.28,6.29,6.29
38.19,10.60,4.31,10.60,4.31,-4.29,-4.10,-4.50,6.31,6.30,6.29
38.57,10.58,4.30,10.58,4.29,-4.26,-4.07,-4.39,6.32,6.31,6.29
38.95,10.54,4.26,10.53,4.26,-4.23,-4.03,-4.28,6.31,6.31,6.28
39.34,10.47,4.20,10.47,4.20,-4.18,-3.98,-4.16,6.29,6.29,6.27
39.74,10.40,4.13,10.40,4.13,-4.13,-3.94,-4.05,6.27,6.27,6.27
40.14,10.32,4.05,10.32,4.05,-4.06,-3.90,-3.94,6.25,6.26,6.27
40.54,10.25,3.97,10.25,3.97,-3.99,-3.85,-3.84,6.25,6.26,6.28
40.94,10.18,3.90,10.18,3.90,-3.92,-3.81,-3.73,6.27,6.27,6.28
41.35,10.12,3.84,10.12,3.84,-3.84,-3.76,-3.63,6.28,6.28,6.28
41.76,10.05,3.78,10.05,3.77,-3.76,-3.71,-3.52,6.29,6.28,6.27
42.18,9.97,3.70,9.97,3.69,-3.69,-3.66,-3.42,6.28,6.28,6.27
42.60,9.88,3.61,9.88,3.61,-3.62,-3.61,-3.33,6.26,6.26,6.27
43.03,9.80,3.53,9.80,3.53,-3.55,-3.56,-3.23,6.25,6.25,6.27
43.46,9.73,3.47,9.73,3.47,-3.48,-3.51,-3.14,6.25,6.25,6.26
43.90,9.66,3.41,9.66,3.41,-3.40,-3.46,-3.05,6.26,6.26,6.25
44.33,9.59,3.36,9.59,3.35,-3.33,-3.40,-2.96,6.27,6.26,6.23
44.78,9.51,3.28,9.51,3.27,-3.26,-3.34,-2.87,6.25,6.25,6.23
45.23,9.42,3.18,9.42,3.18,-3.19,-3.29,-2.79,6.23,6.23,6.24
45.68,9.34,3.09,9.34,3.10,-3.13,-3.23,-2.70,6.21,6.22,6.25
46.13,9.28,3.02,9.28,3.03,-3.06,-3.17,-2.62,6.21,6.22,6.25
46.60,9.23,2.99,9.23,2.99,-2.99,-3.11,-2.55,6.24,6.24,6.25
47.06,9.19,2.94,9.19,2.94,-2.92,-3.05,-2.47,6.27,6.27,6.24
47.53,9.14,2.89,9.12,2.88,-2.85,-2.98,-2.40,6.29,6.28,6.24
48.01,9.04,2.80,9.04,2.80,-2.78,-2.92,-2.33,6.27,6.26,6.24
48.49,8.94,2.71,8.94,2.71,-2.71,-2.85,-2.26,6.23,6.23,6.23
48.97,8.84,2.62,8.84,2.62,-2.64,-2.79,-2.19,6.19,6.20,6.22
49.46,8.75,2.54,8.76,2.55,-2.58,-2.72,-2.12,6.18,6.18,6.21
49.96,8.70,2.49,8.70,2.49,-2.51,-2.65,-2.06,6.19,6.19,6.21
50.46,8.65,2.44,8.65,2.44,-2.44,-2.58,-2.00,6.21,6.21,6.21
50.96,8.60,2.39,8.60,2.39,-2.37,-2.51,-1.94,6.23,6.22,6.21
51.47,8.53,2.34,8.53,2.33,-2.31,-2.44,-1.88,6.22,6.22,6.19
51.99,8.44,2.26,8.44,2.26,-2.25,-2.36,-1.82,6.19,6.19,6.18
52.51,8.35,2.18,8.35,2.18,-2.19,-2.29,-1.76,6.16,6.16,6.17
53.03,8.26,2.09,8.26,2.10,-2.12,-2.22,-1.71,6.14,6.14,6.17
53.56,8.19,2.02,8.19,2.03,-2.05,-2.14,-1.65,6.14,6.14,6.16
54.10,8.12,1.97,8.13,1.97,-1.97,-2.06,-1.60,6.16,6.16,6.16
54.64,8.06,1.91,8.06,1.90,-1.88,-1.99,-1.55,6.19,6.18,6.16
55.18,7.98,1.83,7.97,1.82,-1.78,-1.91,-1.49,6.20,6.19,6.15
55.74,7.86,1.72,7.86,1.72,-1.68,-1.83,-1.44,6.18,6.18,6.14
56.29,7.73,1.59,7.73,1.59,-1.58,-1.75,-1.39,6.15,6.15,6.14
56.86,7.59,1.46,7.60,1.46,-1.49,-1.67,-1.34,6.10,6.11,6.14
57.42,7.48,1.35,7.48,1.35,-1.40,-1.59,-1.29,6.08,6.08,6.13
58.00,7.38,1.26,7.39,1.27,-1.32,-1.51,-1.24,6.07,6.07,6.12
58.58,7.32,1.21,7.32,1.21,-1.24,-1.42,-1.19,6.08,6.08,6.11
59.16,7.26,1.16,7.26,1.16,-1.16,-1.34,-1.14,6.10,6.11,6.10
59.76,7.22,1.12,7.22,1.12,-1.08,-1.25,-1.09,6.13,6.13,6.10
60.35,7.16,1.06,7.15,1.06,-1.00,-1.17,-1.04,6.15,6.15,6.09
60.96,7.07,0.98,7.06,0.97,-0.92,-1.08,-0.99,6.15,6.14,6.09
61.57,6.95,0.86,6.94,0.86,-0.84,-1.00,-0.94,6.11,6.10,6.08
62.18,6.80,0.73,6.81,0.74,-0.76,-0.91,-0.89,6.04,6.05,6.07
62.80,6.67,0.62,6.68,0.63,-0.68,-0.83,-0.83,5.99,6.00,6.05
63.43,6.59,0.55,6.59,0.55,-0.61,-0.74,-0.78,5.98,5.99,6.04
64.07,6.53,0.50,6.54,0.50,-0.54,-0.65,-0.73,5.99,5.99,6.04
64.71,6.50,0.48,6.50,0.47,-0.48,-0.56,-0.67,6.02,6.01,6.02
65.35,6.46,0.45,6.46,0.44,-0.43,-0.48,-0.62,6.03,6.03,6.01
66.01,6.42,0.41,6.41,0.41,-0.37,-0.39,-0.56,6.04,6.04,6.01
66.67,6.35,0.35,6.35,0.35,-0.31,-0.30,-0.51,6.04,6.04,6.00
67.33,6.25,0.27,6.25,0.27,-0.23,-0.21,-0.45,6.03,6.02,5.98
68.01,6.14,0.17,6.13,0.16,-0.14,-0.12,-0.39,6.01,6.00,5.97
68.69,6.00,0.03,6.00,0.04,-0.03,-0.03,-0.33,5.96,5.97,5.96
69.37,5.86,-0.10,5.86,-0.10,0.08,0.05,-0.27,5.93,5.93,5.96
70.07,5.72,-0.22,5.73,-0.22,0.19,0.14,-0.21,5.91,5.91,5.95
70.77,5.61,-0.32,5.61,-0.32,0.29,0.23,-0.15,5.90,5.90,5.93
71.48,5.51,-0.40,5.51,-0.41,0.39,0.32,-0.09,5.90,5.90,5.92
72.19,5.43,-0.48,5.43,-0.48,0.48,0.41,-0.03,5.90,5.90,5.91
72.91,5.34,-0.55,5.34,-0.55,0.56,0.50,0.04,5.90,5.90,5.90
73.64,5.26,-0.62,5.26,-0.62,0.62,0.58,0.10,5.89,5.89,5.88
74.38,5.18,-0.68,5.18,-0.68,0.69,0.67,0.16,5.87,5.87,5.87
75.12,5.10,-0.75,5.10,-0.75,0.75,0.76,0.23,5.85,5.85,5.85
75.87,5.03,-0.81,5.03,-0.81,0.81,0.85,0.30,5.84,5.84,5.84
76.63,4.95,-0.88,4.95,-0.88,0.88,0.93,0.37,5.83,5.83,5.83
77.40,4.87,-0.94,4.87,-0.94,0.95,1.02,0.43,5.82,5.82,5.81
78.17,4.78,-1.01,4.78,-1.01,1.02,1.10,0.50,5.80,5.80,5.80
78.95,4.69,-1.09,4.69,-1.09,1.10,1.19,0.57,5.79,5.79,5.78
79.74,4.60,-1.17,4.60,-1.17,1.17,1.27,0.65,5.77,5.77,5.77
80.54,4.50,-1.25,4.50,-1.25,1.25,1.35,0.72,5.75,5.75,5.75
81.35,4.40,-1.34,4.40,-1.34,1.33,1.43,0.79,5.73,5.73,5.74
82.16,4.30,-1.42,4.30,-1.42,1.41,1.52,0.87,5.72,5.72,5.72
82.98,4.21,-1.50,4.21,-1.50,1.50,1.60,0.94,5.70,5.70,5.71
83.81,4.11,-1.58,4.11,-1.58,1.58,1.67,1.02,5.69,5.69,5.69
84.65,4.01,-1.66,4.01,-1.66,1.66,1.75,1.10,5.67,5.67,5.67
85.50,3.91,-1.74,3.91,-1.74,1.74,1.83,1.17,5.66,5.66,5.65
86.35,3.81,-1.82,3.81,-1.82,1.82,1.91,1.25,5.64,5.64,5.63
87.22,3.72,-1.90,3.72,-1.90,1.90,1.98,1.34,5.62,5.62,5.62
88.09,3.62,-1.97,3.62,-1.97,1.97,2.05,1.42,5.59,5.59,5.60
88.97,3.53,-2.04,3.53,-2.05,2.04,2.13,1.50,5.57,5.57,5.58
89.86,3.44,-2.11,3.45,-2.11,2.10,2.20,1.59,5.55,5.55,5.56
90.76,3.37,-2.17,3.37,-2.17,2.16,2.27,1.67,5.53,5.53,5.54
91.66,3.30,-2.22,3.30,-2.22,2.22,2.34,1.76,5.51,5.51,5.52
92.58,3.23,-2.27,3.23,-2.27,2.27,2.40,1.85,5.50,5.50,5.50
93.51,3.16,-2.31,3.16,-2.32,2.32,2.47,1.94,5.48,5.48,5.48
94.44,3.09,-2.37,3.09,-2.37,2.38,2.53,2.03,5.46,5.46,5.46
95.39,3.01,-2.42,3.01,-2.42,2.43,2.59,2.12,5.44,5.44,5.43
96.34,2.92,-2.48,2.92,-2.49,2.49,2.65,2.21,5.41,5.41,5.40
97.30,2.83,-2.55,2.83,-2.55,2.56,2.71,2.31,5.39,5.39,5.38
98.28,2.73,-2.62,2.73,-2.62,2.63,2.77,2.40,5.36,5.36,5.36
99.26,2.63,-2.70,2.63,-2.70,2.70,2.82,2.49,5.33,5.33,5.33
100.25,2.53,-2.77,2.53,-2.77,2.77,2.87,2.59,5.30,5.30,5.31
101.25,2.44,-2.84,2.44,-2.84,2.84,2.92,2.68,5.28,5.28,5.28
102.27,2.34,-2.91,2.34,-2.91,2.91,2.97,2.78,5.25,5.25,5.25
103.29,2.24,-2.98,2.24,-2.98,2.98,3.02,2.87,5.23,5.22,5.23
104.32,2.15,-3.05,2.15,-3.05,3.05,3.06,2.96,5.20,5.20,5.20
105.37,2.06,-3.11,2.06,-3.11,3.11,3.11,3.06,5.16,5.16,5.17
106.42,1.97,-3.17,1.97,-3.17,3.16,3.14,3.15,5.13,5.13,5.14
107.48,1.89,-3.22,1.89,-3.22,3.21,3.18,3.24,5.10,5.10,5.11
108.56,1.82,-3.26,1.82,-3.26,3.25,3.22,3.32,5.07,5.07,5.08
109.64,1.75,-3.29,1.75,-3.29,3.29,3.25,3.41,5.05,5.05,5.05
110.74,1.69,-3.32,1.69,-3.32,3.33,3.28,3.49,5.02,5.02,5.01
111.85,1.63,-3.35,1.63,-3.35,3.36,3.31,3.56,4.99,4.98,4.98
112.97,1.56,-3.38,1.56,-3.38,3.38,3.34,3.63,4.95,4.95,4.95
114.10,1.50,-3.41,1.50,-3.41,3.41,3.36,3.70,4.91,4.91,4.91
115.24,1.44,-3.44,1.44,-3.44,3.43,3.39,3.76,4.87,4.87,4.88
116.39,1.38,-3.46,1.38,-3.46,3.46,3.41,3.82,4.84,4.84,4.84
117.55,1.32,-3.48,1.32,-3.48,3.48,3.42,3.87,4.80,4.80,4.80
118.73,1.26,-3.50,1.26,-3.50,3.50,3.44,3.92,4.77,4.77,4.76
119.92,1.21,-3.52,1.21,-3.52,3.52,3.45,3.95,4.73,4.73,4.73
121.12,1.15,-3.54,1.15,-3.54,3.54,3.46,3.99,4.69,4.69,4.69
122.33,1.09,-3.55,1.09,-3.55,3.55,3.47,4.00,4.65,4.65,4.65
123.55,1.04,-3.57,1.04,-3.57,3.56,3.47,4.02,4.60,4.60,4.61
124.79,0.98,-3.58,0.99,-3.58,3.57,3.48,4.03,4.55,4.55,4.56
126.03,0.94,-3.58,0.94,-3.58,3.57,3.48,4.03,4.51,4.51,4.52
127.29,0.90,-3.57,0.90,-3.57,3.57,3.47,4.02,4.47,4.47,4.48
128.57,0.87,-3.56,0.87,-3.56,3.56,3.47,4.00,4.44,4.43,4.43
129.85,0.84,-3.55,0.84,-3.55,3.56,3.46,3.97,4.40,4.40,4.39
131.15,0.80,-3.54,0.80,-3.54,3.55,3.46,3.95,4.36,4.35,4.34
132.46,0.76,-3.53,0.76,-3.54,3.55,3.44,3.90,4.31,4.31,4.30
133.79,0.72,-3.54,0.72,-3.54,3.54,3.43,3.86,4.26,4.25,4.26
135.12,0.67,-3.53,0.67,-3.53,3.53,3.42,3.81,4.20,4.20,4.20
136.48,0.62,-3.52,0.62,-3.53,3.52,3.40,3.75,4.14,4.14,4.15
137.84,0.58,-3.51,0.58,-3.51,3.51,3.38,3.69,4.09,4.09,4.10
139.22,0.55,-3.49,0.55,-3.49,3.49,3.36,3.62,4.04,4.04,4.04
140.61,0.52,-3.47,0.52,-3.47,3.47,3.33,3.54,3.99,3.99,3.99
142.02,0.49,-3.45,0.49,-3.45,3.45,3.30,3.47,3.94,3.94,3.94
143.44,0.46,-3.43,0.46,-3.42,3.43,3.27,3.39,3.89,3.89,3.88
144.87,0.43,-3.40,0.43,-3.40,3.40,3.24,3.31,3.83,3.83,3.82
146.32,0.39,-3.37,0.39,-3.37,3.38,3.21,3.22,3.77,3.77,3.77
147.78,0.36,-3.35,0.36,-3.35,3.34,3.18,3.13,3.71,3.71,3.71
149.26,0.34,-3.31,0.34,-3.31,3.31,3.14,3.04,3.65,3.65,3.65
150.75,0.32,-3.27,0.32,-3.27,3.27,3.10,2.96,3.59,3.59,3.59
152.26,0.31,-3.22,0.31,-3.23,3.22,3.06,2.86,3.53,3.53,3.53
153.78,0.29,-3.18,0.29,-3.18,3.17,3.01,2.77,3.46,3.46,3.47
155.32,0.28,-3.12,0.28,-3.12,3.12,2.97,2.68,3.40,3.40,3.41
156.88,0.28,-3.06,0.28,-3.06,3.06,2.92,2.59,3.33,3.33,3.34
158.44,0.28,-3.00,0.28,-2.99,2.99,2.87,2.50,3.27,3.27,3.28
160.03,0.28,-2.92,0.28,-2.92,2.93,2.82,2.40,3.22,3.21,3.21
161.63,0.29,-2.85,0.28,-2.86,2.87,2.77,2.31,3.15,3.15,3.14
163.24,0.28,-2.79,0.28,-2.79,2.80,2.72,2.22,3.08,3.08,3.07
164.88,0.27,-2.74,0.27,-2.74,2.74,2.66,2.13,3.01,3.01,3.01
166.53,0.26,-2.68,0.26,-2.68,2.68,2.61,2.04,2.93,2.93,2.94
168.19,0.25,-2.62,0.25,-2.62,2.61,2.55,1.96,2.86,2.86,2.87
169.87,0.24,-2.55,0.24,-2.55,2.55,2.49,1.87,2.79,2.79,2.79
171.57,0.24,-2.48,0.24,-2.48,2.48,2.43,1.79,2.72,2.72,2.72
173.29,0.24,-2.41,0.24,-2.41,2.41,2.36,1.70,2.65,2.65,2.65
175.02,0.25,-2.33,0.25,-2.33,2.33,2.30,1.62,2.58,2.58,2.58
176.77,0.25,-2.25,0.25,-2.25,2.25,2.23,1.54,2.50,2.50,2.50
178.54,0.25,-2.17,0.25,-2.17,2.17,2.17,1.46,2.42,2.42,2.42
180.32,0.26,-2.09,0.26,-2.09,2.09,2.10,1.38,2.35,2.35,2.34
182.13,0.26,-2.00,0.26,-2.00,2.00,2.03,1.30,2.27,2.27,2.27
183.95,0.27,-1.92,0.27,-1.92,1.92,1.96,1.22,2.19,2.19,2.19
185.79,0.28,-1.84,0.28,-1.84,1.84,1.89,1.15,2.12,2.12,2.12
187.65,0.29,-1.75,0.29,-1.75,1.75,1.82,1.07,2.04,2.04,2.04
189.52,0.29,-1.67,0.29,-1.67,1.67,1.74,1.00,1.96,1.96,1.96
191.42,0.29,-1.58,0.29,-1.58,1.59,1.67,0.93,1.88,1.88,1.87
193.33,0.29,-1.50,0.29,-1.50,1.50,1.60,0.85,1.80,1.80,1.79
195.27,0.29,-1.42,0.29,-1.42,1.42,1.52,0.78,1.71,1.71,1.71
197.22,0.29,-1.34,0.29,-1.34,1.34,1.44,0.72,1.63,1.63,1.63
199.19,0.29,-1.26,0.29,-1.26,1.25,1.37,0.65,1.54,1.54,1.55
201.18,0.30,-1.17,0.30,-1.17,1.16,1.29,0.58,1.46,1.46,1.47
203.19,0.31,-1.07,0.31,-1.08,1.08,1.21,0.52,1.39,1.38,1.38
205.23,0.31,-0.99,0.31,-0.99,0.99,1.13,0.46,1.31,1.31,1.30
207.28,0.32,-0.90,0.32,-0.90,0.91,1.06,0.39,1.22,1.22,1.22
209.35,0.32,-0.82,0.32,-0.82,0.82,0.98,0.33,1.14,1.14,1.13
211.44,0.31,-0.74,0.31,-0.74,0.74,0.90,0.27,1.06,1.06,1.05
213.56,0.31,-0.66,0.31,-0.66,0.67,0.82,0.22,0.97,0.97,0.97
215.69,0.30,-0.59,0.30,-0.59,0.59,0.74,0.16,0.89,0.89,0.89
217.85,0.28,-0.52,0.28,-0.52,0.52,0.66,0.11,0.80,0.80,0.80
220.03,0.27,-0.45,0.28,-0.45,0.44,0.59,0.05,0.72,0.72,0.72
222.23,0.27,-0.37,0.27,-0.37,0.37,0.51,0.00,0.64,0.64,0.64
224.45,0.26,-0.30,0.26,-0.30,0.29,0.43,-0.05,0.55,0.55,0.56
226.70,0.26,-0.22,0.26,-0.22,0.22,0.36,-0.09,0.47,0.47,0.47
228.96,0.25,-0.14,0.25,-0.14,0.14,0.28,-0.14,0.39,0.39,0.39
231.25,0.25,-0.06,0.25,-0.06,0.07,0.20,-0.18,0.31,0.31,0.31
233.57,0.24,0.01,0.24,0.01,-0.01,0.13,-0.22,0.23,0.23,0.23
235.90,0.23,0.08,0.23,0.08,-0.08,0.06,-0.26,0.15,0.15,0.15
238.26,0.22,0.15,0.22,0.15,-0.15,-0.02,-0.30,0.07,0.07,0.07
240.64,0.21,0.22,0.21,0.22,-0.21,-0.09,-0.33,-0.01,-0.01,-0.01
243.05,0.19,0.28,0.19,0.28,-0.28,-0.16,-0.37,-0.08,-0.08,-0.09
245.48,0.18,0.34,0.18,0.34,-0.34,-0.23,-0.39,-0.16,-0.16,-0.16
247.93,0.16,0.39,0.16,0.39,-0.39,-0.30,-0.42,-0.23,-0.24,-0.24
250.41,0.13,0.44,0.13,0.44,-0.44,-0.36,-0.45,-0.31,-0.31,-0.31
252.92,0.11,0.49,0.11,0.49,-0.49,-0.43,-0.47,-0.39,-0.39,-0.39
255.45,0.08,0.54,0.08,0.54,-0.54,-0.49,-0.49,-0.46,-0.46,-0.46
258.00,0.06,0.59,0.06,0.59,-0.59,-0.55,-0.51,-0.53,-0.53,-0.53
260.58,0.03,0.63,0.03,0.63,-0.63,-0.61,-0.52,-0.60,-0.60,-0.60
263.19,0.01,0.68,0.01,0.67,-0.67,-0.67,-0.54,-0.66,-0.66,-0.66
265.82,-0.01,0.72,-0.01,0.72,-0.71,-0.72,-0.55,-0.73,-0.73,-0.73
268.48,-0.04,0.75,-0.04,0.75,-0.75,-0.77,-0.56,-0.79,-0.79,-0.79
271.16,-0.06,0.79,-0.06,0.79,-0.79,-0.83,-0.57,-0.85,-0.85,-0.85
273.87,-0.09,0.83,-0.09,0.83,-0.83,-0.87,-0.58,-0.91,-0.91,-0.91
276.61,-0.11,0.87,-0.11,0.86,-0.86,-0.92,-0.58,-0.97,-0.97,-0.98
279.38,-0.13,0.90,-0.13,0.90,-0.90,-0.96,-0.58,-1.03,-1.03,-1.03
282.17,-0.16,0.93,-0.16,0.93,-0.93,-1.01,-0.59,-1.09,-1.09,-1.09
284.99,-0.18,0.96,-0.18,0.96,-0.96,-1.05,-0.59,-1.14,-1.14,-1.14
287.84,-0.20,0.99,-0.20,0.99,-1.00,-1.08,-0.59,-1.19,-1.19,-1.19
290.72,-0.22,1.03,-0.22,1.03,-1.03,-1.12,-0.59,-1.24,-1.24,-1.25
293.63,-0.24,1.06,-0.24,1.06,-1.06,-1.15,-0.59,-1.29,-1.29,-1.29
296.57,-0.25,1.09,-0.25,1.09,-1.08,-1.18,-0.58,-1.34,-1.34,-1.34
299.53,-0.27,1.12,-0.27,1.11,-1.11,-1.20,-0.58,-1.38,-1.38,-1.39
302.53,-0.29,1.14,-0.29,1.14,-1.14,-1.23,-0.58,-1.43,-1.43,-1.42
305.55,-0.31,1.16,-0.31,1.16,-1.16,-1.25,-0.57,-1.47,-1.47,-1.46
308.61,-0.32,1.19,-0.32,1.19,-1.19,-1.27,-0.57,-1.51,-1.51,-1.51
311.69,-0.34,1.21,-0.34,1.21,-1.21,-1.29,-0.57,-1.55,-1.55,-1.55
314.81,-0.36,1.23,-0.35,1.23,-1.23,-1.31,-0.56,-1.59,-1.59,-1.58
317.96,-0.37,1.25,-0.37,1.25,-1.25,-1.32,-0.56,-1.62,-1.62,-1.62
321.14,-0.39,1.27,-0.39,1.27,-1.27,-1.33,-0.56,-1.66,-1.66,-1.66
324.35,-0.40,1.29,-0.40,1.29,-1.29,-1.34,-0.55,-1.69,-1.69,-1.69
327.59,-0.41,1.30,-0.41,1.30,-1.30,-1.35,-0.55,-1.72,-1.72,-1.72
330.87,-0.43,1.32,-0.43,1.32,-1.32,-1.35,-0.55,-1.75,-1.75,-1.75
334.18,-0.44,1.33,-0.44,1.33,-1.33,-1.35,-0.54,-1.77,-1.77,-1.77
337.52,-0.45,1.34,-0.45,1.34,-1.34,-1.35,-0.54,-1.80,-1.80,-1.80
340.90,-0.47,1.35,-0.47,1.35,-1.35,-1.35,-0.54,-1.82,-1.82,-1.82
344.30,-0.48,1.36,-0.48,1.36,-1.36,-1.35,-0.54,-1.84,-1.84,-1.84
347.75,-0.50,1.36,-0.50,1.36,-1.36,-1.35,-0.54,-1.86,-1.86,-1.86
351.23,-0.51,1.37,-0.51,1.37,-1.36,-1.34,-0.54,-1.88,-1.88,-1.88
354.74,-0.53,1.37,-0.53,1.36,-1.37,-1.34,-0.53,-1.89,-1.89,-1.90
358.28,-0.54,1.36,-0.54,1.36,-1.37,-1.33,-0.53,-1.91,-1.91,-1.90
361.87,-0.56,1.36,-0.56,1.36,-1.37,-1.32,-0.54,-1.92,-1.92,-1.92
365.49,-0.57,1.36,-0.57,1.36,-1.36,-1.31,-0.54,-1.94,-1.94,-1.94
369.14,-0.59,1.37,-0.59,1.36,-1.36,-1.30,-0.54,-1.95,-1.95,-1.96
372.83,-0.60,1.36,-0.60,1.36,-1.36,-1.29,-0.54,-1.96,-1.96,-1.96
376.56,-0.62,1.35,-0.62,1.35,-1.35,-1.27,-0.54,-1.97,-1.97,-1.97
380.33,-0.64,1.34,-0.63,1.34,-1.34,-1.26,-0.55,-1.98,-1.98,-1.98
384.13,-0.65,1.34,-0.65,1.33,-1.33,-1.25,-0.55,-1.99,-1.99,-1.99
387.97,-0.67,1.33,-0.67,1.33,-1.32,-1.23,-0.55,-1.99,-1.99,-1.99
391.85,-0.68,1.31,-0.68,1.31,-1.31,-1.22,-0.56,-2.00,-2.00,-2.00
395.77,-0.70,1.30,-0.70,1.30,-1.30,-1.20,-0.56,-2.00,-2.00,-2.00
399.73,-0.72,1.28,-0.72,1.29,-1.29,-1.18,-0.57,-2.00,-2.00,-2.00
403.72,-0.73,1.27,-0.73,1.27,-1.27,-1.16,-0.57,-2.01,-2.01,-2.01
407.76,-0.75,1.26,-0.75,1.26,-1.26,-1.15,-0.58,-2.01,-2.01,-2.01
411.84,-0.77,1.25,-0.77,1.24,-1.24,-1.13,-0.58,-2.01,-2.01,-2.01
415.96,-0.78,1.22,-0.78,1.23,-1.22,-1.11,-0.59,-2.01,-2.01,-2.01
420.12,-0.80,1.20,-0.80,1.20,-1.21,-1.09,-0.60,-2.01,-2.01,-2.01
424.32,-0.82,1.19,-0.82,1.19,-1.19,-1.08,-0.60,-2.01,-2.01,-2.01
428.56,-0.84,1.17,-0.84,1.17,-1.17,-1.06,-0.61,-2.01,-2.01,-2.01
432.85,-0.86,1.15,-0.86,1.16,-1.16,-1.04,-0.62,-2.01,-2.01,-2.01
437.18,-0.88,1.14,-0.88,1.14,-1.14,-1.02,-0.63,-2.02,-2.02,-2.02
441.55,-0.90,1.12,-0.90,1.12,-1.12,-1.00,-0.63,-2.02,-2.02,-2.02
445.96,-0.92,1.10,-0.92,1.10,-1.10,-0.98,-0.64,-2.02,-2.02,-2.02
450.42,-0.94,1.08,-0.94,1.08,-1.08,-0.97,-0.65,-2.02,-2.02,-2.01
454.93,-0.96,1.05,-0.96,1.05,-1.05,-0.95,-0.66,-2.01,-2.01,-2.01
459.48,-0.98,1.03,-0.98,1.03,-1.03,-0.93,-0.66,-2.00,-2.00,-2.01
464.07,-1.00,1.00,-1.00,1.00,-1.00,-0.91,-0.67,-1.99,-1.99,-2.00
468.71,-1.01,0.97,-1.02,0.97,-0.96,-0.90,-0.68,-1.98,-1.98,-1.98
473.40,-1.03,0.93,-1.03,0.93,-0.93,-0.88,-0.69,-1.96,-1.96,-1.96
478.13,-1.05,0.89,-1.05,0.89,-0.89,-0.86,-0.69,-1.94,-1.94,-1.94
482.91,-1.06,0.86,-1.06,0.85,-0.86,-0.85,-0.70,-1.92,-1.92,-1.92
487.74,-1.08,0.82,-1.08,0.82,-0.83,-0.83,-0.71,-1.90,-1.90,-1.90
492.62,-1.09,0.79,-1.09,0.79,-0.80,-0.81,-0.71,-1.89,-1.89,-1.88
497.55,-1.11,0.76,-1.11,0.76,-0.77,-0.80,-0.72,-1.88,-1.88,-1.87
502.52,-1.12,0.74,-1.12,0.74,-0.75,-0.78,-0.72,-1.87,-1.87,-1.86
507.55,-1.13,0.73,-1.13,0.73,-0.73,-0.77,-0.73,-1.86,-1.86,-1.86
512.62,-1.14,0.72,-1.14,0.72,-0.72,-0.75,-0.74,-1.86,-1.86,-1.86
