frequency,raw,error,smoothed,error_smoothed,equalization,parametric_eq,fixed_band_eq,equalized_raw,equalized_smoothed,target
20.00,5.79,-4.02,5.79,-4.02,4.02,3.71,1.51,9.81,9.81,9.81
20.20,5.83,-3.99,5.83,-3.99,3.99,3.78,1.55,9.81,9.81,9.81
20.40,5.86,-3.96,5.86,-3.96,3.96,3.85,1.60,9.82,9.82,9.82
20.61,5.89,-3.93,5.89,-3.93,3.93,3.92,1.64,9.82,9.82,9.82
20.81,5.92,-3.91,5.92,-3.91,3.91,3.99,1.69,9.83,9.83,9.83
21.02,5.95,-3.88,5.95,-3.88,3.89,4.03,1.74,9.83,9.83,9.83
21.23,5.98,-3.86,5.98,-3.86,3.86,4.08,1.79,9.84,9.84,9.84
21.44,6.01,-3.84,6.01,-3.84,3.84,4.08,1.85,9.85,9.85,9.85
21.66,6.03,-3.82,6.03,-3.82,3.82,4.08,1.90,9.85,9.85,9.85
21.87,6.06,-3.80,6.06,-3.80,3.81,4.03,1.96,9.86,9.86,9.86
22.09,6.08,-3.79,6.08,-3.79,3.79,3.98,2.01,9.87,9.87,9.87
22.31,6.11,-3.77,6.11,-3.77,3.77,3.92,2.07,9.88,9.88,9.88
22.54,6.13,-3.76,6.13,-3.76,3.76,3.85,2.13,9.89,9.89,9.89
22.76,6.15,-3.74,6.15,-3.74,3.74,3.78,2.20,9.90,9.90,9.90
22.99,6.18,-3.73,6.18,-3.73,3.72,3.70,2.26,9.90,9.90,9.90
23.22,6.20,-3.71,6.20,-3.71,3.71,3.64,2.32,9.91,9.91,9.91
23.45,6.22,-3.69,6.22,-3.69,3.69,3.58,2.39,9.91,9.91,9.91
23.69,6.24,-3.67,6.24,-3.67,3.67,3.53,2.46,9.91,9.91,9.91
23.92,6.26,-3.65,6.26,-3.65,3.65,3.49,2.53,9.91,9.91,9.91
24.16,6.28,-3.63,6.28,-3.63,3.63,3.45,2.60,9.91,9.91,9.91
24.40,6.30,-3.60,6.30,-3.60,3.61,3.41,2.67,9.91,9.91,9.91
24.65,6.32,-3.58,6.32,-3.58,3.59,3.38,2.74,9.91,9.91,9.91
24.89,6.34,-3.57,6.34,-3.57,3.57,3.35,2.81,9.92,9.92,9.91
25.14,6.36,-3.55,6.36,-3.55,3.56,3.33,2.89,9.92,9.92,9.92
25.39,6.38,-3.54,6.38,-3.54,3.54,3.30,2.96,9.93,9.93,9.93
25.65,6.40,-3.53,6.40,-3.53,3.53,3.28,3.04,9.93,9.93,9.93
25.91,6.42,-3.52,6.42,-3.52,3.51,3.27,3.11,9.94,9.94,9.94
26.16,6.44,-3.50,6.44,-3.50,3.50,3.25,3.18,9.94,9.94,9.95
26.43,6.46,-3.48,6.46,-3.48,3.48,3.24,3.26,9.95,9.95,9.95
26.69,6.48,-3.47,6.48,-3.47,3.47,3.22,3.33,9.95,9.95,9.95
26.96,6.50,-3.45,6.50,-3.45,3.45,3.21,3.40,9.95,9.95,9.95
27.23,6.52,-3.42,6.52,-3.42,3.42,3.20,3.47,9.94,9.94,9.94
27.50,6.54,-3.40,6.54,-3.40,3.40,3.19,3.54,9.94,9.94,9.94
27.77,6.56,-3.38,6.56,-3.38,3.37,3.18,3.60,9.93,9.93,9.93
28.05,6.57,-3.35,6.57,-3.35,3.35,3.17,3.67,9.92,9.92,9.92
28.33,6.59,-3.32,6.59,-3.32,3.32,3.16,3.73,9.91,9.91,9.91
28.62,6.61,-3.29,6.61,-3.29,3.29,3.16,3.78,9.90,9.90,9.90
28.90,6.62,-3.26,6.62,-3.27,3.27,3.15,3.84,9.89,9.89,9.89
29.19,6.64,-3.24,6.64,-3.24,3.24,3.14,3.88,9.88,9.88,9.88
29.48,6.65,-3.22,6.65,-3.22,3.22,3.13,3.93,9.88,9.88,9.87
29.78,6.66,-3.20,6.66,-3.20,3.21,3.13,3.97,9.87,9.87,9.87
30.08,6.68,-3.19,6.68,-3.19,3.20,3.12,4.00,9.88,9.88,9.87
30.38,6.69,-3.19,6.69,-3.19,3.19,3.11,4.03,9.88,9.88,9.88
30.68,6.70,-3.19,6.70,-3.19,3.18,3.11,4.05,9.89,9.89,9.89
30.99,6.71,-3.18,6.71,-3.18,3.18,3.10,4.07,9.89,9.89,9.90
31.30,6.72,-3.18,6.72,-3.18,3.17,3.10,4.08,9.89,9.89,9.90
31.61,6.74,-3.17,6.73,-3.17,3.16,3.09,4.09,9.89,9.89,9.90
31.93,6.74,-3.15,6.74,-3.15,3.15,3.08,4.09,9.89,9.89,9.90
32.24,6.75,-3.13,6.75,-3.13,3.13,3.08,4.08,9.89,9.89,9.89
32.57,6.76,-3.11,6.76,-3.11,3.11,3.07,4.07,9.88,9.88,9.87
32.89,6.77,-3.09,6.77,-3.09,3.10,3.07,4.05,9.87,9.87,9.86
33.22,6.78,-3.07,6.78,-3.08,3.08,3.06,4.03,9.86,9.86,9.86
33.55,6.79,-3.06,6.79,-3.06,3.07,3.06,4.01,9.85,9.85,9.85
33.89,6.80,-3.05,6.80,-3.05,3.05,3.05,3.98,9.85,9.85,9.85
34.23,6.80,-3.04,6.80,-3.04,3.04,3.05,3.94,9.84,9.84,9.84
34.57,6.81,-3.03,6.81,-3.03,3.02,3.04,3.90,9.83,9.83,9.84
34.92,6.82,-3.01,6.82,-3.01,3.01,3.04,3.86,9.83,9.83,9.83
35.27,6.83,-2.99,6.83,-3.00,3.00,3.03,3.82,9.82,9.82,9.82
35.62,6.83,-2.98,6.83,-2.98,2.98,3.02,3.77,9.81,9.81,9.81
35.97,6.84,-2.97,6.84,-2.97,2.97,3.02,3.73,9.81,9.81,9.80
36.33,6.84,-2.95,6.84,-2.95,2.96,3.01,3.68,9.80,9.80,9.80
36.70,6.85,-2.94,6.85,-2.94,2.94,3.01,3.63,9.79,9.79,9.79
37.06,6.85,-2.93,6.85,-2.93,2.93,3.00,3.58,9.78,9.78,9.79
37.43,6.86,-2.92,6.86,-2.92,2.92,3.00,3.52,9.78,9.78,9.78
37.81,6.86,-2.91,6.86,-2.91,2.91,2.99,3.47,9.77,9.77,9.77
38.19,6.86,-2.90,6.86,-2.90,2.90,2.99,3.42,9.76,9.76,9.76
38.57,6.87,-2.88,6.87,-2.88,2.88,2.98,3.37,9.75,9.75,9.75
38.95,6.87,-2.87,6.87,-2.87,2.87,2.97,3.32,9.74,9.74,9.74
39.34,6.87,-2.86,6.87,-2.86,2.86,2.97,3.27,9.73,9.73,9.73
39.74,6.87,-2.85,6.87,-2.85,2.85,2.96,3.22,9.72,9.72,9.72
40.14,6.87,-2.84,6.87,-2.84,2.84,2.96,3.18,9.71,9.71,9.71
40.54,6.87,-2.82,6.87,-2.82,2.82,2.95,3.13,9.70,9.70,9.70
40.94,6.87,-2.81,6.87,-2.81,2.81,2.94,3.09,9.68,9.68,9.68
41.35,6.87,-2.80,6.87,-2.80,2.80,2.94,3.04,9.67,9.67,9.67
41.76,6.87,-2.79,6.87,-2.79,2.79,2.93,3.00,9.66,9.66,9.66
42.18,6.86,-2.78,6.86,-2.78,2.78,2.92,2.97,9.65,9.65,9.65
42.60,6.86,-2.78,6.86,-2.78,2.78,2.92,2.93,9.64,9.64,9.64
43.03,6.86,-2.77,6.86,-2.77,2.77,2.91,2.90,9.62,9.62,9.63
43.46,6.85,-2.76,6.85,-2.76,2.76,2.91,2.86,9.61,9.61,9.61
43.90,6.85,-2.75,6.85,-2.75,2.75,2.90,2.83,9.60,9.60,9.60
44.33,6.84,-2.75,6.84,-2.75,2.75,2.89,2.81,9.59,9.59,9.59
44.78,6.84,-2.74,6.84,-2.74,2.74,2.89,2.78,9.58,9.58,9.58
45.23,6.83,-2.74,6.83,-2.74,2.74,2.88,2.76,9.57,9.57,9.57
45.68,6.82,-2.73,6.82,-2.73,2.73,2.87,2.74,9.56,9.56,9.56
46.13,6.81,-2.73,6.82,-2.73,2.73,2.87,2.72,9.55,9.55,9.55
46.60,6.81,-2.73,6.81,-2.73,2.73,2.86,2.70,9.53,9.53,9.53
47.06,6.80,-2.72,6.80,-2.72,2.72,2.85,2.69,9.52,9.52,9.52
47.53,6.79,-2.72,6.79,-2.72,2.72,2.84,2.67,9.51,9.51,9.51
48.01,6.78,-2.71,6.78,-2.71,2.71,2.84,2.66,9.49,9.49,9.49
48.49,6.77,-2.71,6.77,-2.71,2.71,2.83,2.65,9.48,9.48,9.48
48.97,6.76,-2.70,6.76,-2.70,2.70,2.82,2.65,9.46,9.46,9.46
49.46,6.75,-2.70,6.75,-2.70,2.70,2.82,2.64,9.45,9.45,9.45
49.96,6.74,-2.69,6.74,-2.69,2.69,2.81,2.64,9.43,9.43,9.43
50.46,6.73,-2.69,6.73,-2.69,2.69,2.80,2.63,9.41,9.41,9.41
50.96,6.72,-2.68,6.72,-2.68,2.68,2.79,2.63,9.40,9.40,9.40
51.47,6.70,-2.67,6.70,-2.68,2.67,2.79,2.63,9.38,9.38,9.38
51.99,6.69,-2.67,6.69,-2.67,2.67,2.78,2.63,9.36,9.36,9.36
52.51,6.68,-2.66,6.68,-2.66,2.66,2.77,2.64,9.34,9.34,9.34
53.03,6.67,-2.66,6.67,-2.66,2.66,2.76,2.64,9.32,9.32,9.32
53.56,6.65,-2.65,6.65,-2.65,2.65,2.76,2.64,9.30,9.30,9.30
54.10,6.64,-2.64,6.64,-2.64,2.65,2.75,2.65,9.29,9.29,9.28
54.64,6.62,-2.64,6.62,-2.64,2.64,2.74,2.65,9.27,9.27,9.27
55.18,6.61,-2.64,6.61,-2.64,2.64,2.73,2.66,9.25,9.25,9.25
55.74,6.59,-2.64,6.59,-2.64,2.64,2.73,2.66,9.23,9.23,9.23
56.29,6.58,-2.63,6.58,-2.63,2.63,2.72,2.67,9.21,9.21,9.21
56.86,6.56,-2.63,6.56,-2.63,2.62,2.71,2.67,9.19,9.19,9.19
57.42,6.55,-2.62,6.55,-2.62,2.62,2.70,2.67,9.16,9.16,9.16
58.00,6.53,-2.61,6.53,-2.61,2.61,2.69,2.68,9.14,9.14,9.14
58.58,6.51,-2.60,6.51,-2.60,2.60,2.69,2.68,9.12,9.12,9.11
59.16,6.50,-2.59,6.50,-2.59,2.60,2.68,2.68,9.09,9.09,9.09
59.76,6.48,-2.59,6.48,-2.59,2.59,2.67,2.68,9.07,9.07,9.07
60.35,6.46,-2.58,6.46,-2.58,2.58,2.66,2.68,9.04,9.04,9.04
60.96,6.44,-2.58,6.44,-2.58,2.58,2.65,2.67,9.02,9.02,9.02
61.57,6.42,-2.58,6.42,-2.57,2.57,2.65,2.67,9.00,9.00,9.00
62.18,6.40,-2.57,6.40,-2.57,2.57,2.64,2.66,8.97,8.97,8.98
62.80,6.38,-2.57,6.38,-2.57,2.57,2.63,2.66,8.95,8.95,8.95
63.43,6.36,-2.56,6.36,-2.56,2.56,2.62,2.65,8.93,8.93,8.93
64.07,6.34,-2.56,6.34,-2.56,2.56,2.61,2.64,8.90,8.90,8.90
64.71,6.32,-2.56,6.32,-2.56,2.56,2.61,2.62,8.88,8.88,8.88
65.35,6.30,-2.55,6.30,-2.55,2.55,2.60,2.61,8.85,8.85,8.85
66.01,6.27,-2.55,6.27,-2.55,2.55,2.59,2.59,8.82,8.82,8.82
66.67,6.25,-2.55,6.25,-2.55,2.55,2.58,2.58,8.80,8.80,8.80
67.33,6.23,-2.54,6.23,-2.54,2.54,2.58,2.56,8.77,8.77,8.77
68.01,6.20,-2.53,6.20,-2.54,2.54,2.57,2.54,8.74,8.74,8.74
68.69,6.18,-2.53,6.18,-2.53,2.53,2.56,2.52,8.71,8.71,8.71
69.37,6.15,-2.53,6.15,-2.53,2.53,2.55,2.50,8.68,8.68,8.68
70.07,6.13,-2.53,6.13,-2.52,2.52,2.54,2.48,8.65,8.65,8.65
70.77,6.10,-2.52,6.10,-2.52,2.52,2.54,2.45,8.62,8.62,8.62
71.48,6.07,-2.51,6.07,-2.51,2.51,2.53,2.43,8.59,8.59,8.58
72.19,6.04,-2.51,6.04,-2.51,2.51,2.52,2.41,8.55,8.55,8.55
72.91,6.01,-2.51,6.01,-2.51,2.51,2.51,2.39,8.52,8.52,8.52
73.64,5.98,-2.51,5.98,-2.51,2.51,2.51,2.37,8.49,8.49,8.49
74.38,5.95,-2.51,5.95,-2.51,2.51,2.50,2.34,8.46,8.46,8.46
75.12,5.92,-2.51,5.92,-2.51,2.51,2.49,2.32,8.43,8.43,8.43
75.87,5.88,-2.52,5.88,-2.52,2.51,2.48,2.30,8.40,8.40,8.40
76.63,5.85,-2.52,5.85,-2.52,2.52,2.48,2.28,8.37,8.37,8.37
77.40,5.81,-2.52,5.81,-2.52,2.52,2.47,2.26,8.33,8.33,8.33
78.17,5.78,-2.52,5.78,-2.52,2.52,2.46,2.25,8.30,8.30,8.30
78.95,5.74,-2.53,5.74,-2.53,2.53,2.46,2.23,8.27,8.27,8.27
79.74,5.70,-2.53,5.70,-2.53,2.53,2.45,2.21,8.23,8.23,8.23
80.54,5.66,-2.53,5.66,-2.53,2.53,2.44,2.20,8.19,8.19,8.19
81.35,5.62,-2.53,5.62,-2.54,2.54,2.43,2.19,8.16,8.16,8.15
82.16,5.58,-2.55,5.58,-2.55,2.55,2.43,2.18,8.13,8.13,8.13
82.98,5.54,-2.56,5.54,-2.55,2.55,2.42,2.17,8.09,8.09,8.09
83.81,5.50,-2.56,5.50,-2.56,2.56,2.41,2.16,8.06,8.06,8.06
84.65,5.45,-2.57,5.45,-2.57,2.57,2.41,2.15,8.03,8.03,8.02
85.50,5.41,-2.58,5.41,-2.58,2.59,2.40,2.15,8.00,8.00,7.99
86.35,5.37,-2.60,5.37,-2.60,2.60,2.40,2.14,7.97,7.97,7.97
87.22,5.33,-2.61,5.33,-2.60,2.61,2.39,2.14,7.93,7.93,7.94
88.09,5.29,-2.61,5.29,-2.61,2.61,2.38,2.14,7.90,7.90,7.90
88.97,5.25,-2.61,5.25,-2.62,2.61,2.38,2.14,7.87,7.87,7.86
89.86,5.21,-2.62,5.21,-2.62,2.61,2.37,2.14,7.83,7.83,7.84
90.76,5.18,-2.62,5.18,-2.62,2.61,2.37,2.15,7.79,7.79,7.80
91.66,5.14,-2.61,5.14,-2.61,2.60,2.36,2.15,7.75,7.75,7.75
92.58,5.11,-2.59,5.11,-2.59,2.59,2.36,2.16,7.70,7.70,7.70
93.51,5.08,-2.57,5.08,-2.58,2.58,2.35,2.17,7.66,7.66,7.65
94.44,5.05,-2.56,5.05,-2.56,2.56,2.35,2.18,7.61,7.61,7.61
95.39,5.02,-2.55,5.02,-2.55,2.55,2.34,2.19,7.57,7.57,7.57
96.34,4.99,-2.53,4.99,-2.53,2.53,2.33,2.21,7.53,7.53,7.53
97.30,4.97,-2.51,4.97,-2.51,2.52,2.33,2.22,7.49,7.48,7.48
98.28,4.94,-2.50,4.94,-2.50,2.50,2.33,2.24,7.44,7.44,7.44
99.26,4.92,-2.49,4.92,-2.49,2.48,2.32,2.25,7.40,7.40,7.40
100.25,4.89,-2.48,4.89,-2.47,2.47,2.32,2.27,7.36,7.36,7.37
101.25,4.86,-2.46,4.86,-2.46,2.45,2.31,2.29,7.31,7.31,7.32
102.27,4.84,-2.43,4.84,-2.43,2.43,2.31,2.31,7.27,7.27,7.27
103.29,4.81,-2.41,4.81,-2.41,2.41,2.30,2.33,7.22,7.22,7.22
104.32,4.78,-2.39,4.78,-2.39,2.40,2.30,2.35,7.18,7.18,7.17
105.37,4.75,-2.38,4.75,-2.38,2.38,2.29,2.37,7.13,7.13,7.13
106.42,4.72,-2.37,4.72,-2.37,2.36,2.29,2.39,7.08,7.09,7.09
107.48,4.69,-2.35,4.69,-2.35,2.35,2.28,2.41,7.04,7.04,7.04
108.56,4.66,-2.33,4.66,-2.33,2.33,2.28,2.43,6.99,6.99,6.99
109.64,4.63,-2.31,4.63,-2.31,2.32,2.28,2.45,6.95,6.95,6.94
110.74,4.59,-2.30,4.59,-2.30,2.30,2.27,2.47,6.90,6.90,6.90
111.85,4.56,-2.30,4.56,-2.30,2.29,2.27,2.49,6.85,6.85,6.86
112.97,4.52,-2.29,4.52,-2.28,2.27,2.26,2.51,6.79,6.79,6.81
114.10,4.49,-2.27,4.49,-2.26,2.26,2.26,2.52,6.75,6.75,6.75
115.24,4.45,-2.24,4.45,-2.24,2.25,2.26,2.53,6.70,6.70,6.69
116.39,4.41,-2.22,4.41,-2.22,2.25,2.25,2.55,6.66,6.66,6.63
117.55,4.37,-2.21,4.37,-2.22,2.24,2.25,2.56,6.62,6.62,6.59
118.73,4.33,-2.23,4.33,-2.23,2.24,2.24,2.57,6.57,6.57,6.56
119.92,4.29,-2.25,4.29,-2.25,2.23,2.24,2.57,6.53,6.53,6.54
121.12,4.25,-2.26,4.25,-2.25,2.23,2.23,2.58,6.48,6.48,6.51
122.33,4.21,-2.25,4.21,-2.24,2.22,2.23,2.58,6.43,6.43,6.46
123.55,4.17,-2.22,4.17,-2.22,2.20,2.22,2.57,6.37,6.37,6.39
124.79,4.13,-2.19,4.13,-2.19,2.18,2.22,2.57,6.31,6.31,6.31
126.03,4.09,-2.15,4.09,-2.15,2.16,2.21,2.56,6.25,6.25,6.24
127.29,4.04,-2.12,4.04,-2.13,2.14,2.21,2.55,6.18,6.18,6.17
128.57,4.00,-2.10,4.00,-2.10,2.12,2.20,2.54,6.12,6.12,6.10
129.85,3.96,-2.09,3.96,-2.09,2.10,2.19,2.52,6.06,6.06,6.05
131.15,3.92,-2.08,3.92,-2.08,2.09,2.19,2.51,6.01,6.01,6.00
132.46,3.87,-2.08,3.87,-2.08,2.08,2.18,2.49,5.96,5.96,5.96
133.79,3.83,-2.08,3.83,-2.08,2.08,2.18,2.47,5.91,5.91,5.91
135.12,3.79,-2.08,3.79,-2.08,2.08,2.17,2.44,5.87,5.87,5.88
136.48,3.75,-2.09,3.75,-2.09,2.08,2.16,2.41,5.83,5.83,5.83
137.84,3.71,-2.08,3.71,-2.08,2.08,2.15,2.39,5.79,5.79,5.79
139.22,3.67,-2.08,3.67,-2.08,2.07,2.15,2.36,5.74,5.74,5.75
140.61,3.62,-2.07,3.62,-2.07,2.06,2.14,2.33,5.69,5.69,5.69
142.02,3.58,-2.05,3.58,-2.05,2.05,2.13,2.29,5.63,5.63,5.64
143.44,3.54,-2.04,3.54,-2.04,2.03,2.12,2.26,5.58,5.58,5.58
144.87,3.50,-2.02,3.50,-2.02,2.02,2.11,2.23,5.52,5.52,5.52
146.32,3.46,-2.00,3.46,-2.00,2.00,2.10,2.19,5.46,5.46,5.46
147.78,3.42,-1.98,3.42,-1.98,1.99,2.09,2.16,5.41,5.41,5.40
149.26,3.38,-1.97,3.38,-1.97,1.98,2.08,2.12,5.36,5.36,5.35
150.75,3.34,-1.96,3.34,-1.96,1.98,2.07,2.09,5.32,5.32,5.30
152.26,3.30,-1.96,3.30,-1.96,1.98,2.06,2.05,5.28,5.28,5.26
153.78,3.26,-1.97,3.26,-1.97,1.98,2.04,2.02,5.24,5.24,5.23
155.32,3.22,-1.97,3.22,-1.97,1.97,2.03,1.98,5.19,5.19,5.19
156.88,3.18,-1.98,3.18,-1.98,1.95,2.02,1.95,5.13,5.13,5.15
158.44,3.14,-1.96,3.14,-1.96,1.93,2.00,1.92,5.07,5.07,5.10
160.03,3.10,-1.94,3.10,-1.93,1.89,1.99,1.89,4.99,4.99,5.04
161.63,3.06,-1.88,3.06,-1.88,1.85,1.98,1.86,4.91,4.91,4.94
163.24,3.02,-1.81,3.02,-1.80,1.81,1.96,1.82,4.83,4.83,4.83
164.88,2.98,-1.72,2.98,-1.73,1.77,1.95,1.80,4.75,4.75,4.70
166.53,2.94,-1.68,2.94,-1.68,1.73,1.93,1.77,4.67,4.67,4.62
168.19,2.90,-1.66,2.90,-1.66,1.69,1.91,1.74,4.59,4.59,4.56
169.87,2.86,-1.67,2.86,-1.67,1.66,1.90,1.71,4.52,4.52,4.53
171.57,2.82,-1.68,2.82,-1.67,1.63,1.88,1.69,4.45,4.45,4.50
173.29,2.78,-1.67,2.78,-1.66,1.62,1.86,1.67,4.40,4.40,4.45
175.02,2.74,-1.63,2.74,-1.63,1.61,1.85,1.65,4.35,4.35,4.37
176.77,2.70,-1.59,2.70,-1.59,1.62,1.83,1.62,4.31,4.31,4.29
178.54,2.66,-1.57,2.66,-1.58,1.62,1.81,1.60,4.28,4.28,4.23
180.32,2.62,-1.59,2.62,-1.60,1.64,1.79,1.59,4.25,4.25,4.21
182.13,2.58,-1.65,2.58,-1.64,1.65,1.77,1.57,4.23,4.23,4.22
183.95,2.53,-1.70,2.53,-1.69,1.68,1.75,1.55,4.21,4.21,4.23
185.79,2.49,-1.73,2.49,-1.73,1.71,1.74,1.54,4.20,4.20,4.23
187.65,2.45,-1.76,2.45,-1.76,1.74,1.72,1.52,4.19,4.19,4.21
189.52,2.41,-1.77,2.41,-1.78,1.77,1.70,1.51,4.18,4.18,4.18
191.42,2.37,-1.79,2.37,-1.79,1.79,1.68,1.50,4.16,4.16,4.16
193.33,2.32,-1.80,2.32,-1.80,1.80,1.66,1.49,4.12,4.12,4.13
195.27,2.28,-1.81,2.28,-1.81,1.80,1.64,1.48,4.08,4.08,4.09
197.22,2.24,-1.80,2.24,-1.80,1.79,1.61,1.47,4.03,4.03,4.03
199.19,2.19,-1.78,2.19,-1.78,1.78,1.59,1.46,3.97,3.97,3.97
201.18,2.15,-1.76,2.15,-1.76,1.76,1.57,1.46,3.91,3.91,3.91
203.19,2.11,-1.74,2.11,-1.74,1.74,1.55,1.45,3.85,3.85,3.85
205.23,2.07,-1.72,2.07,-1.72,1.72,1.53,1.45,3.79,3.79,3.78
207.28,2.02,-1.70,2.02,-1.70,1.70,1.51,1.44,3.72,3.72,3.72
209.35,1.98,-1.67,1.98,-1.67,1.68,1.49,1.44,3.66,3.66,3.65
211.44,1.94,-1.65,1.94,-1.65,1.66,1.47,1.43,3.59,3.59,3.59
213.56,1.89,-1.63,1.89,-1.63,1.64,1.45,1.43,3.53,3.53,3.53
215.69,1.85,-1.62,1.85,-1.62,1.62,1.43,1.43,3.46,3.46,3.46
217.85,1.80,-1.60,1.80,-1.60,1.60,1.41,1.42,3.40,3.40,3.40
220.03,1.76,-1.58,1.76,-1.58,1.58,1.38,1.42,3.34,3.34,3.34
222.23,1.72,-1.56,1.72,-1.56,1.56,1.36,1.42,3.28,3.28,3.28
224.45,1.68,-1.54,1.68,-1.54,1.54,1.34,1.41,3.22,3.22,3.22
226.70,1.63,-1.52,1.63,-1.52,1.52,1.32,1.41,3.15,3.15,3.15
228.96,1.59,-1.50,1.59,-1.50,1.50,1.30,1.40,3.09,3.09,3.09
231.25,1.55,-1.48,1.55,-1.48,1.48,1.28,1.40,3.03,3.03,3.03
233.57,1.51,-1.46,1.51,-1.46,1.46,1.26,1.39,2.97,2.97,2.97
235.90,1.46,-1.44,1.46,-1.44,1.44,1.24,1.38,2.91,2.91,2.91
238.26,1.42,-1.42,1.42,-1.42,1.42,1.22,1.38,2.85,2.85,2.85
240.64,1.38,-1.40,1.38,-1.40,1.40,1.20,1.37,2.78,2.78,2.78
243.05,1.34,-1.38,1.34,-1.38,1.38,1.18,1.36,2.72,2.72,2.72
245.48,1.30,-1.36,1.30,-1.36,1.36,1.16,1.35,2.66,2.66,2.66
247.93,1.27,-1.33,1.26,-1.33,1.33,1.14,1.34,2.60,2.60,2.60
250.41,1.23,-1.31,1.23,-1.31,1.31,1.12,1.32,2.54,2.54,2.54
252.92,1.19,-1.29,1.19,-1.29,1.29,1.10,1.31,2.48,2.48,2.48
255.45,1.15,-1.26,1.15,-1.26,1.27,1.08,1.29,2.42,2.42,2.42
258.00,1.11,-1.24,1.11,-1.24,1.24,1.06,1.27,2.36,2.36,2.36
260.58,1.08,-1.22,1.08,-1.22,1.22,1.05,1.26,2.30,2.30,2.30
263.19,1.04,-1.20,1.04,-1.20,1.20,1.03,1.24,2.24,2.24,2.24
265.82,1.00,-1.18,1.00,-1.18,1.18,1.01,1.22,2.18,2.18,2.18
268.48,0.97,-1.15,0.97,-1.15,1.15,0.99,1.19,2.12,2.12,2.12
271.16,0.93,-1.13,0.93,-1.13,1.13,0.97,1.17,2.06,2.06,2.06
273.87,0.90,-1.11,0.90,-1.11,1.11,0.96,1.15,2.01,2.01,2.01
276.61,0.86,-1.09,0.86,-1.09,1.09,0.94,1.12,1.95,1.95,1.95
279.38,0.82,-1.07,0.82,-1.07,1.07,0.92,1.10,1.89,1.89,1.89
282.17,0.79,-1.05,0.79,-1.05,1.05,0.91,1.07,1.84,1.83,1.83
284.99,0.75,-1.03,0.75,-1.03,1.03,0.89,1.05,1.78,1.78,1.78
287.84,0.72,-1.01,0.72,-1.01,1.01,0.87,1.02,1.72,1.72,1.72
290.72,0.68,-0.99,0.68,-0.99,0.99,0.86,0.99,1.67,1.67,1.67
293.63,0.65,-0.97,0.65,-0.97,0.96,0.84,0.96,1.61,1.61,1.61
296.57,0.61,-0.94,0.61,-0.94,0.94,0.83,0.93,1.55,1.55,1.55
299.53,0.58,-0.92,0.58,-0.92,0.92,0.81,0.91,1.50,1.50,1.50
302.53,0.54,-0.90,0.54,-0.90,0.90,0.80,0.88,1.44,1.44,1.44
305.55,0.51,-0.88,0.51,-0.88,0.88,0.78,0.85,1.39,1.39,1.39
308.61,0.48,-0.85,0.48,-0.85,0.85,0.77,0.82,1.33,1.33,1.33
311.69,0.44,-0.83,0.44,-0.83,0.83,0.75,0.79,1.27,1.27,1.27
314.81,0.41,-0.81,0.41,-0.81,0.81,0.74,0.76,1.22,1.22,1.22
317.96,0.38,-0.78,0.38,-0.78,0.78,0.73,0.73,1.16,1.16,1.16
321.14,0.35,-0.76,0.35,-0.76,0.76,0.71,0.71,1.11,1.11,1.11
324.35,0.31,-0.74,0.31,-0.74,0.74,0.70,0.68,1.05,1.05,1.05
327.59,0.28,-0.72,0.28,-0.72,0.72,0.69,0.65,1.00,1.00,1.00
330.87,0.25,-0.69,0.25,-0.69,0.69,0.67,0.62,0.95,0.95,0.95
334.18,0.22,-0.67,0.22,-0.67,0.67,0.66,0.59,0.89,0.89,0.89
337.52,0.19,-0.65,0.19,-0.65,0.65,0.65,0.57,0.84,0.84,0.84
340.90,0.16,-0.63,0.16,-0.63,0.63,0.64,0.54,0.79,0.79,0.79
344.30,0.13,-0.61,0.13,-0.61,0.61,0.62,0.51,0.74,0.74,0.74
347.75,0.10,-0.59,0.10,-0.59,0.59,0.61,0.49,0.69,0.69,0.69
351.23,0.07,-0.57,0.07,-0.57,0.57,0.60,0.46,0.64,0.64,0.64
354.74,0.04,-0.55,0.04,-0.55,0.55,0.59,0.44,0.59,0.59,0.59
358.28,0.01,-0.53,0.01,-0.53,0.53,0.58,0.41,0.54,0.54,0.54
361.87,-0.02,-0.51,-0.02,-0.51,0.51,0.57,0.38,0.49,0.49,0.49
365.49,-0.05,-0.49,-0.05,-0.49,0.49,0.56,0.36,0.44,0.44,0.44
369.14,-0.08,-0.47,-0.08,-0.47,0.47,0.55,0.34,0.39,0.39,0.39
372.83,-0.11,-0.45,-0.11,-0.45,0.45,0.54,0.31,0.34,0.34,0.34
376.56,-0.13,-0.43,-0.13,-0.43,0.43,0.53,0.29,0.30,0.30,0.30
380.33,-0.16,-0.41,-0.16,-0.41,0.41,0.52,0.26,0.25,0.25,0.25
384.13,-0.19,-0.39,-0.19,-0.39,0.39,0.51,0.24,0.20,0.20,0.20
387.97,-0.22,-0.37,-0.22,-0.37,0.37,0.50,0.22,0.16,0.16,0.16
391.85,-0.24,-0.36,-0.24,-0.36,0.36,0.49,0.20,0.11,0.11,0.11
395.77,-0.27,-0.34,-0.27,-0.34,0.34,0.48,0.17,0.07,0.07,0.07
399.73,-0.30,-0.32,-0.30,-0.32,0.32,0.47,0.15,0.02,0.02,0.02
403.72,-0.32,-0.30,-0.32,-0.30,0.30,0.46,0.13,-0.02,-0.02,-0.02
407.76,-0.35,-0.28,-0.35,-0.29,0.28,0.45,0.11,-0.06,-0.06,-0.06
411.84,-0.37,-0.27,-0.37,-0.27,0.27,0.45,0.09,-0.10,-0.10,-0.10
415.96,-0.40,-0.25,-0.40,-0.25,0.25,0.44,0.07,-0.15,-0.15,-0.15
420.12,-0.42,-0.23,-0.42,-0.23,0.23,0.43,0.05,-0.19,-0.19,-0.19
424.32,-0.45,-0.22,-0.45,-0.22,0.22,0.42,0.03,-0.23,-0.23,-0.23
428.56,-0.47,-0.20,-0.47,-0.20,0.20,0.42,0.01,-0.27,-0.27,-0.27
432.85,-0.49,-0.19,-0.49,-0.19,0.19,0.41,-0.00,-0.31,-0.31,-0.31
437.18,-0.52,-0.17,-0.52,-0.17,0.17,0.40,-0.02,-0.35,-0.35,-0.35
441.55,-0.54,-0.16,-0.54,-0.16,0.16,0.39,-0.04,-0.38,-0.38,-0.38
445.96,-0.56,-0.14,-0.56,-0.14,0.14,0.39,-0.05,-0.42,-0.42,-0.42
450.42,-0.58,-0.13,-0.58,-0.13,0.13,0.38,-0.06,-0.46,-0.46,-0.46
454.93,-0.60,-0.11,-0.60,-0.11,0.11,0.37,-0.08,-0.49,-0.49,-0.49
459.48,-0.63,-0.10,-0.63,-0.10,0.10,0.37,-0.09,-0.53,-0.53,-0.53
464.07,-0.65,-0.09,-0.65,-0.09,0.09,0.36,-0.10,-0.56,-0.56,-0.56
468.71,-0.67,-0.07,-0.67,-0.07,0.07,0.36,-0.11,-0.59,-0.59,-0.59
473.40,-0.69,-0.06,-0.69,-0.06,0.06,0.35,-0.12,-0.63,-0.63,-0.63
478.13,-0.71,-0.05,-0.71,-0.05,0.05,0.34,-0.12,-0.66,-0.66,-0.66
482.91,-0.73,-0.04,-0.73,-0.04,0.04,0.34,-0.13,-0.69,-0.69,-0.69
487.74,-0.75,-0.03,-0.75,-0.03,0.03,0.33,-0.13,-0.72,-0.72,-0.72
492.62,-0.77,-0.02,-0.77,-0.02,0.02,0.33,-0.14,-0.75,-0.75,-0.75
497.55,-0.79,-0.01,-0.79,-0.01,0.01,0.32,-0.14,-0.78,-0.78,-0.78
502.52,-0.80,-0.00,-0.80,-0.00,0.00,0.32,-0.14,-0.80,-0.80,-0.80
507.55,-0.82,0.01,-0.82,0.01,-0.01,0.31,-0.14,-0.83,-0.83,-0.83
512.62,-0.84,0.02,-0.84,0.02,-0.02,0.31,-0.13,-0.85,-0.85,-0.85
517.75,-0.85,0.02,-0.85,0.02,-0.02,0.31,-0.13,-0.88,-0.88,-0.88
522.93,-0.87,0.03,-0.87,0.03,-0.03,0.30,-0.12,-0.90,-0.90,-0.90
528.16,-0.88,0.04,-0.88,0.04,-0.04,0.30,-0.12,-0.92,-0.92,-0.92
533.44,-0.89,0.04,-0.89,0.04,-0.05,0.29,-0.11,-0.94,-0.94,-0.94
538.77,-0.91,0.05,-0.91,0.05,-0.05,0.29,-0.10,-0.96,-0.96,-0.96
544.16,-0.92,0.06,-0.92,0.06,-0.06,0.29,-0.09,-0.97,-0.98,-0.98
549.60,-0.93,0.06,-0.93,0.06,-0.06,0.28,-0.08,-0.99,-0.99,-0.99
555.10,-0.94,0.06,-0.94,0.06,-0.06,0.28,-0.07,-1.01,-1.01,-1.01
560.65,-0.96,0.06,-0.96,0.06,-0.06,0.28,-0.05,-1.02,-1.02,-1.02
