frequency,raw,error,smoothed,error_smoothed,equalization,parametric_eq,fixed_band_eq,equalized_raw,equalized_smoothed,target
20.00,11.86,2.63,11.89,2.66,-2.44,-1.65,-1.24,9.42,9.44,9.23
20.20,11.69,2.46,11.66,2.43,-2.34,-1.68,-1.28,9.34,9.32,9.23
20.40,11.52,2.29,11.49,2.25,-2.27,-1.71,-1.31,9.25,9.22,9.23
20.61,11.36,2.13,11.37,2.11,-2.22,-1.75,-1.35,9.14,9.15,9.23
20.81,11.27,1.97,11.27,1.99,-2.19,-1.78,-1.39,9.08,9.09,9.30
21.02,11.26,1.93,11.26,1.94,-2.18,-1.81,-1.44,9.08,9.08,9.33
21.23,11.33,2.00,11.35,1.99,-2.20,-1.84,-1.48,9.13,9.15,9.34
21.44,11.52,2.13,11.53,2.14,-2.24,-1.88,-1.53,9.28,9.29,9.39
21.66,11.77,2.34,11.77,2.35,-2.40,-1.91,-1.57,9.38,9.37,9.43
21.87,12.03,2.60,12.02,2.59,-2.56,-1.95,-1.62,9.47,9.46,9.43
22.09,12.24,2.81,12.24,2.81,-2.71,-1.98,-1.67,9.53,9.53,9.43
22.31,12.40,2.97,12.39,2.95,-2.81,-2.02,-1.72,9.58,9.58,9.43
22.54,12.46,3.02,12.45,2.99,-2.85,-2.05,-1.77,9.61,9.60,9.44
22.76,12.42,2.91,12.41,2.94,-2.81,-2.09,-1.82,9.61,9.60,9.52
22.99,12.28,2.80,12.27,2.80,-2.70,-2.13,-1.88,9.58,9.57,9.48
23.22,12.05,2.62,12.05,2.59,-2.54,-2.16,-1.93,9.50,9.50,9.43
23.45,11.79,2.36,11.79,2.36,-2.37,-2.20,-1.99,9.42,9.42,9.43
23.69,11.54,2.11,11.54,2.12,-2.21,-2.24,-2.05,9.34,9.34,9.43
23.92,11.35,1.92,11.36,1.93,-2.09,-2.27,-2.10,9.26,9.28,9.43
24.16,11.26,1.83,11.27,1.84,-2.02,-2.31,-2.16,9.24,9.25,9.43
24.40,11.28,1.85,11.29,1.87,-2.02,-2.35,-2.22,9.26,9.27,9.43
24.65,11.38,1.99,11.38,2.00,-2.06,-2.38,-2.28,9.32,9.32,9.39
24.89,11.53,2.20,11.52,2.17,-2.13,-2.42,-2.35,9.40,9.39,9.33
25.14,11.66,2.33,11.66,2.34,-2.22,-2.46,-2.41,9.45,9.45,9.33
25.39,11.79,2.46,11.77,2.44,-2.30,-2.49,-2.47,9.49,9.47,9.33
25.65,11.82,2.48,11.82,2.46,-2.36,-2.53,-2.53,9.47,9.47,9.34
25.91,11.83,2.42,11.83,2.44,-2.38,-2.57,-2.60,9.45,9.44,9.41
26.16,11.79,2.36,11.79,2.37,-2.38,-2.60,-2.66,9.42,9.42,9.43
26.43,11.74,2.31,11.74,2.31,-2.34,-2.64,-2.72,9.39,9.40,9.43
26.69,11.69,2.26,11.69,2.26,-2.30,-2.67,-2.78,9.39,9.39,9.43
26.96,11.65,2.22,11.66,2.23,-2.27,-2.71,-2.84,9.38,9.39,9.43
27.23,11.64,2.21,11.65,2.22,-2.25,-2.74,-2.89,9.39,9.40,9.43
27.50,11.66,2.23,11.66,2.22,-2.26,-2.78,-2.95,9.41,9.40,9.43
27.77,11.69,2.26,11.69,2.27,-2.28,-2.81,-3.00,9.41,9.41,9.43
28.05,11.72,2.31,11.72,2.33,-2.32,-2.84,-3.05,9.41,9.41,9.42
28.33,11.76,2.41,11.75,2.39,-2.36,-2.87,-3.10,9.39,9.39,9.35
28.62,11.79,2.46,11.79,2.45,-2.42,-2.90,-3.14,9.37,9.37,9.33
28.90,11.82,2.49,11.82,2.50,-2.48,-2.93,-3.18,9.33,9.33,9.33
29.19,11.86,2.53,11.86,2.53,-2.55,-2.96,-3.22,9.31,9.31,9.33
29.48,11.91,2.58,11.92,2.59,-2.62,-2.99,-3.25,9.29,9.30,9.33
29.78,11.99,2.66,11.99,2.66,-2.68,-3.02,-3.28,9.30,9.30,9.33
30.08,12.07,2.74,12.07,2.74,-2.74,-3.04,-3.30,9.32,9.33,9.33
30.38,12.14,2.81,12.14,2.81,-2.79,-3.06,-3.32,9.35,9.35,9.33
30.68,12.20,2.87,12.20,2.86,-2.83,-3.08,-3.33,9.38,9.37,9.33
30.99,12.22,2.89,12.22,2.89,-2.85,-3.11,-3.33,9.37,9.37,9.33
31.30,12.20,2.87,12.20,2.89,-2.86,-3.12,-3.33,9.35,9.34,9.33
31.61,12.16,2.88,12.15,2.87,-2.85,-3.14,-3.33,9.30,9.30,9.28
31.93,12.09,2.86,12.09,2.84,-2.85,-3.15,-3.32,9.24,9.25,9.23
32.24,12.03,2.80,12.03,2.81,-2.84,-3.17,-3.30,9.20,9.20,9.23
32.57,12.00,2.77,12.00,2.78,-2.83,-3.18,-3.28,9.16,9.17,9.23
32.89,12.00,2.77,12.01,2.78,-2.83,-3.19,-3.25,9.17,9.18,9.23
33.22,12.05,2.82,12.05,2.82,-2.84,-3.19,-3.22,9.21,9.21,9.23
33.55,12.11,2.88,12.11,2.87,-2.85,-3.20,-3.18,9.26,9.26,9.23
33.89,12.19,2.92,12.18,2.91,-2.86,-3.20,-3.14,9.33,9.32,9.27
34.23,12.26,2.92,12.26,2.93,-2.88,-3.20,-3.10,9.38,9.38,9.34
34.57,12.33,2.93,12.33,2.93,-2.91,-3.20,-3.05,9.42,9.42,9.40
34.92,12.40,2.93,12.40,2.92,-2.94,-3.19,-3.00,9.46,9.47,9.47
35.27,12.48,2.94,12.49,2.94,-2.98,-3.19,-2.95,9.51,9.51,9.54
35.62,12.58,2.96,12.58,2.98,-3.02,-3.18,-2.89,9.55,9.56,9.61
35.97,12.68,3.05,12.68,3.04,-3.08,-3.16,-2.83,9.60,9.60,9.63
36.33,12.77,3.14,12.77,3.13,-3.15,-3.15,-2.77,9.62,9.62,9.63
36.70,12.85,3.22,12.85,3.23,-3.22,-3.13,-2.71,9.62,9.62,9.63
37.06,12.90,3.33,12.90,3.33,-3.31,-3.11,-2.64,9.60,9.59,9.58
37.43,12.93,3.43,12.93,3.42,-3.39,-3.09,-2.58,9.55,9.54,9.51
37.81,12.94,3.50,12.95,3.48,-3.46,-3.07,-2.51,9.48,9.49,9.45
38.19,12.95,3.52,12.95,3.52,-3.52,-3.04,-2.45,9.43,9.43,9.43
38.57,12.94,3.54,12.94,3.55,-3.56,-3.01,-2.38,9.38,9.37,9.40
38.95,12.91,3.58,12.92,3.58,-3.59,-2.97,-2.31,9.32,9.33,9.34
39.34,12.88,3.62,12.88,3.61,-3.60,-2.94,-2.25,9.28,9.28,9.26
39.74,12.81,3.62,12.81,3.61,-3.60,-2.90,-2.18,9.21,9.21,9.19
40.14,12.71,3.59,12.71,3.58,-3.58,-2.86,-2.12,9.13,9.13,9.12
40.54,12.58,3.52,12.58,3.54,-3.55,-2.82,-2.05,9.03,9.03,9.06
40.94,12.43,3.48,12.43,3.49,-3.51,-2.77,-1.99,8.92,8.92,8.95
41.35,12.27,3.45,12.27,3.43,-3.44,-2.72,-1.93,8.83,8.83,8.82
41.76,12.11,3.35,12.11,3.37,-3.35,-2.67,-1.87,8.76,8.76,8.75
42.18,11.96,3.27,11.96,3.27,-3.24,-2.62,-1.81,8.72,8.72,8.68
42.60,11.81,3.16,11.81,3.14,-3.10,-2.56,-1.75,8.71,8.71,8.65
43.03,11.68,2.96,11.68,2.99,-2.95,-2.50,-1.69,8.73,8.73,8.72
43.46,11.54,2.81,11.54,2.81,-2.79,-2.44,-1.63,8.75,8.75,8.73
43.90,11.39,2.64,11.39,2.61,-2.63,-2.38,-1.58,8.77,8.76,8.76
44.33,11.23,2.41,11.23,2.43,-2.46,-2.31,-1.52,8.77,8.77,8.82
44.78,11.08,2.25,11.08,2.25,-2.31,-2.24,-1.47,8.77,8.77,8.83
45.23,10.94,2.11,10.95,2.11,-2.17,-2.17,-1.42,8.77,8.78,8.83
45.68,10.84,2.01,10.85,2.02,-2.05,-2.09,-1.37,8.79,8.80,8.83
46.13,10.77,1.94,10.77,1.94,-1.94,-2.02,-1.32,8.83,8.83,8.83
46.60,10.70,1.87,10.70,1.86,-1.83,-1.93,-1.27,8.87,8.86,8.83
47.06,10.63,1.79,10.63,1.77,-1.73,-1.85,-1.22,8.89,8.89,8.84
47.53,10.54,1.64,10.54,1.65,-1.63,-1.76,-1.18,8.92,8.92,8.91
48.01,10.45,1.52,10.45,1.53,-1.51,-1.67,-1.13,8.94,8.94,8.93
48.49,10.34,1.41,10.33,1.40,-1.38,-1.58,-1.09,8.96,8.95,8.93
48.97,10.20,1.27,10.20,1.26,-1.24,-1.48,-1.05,8.96,8.95,8.93
49.46,10.05,1.12,10.05,1.12,-1.10,-1.38,-1.00,8.94,8.94,8.93
49.96,9.89,0.96,9.90,0.97,-0.97,-1.28,-0.96,8.92,8.93,8.93
50.46,9.77,0.84,9.77,0.84,-0.86,-1.18,-0.92,8.91,8.91,8.93
50.96,9.66,0.73,9.66,0.73,-0.77,-1.08,-0.89,8.90,8.90,8.93
51.47,9.58,0.65,9.58,0.65,-0.70,-0.97,-0.85,8.89,8.89,8.93
51.99,9.52,0.59,9.52,0.61,-0.65,-0.87,-0.81,8.87,8.87,8.93
52.51,9.47,0.60,9.47,0.60,-0.62,-0.78,-0.77,8.85,8.85,8.87
53.03,9.43,0.63,9.42,0.63,-0.62,-0.69,-0.74,8.81,8.81,8.80
53.56,9.37,0.65,9.36,0.66,-0.63,-0.61,-0.71,8.74,8.73,8.71
54.10,9.28,0.69,9.26,0.67,-0.64,-0.53,-0.67,8.63,8.62,8.58
54.64,9.16,0.67,9.16,0.66,-0.66,-0.47,-0.64,8.50,8.50,8.49
55.18,9.05,0.63,9.07,0.66,-0.66,-0.42,-0.61,8.38,8.41,8.42
55.74,9.01,0.66,9.02,0.66,-0.65,-0.38,-0.57,8.36,8.37,8.35
56.29,9.00,0.67,9.00,0.66,-0.63,-0.34,-0.54,8.36,8.37,8.33
56.86,9.00,0.67,8.97,0.64,-0.61,-0.31,-0.51,8.39,8.36,8.33
57.42,8.91,0.58,8.90,0.58,-0.59,-0.29,-0.48,8.32,8.31,8.33
58.00,8.79,0.52,8.78,0.52,-0.57,-0.28,-0.45,8.22,8.21,8.27
58.58,8.64,0.45,8.64,0.47,-0.54,-0.26,-0.43,8.10,8.11,8.19
59.16,8.51,0.47,8.54,0.45,-0.49,-0.25,-0.40,8.02,8.05,8.04
59.76,8.47,0.44,8.48,0.45,-0.42,-0.23,-0.37,8.05,8.06,8.03
60.35,8.45,0.42,8.45,0.43,-0.34,-0.22,-0.34,8.11,8.11,8.03
60.96,8.42,0.39,8.40,0.35,-0.25,-0.20,-0.31,8.17,8.16,8.03
61.57,8.32,0.22,8.30,0.21,-0.16,-0.19,-0.29,8.16,8.14,8.10
62.18,8.15,0.02,8.15,0.04,-0.07,-0.17,-0.26,8.08,8.08,8.13
62.80,7.97,-0.15,7.99,-0.11,0.01,-0.15,-0.24,7.99,8.00,8.12
63.43,7.87,-0.19,7.87,-0.20,0.09,-0.12,-0.21,7.96,7.96,8.06
64.07,7.80,-0.23,7.81,-0.23,0.16,-0.10,-0.18,7.96,7.97,8.03
64.71,7.81,-0.22,7.80,-0.22,0.22,-0.07,-0.16,8.03,8.02,8.03
65.35,7.81,-0.22,7.81,-0.21,0.27,-0.04,-0.13,8.08,8.08,8.03
66.01,7.81,-0.22,7.80,-0.24,0.32,-0.01,-0.11,8.13,8.12,8.03
66.67,7.77,-0.28,7.77,-0.30,0.37,0.02,-0.08,8.14,8.14,8.05
67.33,7.71,-0.42,7.71,-0.40,0.43,0.05,-0.06,8.14,8.14,8.12
68.01,7.62,-0.51,7.61,-0.51,0.51,0.09,-0.04,8.13,8.12,8.13
68.69,7.49,-0.61,7.49,-0.61,0.59,0.12,-0.01,8.08,8.08,8.10
69.37,7.35,-0.68,7.35,-0.68,0.67,0.15,0.01,8.02,8.02,8.03
70.07,7.22,-0.75,7.23,-0.76,0.72,0.19,0.04,7.94,7.95,7.96
70.77,7.13,-0.80,7.14,-0.80,0.74,0.22,0.06,7.87,7.88,7.93
71.48,7.09,-0.84,7.09,-0.82,0.74,0.26,0.09,7.83,7.83,7.93
72.19,7.07,-0.79,7.08,-0.79,0.72,0.29,0.11,7.80,7.80,7.86
72.91,7.07,-0.71,7.07,-0.71,0.70,0.33,0.14,7.78,7.77,7.79
73.64,7.06,-0.65,7.06,-0.63,0.69,0.37,0.16,7.75,7.75,7.70
74.38,7.02,-0.55,7.01,-0.59,0.70,0.40,0.19,7.71,7.71,7.57
75.12,6.94,-0.59,6.93,-0.61,0.72,0.44,0.21,7.66,7.65,7.53
75.87,6.82,-0.71,6.82,-0.70,0.76,0.47,0.24,7.58,7.58,7.53
76.63,6.70,-0.83,6.70,-0.83,0.82,0.51,0.26,7.52,7.52,7.53
77.40,6.58,-0.95,6.59,-0.95,0.90,0.54,0.29,7.48,7.49,7.53
78.17,6.49,-1.04,6.49,-1.04,0.98,0.58,0.32,7.47,7.47,7.53
78.95,6.42,-1.11,6.42,-1.10,1.04,0.61,0.34,7.46,7.46,7.53
79.74,6.35,-1.12,6.35,-1.13,1.09,0.64,0.37,7.44,7.44,7.47
80.54,6.28,-1.12,6.28,-1.13,1.11,0.68,0.40,7.39,7.39,7.40
81.35,6.21,-1.13,6.21,-1.11,1.10,0.71,0.43,7.31,7.31,7.33
82.16,6.13,-1.08,6.13,-1.07,1.09,0.74,0.46,7.21,7.21,7.20
82.98,6.04,-1.02,6.04,-1.02,1.06,0.78,0.48,7.10,7.10,7.07
83.81,5.97,-0.96,5.96,-0.98,1.02,0.81,0.51,6.98,6.98,6.93
84.65,5.90,-0.96,5.90,-0.96,0.97,0.84,0.54,6.87,6.87,6.86
85.50,5.88,-0.95,5.88,-0.95,0.91,0.87,0.57,6.79,6.79,6.83
86.35,5.89,-0.94,5.91,-0.92,0.86,0.90,0.60,6.75,6.76,6.83
87.22,5.97,-0.86,5.97,-0.86,0.82,0.93,0.64,6.79,6.78,6.83
88.09,6.05,-0.78,6.04,-0.79,0.80,0.96,0.67,6.85,6.84,6.83
88.97,6.07,-0.74,6.07,-0.72,0.81,0.99,0.70,6.88,6.88,6.81
89.86,6.05,-0.69,6.03,-0.71,0.83,1.02,0.73,6.88,6.86,6.74
90.76,5.93,-0.75,5.92,-0.77,0.87,1.05,0.77,6.79,6.79,6.67
91.66,5.75,-0.88,5.75,-0.90,0.91,1.08,0.80,6.66,6.66,6.63
92.58,5.55,-1.08,5.55,-1.04,0.96,1.11,0.84,6.51,6.51,6.63
93.51,5.36,-1.15,5.37,-1.13,1.01,1.13,0.87,6.37,6.38,6.51
94.44,5.22,-1.15,5.23,-1.15,1.06,1.16,0.91,6.28,6.29,6.37
95.39,5.13,-1.10,5.13,-1.11,1.10,1.19,0.94,6.23,6.23,6.23
96.34,5.08,-1.08,5.08,-1.09,1.12,1.21,0.98,6.20,6.20,6.16
97.30,5.05,-1.08,5.05,-1.08,1.12,1.24,1.02,6.18,6.17,6.13
98.28,5.03,-1.10,5.02,-1.08,1.12,1.26,1.05,6.14,6.14,6.12
99.26,4.99,-1.07,4.98,-1.09,1.11,1.29,1.09,6.09,6.09,6.05
100.25,4.93,-1.10,4.93,-1.11,1.11,1.31,1.13,6.04,6.04,6.03
101.25,4.87,-1.15,4.87,-1.14,1.12,1.34,1.17,5.99,5.99,6.02
102.27,4.79,-1.17,4.79,-1.17,1.14,1.36,1.21,5.94,5.94,5.97
103.29,4.71,-1.19,4.71,-1.18,1.17,1.38,1.24,5.89,5.88,5.90
104.32,4.63,-1.18,4.63,-1.19,1.20,1.40,1.28,5.84,5.84,5.81
105.37,4.55,-1.21,4.55,-1.21,1.24,1.42,1.32,5.79,5.79,5.76
106.42,4.48,-1.25,4.48,-1.26,1.28,1.45,1.36,5.76,5.76,5.73
107.48,4.41,-1.32,4.41,-1.32,1.32,1.47,1.39,5.73,5.73,5.73
108.56,4.34,-1.39,4.34,-1.36,1.36,1.49,1.43,5.70,5.70,5.73
109.64,4.27,-1.39,4.27,-1.41,1.40,1.51,1.47,5.67,5.67,5.67
110.74,4.20,-1.43,4.20,-1.45,1.44,1.53,1.50,5.64,5.63,5.63
111.85,4.12,-1.51,4.12,-1.48,1.47,1.54,1.53,5.58,5.59,5.63
112.97,4.04,-1.50,4.04,-1.51,1.49,1.56,1.57,5.53,5.53,5.53
114.10,3.95,-1.52,3.95,-1.53,1.51,1.58,1.60,5.47,5.46,5.47
115.24,3.86,-1.54,3.86,-1.52,1.54,1.60,1.63,5.40,5.39,5.41
116.39,3.76,-1.53,3.76,-1.52,1.56,1.62,1.65,5.32,5.32,5.29
117.55,3.66,-1.51,3.67,-1.53,1.58,1.63,1.68,5.24,5.24,5.17
118.73,3.59,-1.54,3.59,-1.55,1.58,1.65,1.70,5.17,5.16,5.13
119.92,3.53,-1.60,3.52,-1.60,1.56,1.67,1.72,5.09,5.09,5.13
121.12,3.48,-1.65,3.49,-1.64,1.54,1.68,1.74,5.02,5.03,5.13
122.33,3.47,-1.64,3.48,-1.62,1.53,1.70,1.76,5.00,5.00,5.11
123.55,3.49,-1.56,3.49,-1.54,1.52,1.71,1.78,5.01,5.02,5.05
124.79,3.52,-1.43,3.52,-1.46,1.54,1.73,1.79,5.06,5.05,4.95
126.03,3.53,-1.40,3.52,-1.42,1.56,1.74,1.80,5.09,5.08,4.93
127.29,3.49,-1.45,3.49,-1.47,1.59,1.75,1.81,5.08,5.07,4.94
128.57,3.41,-1.60,3.41,-1.59,1.62,1.77,1.81,5.03,5.03,5.01
129.85,3.30,-1.73,3.30,-1.73,1.67,1.78,1.82,4.96,4.97,5.03
131.15,3.18,-1.84,3.19,-1.82,1.71,1.79,1.82,4.90,4.90,5.02
132.46,3.09,-1.87,3.09,-1.85,1.76,1.80,1.82,4.85,4.85,4.96
133.79,3.01,-1.84,3.01,-1.84,1.80,1.82,1.82,4.81,4.81,4.85
135.12,2.94,-1.78,2.94,-1.80,1.82,1.83,1.81,4.76,4.76,4.72
136.48,2.88,-1.78,2.88,-1.77,1.82,1.84,1.81,4.70,4.70,4.66
137.84,2.82,-1.76,2.83,-1.76,1.80,1.85,1.80,4.63,4.63,4.59
139.22,2.79,-1.74,2.78,-1.77,1.79,1.86,1.79,4.57,4.57,4.53
140.61,2.74,-1.79,2.74,-1.77,1.77,1.87,1.78,4.52,4.52,4.53
142.02,2.69,-1.79,2.69,-1.79,1.77,1.88,1.77,4.46,4.46,4.48
143.44,2.62,-1.79,2.61,-1.80,1.78,1.89,1.76,4.40,4.39,4.41
144.87,2.53,-1.81,2.53,-1.78,1.78,1.90,1.75,4.31,4.31,4.34
146.32,2.44,-1.76,2.44,-1.79,1.79,1.90,1.74,4.23,4.23,4.20
147.78,2.35,-1.78,2.35,-1.79,1.80,1.91,1.73,4.15,4.15,4.13
149.26,2.28,-1.83,2.29,-1.80,1.80,1.92,1.71,4.09,4.09,4.12
150.75,2.24,-1.80,2.24,-1.82,1.81,1.93,1.70,4.05,4.05,4.04
152.26,2.22,-1.81,2.22,-1.82,1.81,1.93,1.69,4.03,4.03,4.03
153.78,2.21,-1.82,2.21,-1.81,1.82,1.94,1.68,4.04,4.04,4.03
155.32,2.21,-1.82,2.21,-1.83,1.83,1.95,1.67,4.04,4.04,4.03
156.88,2.19,-1.84,2.19,-1.83,1.84,1.95,1.66,4.03,4.03,4.03
158.44,2.15,-1.86,2.15,-1.84,1.84,1.96,1.65,3.99,3.99,4.01
160.03,2.09,-1.83,2.09,-1.86,1.85,1.96,1.64,3.94,3.94,3.93
161.63,2.01,-1.87,2.01,-1.86,1.85,1.97,1.63,3.86,3.86,3.88
163.24,1.92,-1.88,1.92,-1.85,1.85,1.97,1.63,3.77,3.77,3.81
164.88,1.83,-1.82,1.83,-1.85,1.86,1.98,1.62,3.68,3.68,3.64
166.53,1.73,-1.84,1.73,-1.85,1.86,1.98,1.62,3.59,3.59,3.58
168.19,1.65,-1.87,1.65,-1.85,1.86,1.98,1.61,3.51,3.51,3.52
169.87,1.57,-1.86,1.58,-1.85,1.85,1.99,1.61,3.43,3.43,3.44
171.57,1.52,-1.83,1.52,-1.86,1.85,1.99,1.61,3.37,3.37,3.35
173.29,1.47,-1.86,1.47,-1.86,1.84,1.99,1.61,3.31,3.32,3.33
175.02,1.43,-1.90,1.43,-1.86,1.84,1.99,1.61,3.27,3.28,3.33
176.77,1.40,-1.84,1.40,-1.85,1.84,2.00,1.61,3.24,3.24,3.24
178.54,1.35,-1.82,1.35,-1.84,1.85,2.00,1.62,3.20,3.20,3.18
180.32,1.30,-1.83,1.30,-1.84,1.87,2.00,1.62,3.17,3.17,3.13
182.13,1.24,-1.89,1.24,-1.87,1.90,2.00,1.63,3.14,3.14,3.13
183.95,1.16,-1.92,1.16,-1.92,1.95,2.00,1.64,3.11,3.11,3.08
185.79,1.08,-1.95,1.08,-1.97,2.00,2.00,1.65,3.08,3.08,3.03
187.65,0.99,-2.04,0.99,-2.04,2.06,2.00,1.66,3.05,3.05,3.03
189.52,0.90,-2.13,0.91,-2.13,2.11,2.00,1.67,3.01,3.02,3.03
191.42,0.83,-2.20,0.83,-2.20,2.15,2.00,1.68,2.98,2.99,3.03
193.33,0.78,-2.25,0.78,-2.23,2.17,2.00,1.69,2.95,2.95,3.03
195.27,0.74,-2.23,0.74,-2.24,2.18,2.00,1.71,2.92,2.92,2.97
197.22,0.70,-2.19,0.69,-2.20,2.18,2.00,1.73,2.87,2.87,2.89
199.19,0.65,-2.17,0.64,-2.15,2.16,1.99,1.74,2.81,2.81,2.82
201.18,0.59,-2.09,0.59,-2.10,2.14,1.99,1.76,2.73,2.73,2.68
203.19,0.53,-2.06,0.53,-2.07,2.12,1.99,1.78,2.65,2.65,2.59
205.23,0.47,-2.06,0.48,-2.07,2.11,1.99,1.79,2.58,2.58,2.53
207.28,0.43,-2.10,0.43,-2.10,2.10,1.98,1.81,2.53,2.53,2.53
209.35,0.39,-2.14,0.39,-2.13,2.11,1.98,1.83,2.50,2.50,2.53
211.44,0.36,-2.16,0.35,-2.14,2.14,1.97,1.85,2.49,2.49,2.52
213.56,0.32,-2.13,0.32,-2.15,2.17,1.97,1.87,2.48,2.48,2.44
215.69,0.28,-2.15,0.28,-2.17,2.18,1.96,1.89,2.46,2.46,2.43
217.85,0.24,-2.19,0.24,-2.19,2.18,1.96,1.90,2.42,2.42,2.43
220.03,0.20,-2.23,0.20,-2.22,2.17,1.95,1.92,2.36,2.36,2.43
222.23,0.16,-2.22,0.16,-2.22,2.14,1.95,1.94,2.30,2.30,2.37
224.45,0.12,-2.18,0.12,-2.16,2.11,1.94,1.95,2.23,2.23,2.30
226.70,0.08,-2.07,0.08,-2.06,2.08,1.93,1.97,2.16,2.16,2.15
228.96,0.05,-1.95,0.05,-1.98,2.04,1.93,1.98,2.09,2.09,2.00
231.25,0.01,-1.92,0.01,-1.94,2.01,1.92,1.99,2.02,2.02,1.93
233.57,-0.03,-1.96,-0.03,-1.95,1.98,1.91,2.00,1.96,1.96,1.93
235.90,-0.06,-1.99,-0.06,-1.97,1.97,1.90,2.01,1.90,1.90,1.93
238.26,-0.10,-1.99,-0.10,-1.98,1.97,1.89,2.02,1.87,1.87,1.89
240.64,-0.13,-1.96,-0.13,-1.99,1.98,1.88,2.02,1.84,1.84,1.83
243.05,-0.17,-2.00,-0.17,-2.00,2.00,1.88,2.02,1.83,1.83,1.83
245.48,-0.20,-2.03,-0.20,-2.02,2.02,1.86,2.02,1.81,1.81,1.83
247.93,-0.23,-2.04,-0.23,-2.03,2.02,1.85,2.02,1.79,1.79,1.81
250.41,-0.26,-2.00,-0.26,-2.03,2.01,1.84,2.01,1.75,1.75,1.74
252.92,-0.29,-2.02,-0.29,-2.02,2.00,1.83,2.00,1.71,1.71,1.73
255.45,-0.31,-2.02,-0.31,-2.00,1.98,1.82,1.99,1.67,1.67,1.71
258.00,-0.33,-1.96,-0.33,-1.97,1.95,1.81,1.98,1.63,1.63,1.63
260.58,-0.34,-1.91,-0.34,-1.91,1.93,1.79,1.96,1.58,1.58,1.57
263.19,-0.36,-1.86,-0.36,-1.86,1.90,1.78,1.95,1.53,1.53,1.50
265.82,-0.38,-1.82,-0.38,-1.84,1.86,1.77,1.92,1.48,1.48,1.43
268.48,-0.40,-1.83,-0.41,-1.83,1.83,1.75,1.90,1.42,1.42,1.43
271.16,-0.43,-1.83,-0.43,-1.81,1.79,1.74,1.88,1.36,1.36,1.40
273.87,-0.45,-1.78,-0.45,-1.79,1.76,1.72,1.85,1.31,1.31,1.33
276.61,-0.47,-1.74,-0.47,-1.73,1.73,1.70,1.82,1.25,1.25,1.26
279.38,-0.49,-1.69,-0.49,-1.69,1.70,1.69,1.80,1.21,1.20,1.20
282.17,-0.51,-1.64,-0.51,-1.66,1.67,1.67,1.77,1.16,1.16,1.13
284.99,-0.52,-1.65,-0.52,-1.63,1.64,1.65,1.73,1.12,1.12,1.13
287.84,-0.53,-1.61,-0.53,-1.60,1.62,1.63,1.70,1.09,1.09,1.08
290.72,-0.54,-1.57,-0.54,-1.59,1.61,1.61,1.67,1.07,1.07,1.03
293.63,-0.54,-1.57,-0.54,-1.57,1.59,1.59,1.63,1.05,1.05,1.03
296.57,-0.55,-1.58,-0.55,-1.58,1.58,1.57,1.60,1.03,1.03,1.03
299.53,-0.55,-1.58,-0.55,-1.59,1.56,1.54,1.56,1.01,1.01,1.03
302.53,-0.56,-1.59,-0.56,-1.57,1.53,1.52,1.53,0.97,0.97,1.03
305.55,-0.56,-1.53,-0.56,-1.53,1.49,1.50,1.49,0.93,0.93,0.97
308.61,-0.56,-1.46,-0.56,-1.47,1.44,1.47,1.46,0.88,0.88,0.90
311.69,-0.56,-1.40,-0.56,-1.39,1.39,1.44,1.42,0.83,0.83,0.84
314.81,-0.56,-1.32,-0.56,-1.31,1.34,1.42,1.39,0.79,0.79,0.76
317.96,-0.55,-1.24,-0.55,-1.24,1.29,1.39,1.36,0.74,0.74,0.69
321.14,-0.54,-1.17,-0.54,-1.19,1.23,1.36,1.32,0.69,0.69,0.63
324.35,-0.53,-1.16,-0.53,-1.16,1.16,1.33,1.29,0.63,0.63,0.63
327.59,-0.52,-1.15,-0.52,-1.14,1.09,1.29,1.25,0.57,0.57,0.63
330.87,-0.51,-1.12,-0.51,-1.11,1.03,1.26,1.22,0.53,0.53,0.61
334.18,-0.50,-1.04,-0.50,-1.02,0.99,1.23,1.19,0.49,0.49,0.55
337.52,-0.49,-0.92,-0.49,-0.92,0.95,1.19,1.16,0.46,0.46,0.43
340.90,-0.48,-0.81,-0.48,-0.84,0.92,1.15,1.13,0.44,0.44,0.33
344.30,-0.47,-0.80,-0.47,-0.81,0.89,1.11,1.10,0.42,0.42,0.33
347.75,-0.46,-0.84,-0.46,-0.85,0.87,1.07,1.07,0.41,0.41,0.39
351.23,-0.45,-0.90,-0.45,-0.90,0.86,1.03,1.04,0.41,0.41,0.45
354.74,-0.44,-0.96,-0.44,-0.92,0.86,0.99,1.02,0.43,0.43,0.52
358.28,-0.43,-0.89,-0.43,-0.90,0.88,0.95,0.99,0.45,0.45,0.46
361.87,-0.41,-0.84,-0.41,-0.87,0.89,0.90,0.96,0.48,0.48,0.43
365.49,-0.40,-0.84,-0.40,-0.86,0.89,0.85,0.94,0.49,0.49,0.44
369.14,-0.39,-0.89,-0.39,-0.88,0.87,0.81,0.91,0.48,0.48,0.50
372.83,-0.37,-0.90,-0.37,-0.88,0.83,0.76,0.89,0.46,0.46,0.53
376.56,-0.36,-0.87,-0.36,-0.83,0.78,0.71,0.87,0.43,0.43,0.51
380.33,-0.34,-0.72,-0.34,-0.76,0.73,0.66,0.85,0.39,0.39,0.39
384.13,-0.32,-0.65,-0.32,-0.67,0.68,0.62,0.82,0.36,0.36,0.33
387.97,-0.30,-0.62,-0.30,-0.59,0.63,0.57,0.80,0.33,0.33,0.31
391.85,-0.28,-0.53,-0.28,-0.54,0.58,0.52,0.79,0.30,0.30,0.25
395.77,-0.26,-0.49,-0.26,-0.50,0.53,0.48,0.77,0.26,0.26,0.23
399.73,-0.25,-0.48,-0.25,-0.47,0.49,0.43,0.75,0.24,0.24,0.23
403.72,-0.23,-0.46,-0.23,-0.46,0.45,0.39,0.73,0.22,0.22,0.23
407.76,-0.21,-0.44,-0.21,-0.45,0.42,0.35,0.71,0.21,0.21,0.23
411.84,-0.19,-0.42,-0.19,-0.42,0.39,0.32,0.70,0.19,0.19,0.23
415.96,-0.18,-0.41,-0.18,-0.38,0.36,0.29,0.68,0.18,0.18,0.23
420.12,-0.16,-0.32,-0.16,-0.33,0.33,0.26,0.67,0.17,0.17,0.16
424.32,-0.14,-0.27,-0.15,-0.28,0.31,0.23,0.66,0.17,0.17,0.13
428.56,-0.13,-0.26,-0.13,-0.25,0.29,0.22,0.64,0.16,0.16,0.13
432.85,-0.11,-0.24,-0.11,-0.26,0.28,0.20,0.63,0.17,0.17,0.13
437.18,-0.10,-0.27,-0.10,-0.28,0.27,0.19,0.62,0.18,0.18,0.18
441.55,-0.08,-0.31,-0.08,-0.29,0.28,0.19,0.61,0.20,0.20,0.23
445.96,-0.06,-0.29,-0.06,-0.29,0.28,0.19,0.60,0.22,0.22,0.23
450.42,-0.05,-0.28,-0.05,-0.29,0.29,0.20,0.59,0.24,0.24,0.23
454.93,-0.03,-0.28,-0.03,-0.30,0.29,0.21,0.58,0.26,0.26,0.25
459.48,-0.01,-0.33,-0.01,-0.32,0.28,0.23,0.57,0.27,0.27,0.32
464.07,0.00,-0.33,0.00,-0.30,0.27,0.25,0.57,0.28,0.28,0.33
468.71,0.02,-0.28,0.02,-0.28,0.26,0.27,0.56,0.28,0.28,0.31
473.40,0.04,-0.20,0.04,-0.24,0.26,0.29,0.56,0.29,0.29,0.24
478.13,0.05,-0.24,0.05,-0.23,0.26,0.32,0.55,0.31,0.31,0.29
482.91,0.07,-0.26,0.07,-0.24,0.27,0.35,0.55,0.34,0.34,0.33
487.74,0.08,-0.25,0.08,-0.27,0.30,0.38,0.55,0.38,0.38,0.33
492.62,0.09,-0.30,0.09,-0.31,0.32,0.41,0.55,0.41,0.41,0.40
497.55,0.10,-0.36,0.10,-0.36,0.35,0.45,0.54,0.46,0.46,0.47
502.52,0.11,-0.43,0.11,-0.43,0.39,0.48,0.54,0.50,0.50,0.54
507.55,0.12,-0.49,0.12,-0.48,0.43,0.51,0.55,0.55,0.55,0.61
512.62,0.12,-0.51,0.12,-0.50,0.47,0.54,0.55,0.60,0.60,0.63
517.75,0.13,-0.50,0.13,-0.51,0.51,0.58,0.55,0.64,0.64,0.63
522.93,0.13,-0.50,0.13,-0.52,0.56,0.61,0.55,0.68,0.68,0.63
528.16,0.13,-0.56,0.13,-0.56,0.60,0.64,0.56,0.73,0.73,0.68
533.44,0.12,-0.63,0.12,-0.62,0.65,0.67,0.56,0.77,0.77,0.75
