frequency,raw,error,smoothed,error_smoothed,equalization,parametric_eq,fixed_band_eq,equalized_raw,equalized_smoothed,target
20.00,6.31,-0.64,6.31,-0.64,0.64,-0.52,-0.60,6.94,6.94,6.94
20.20,6.36,-0.58,6.36,-0.58,0.58,-0.53,-0.61,6.94,6.94,6.94
20.40,6.41,-0.52,6.41,-0.52,0.52,-0.54,-0.63,6.94,6.94,6.94
20.61,6.47,-0.47,6.47,-0.47,0.47,-0.55,-0.65,6.93,6.93,6.93
20.81,6.52,-0.41,6.52,-0.41,0.41,-0.56,-0.66,6.93,6.93,6.93
21.02,6.57,-0.35,6.57,-0.35,0.35,-0.58,-0.68,6.92,6.92,6.92
21.23,6.62,-0.30,6.62,-0.30,0.30,-0.59,-0.70,6.92,6.92,6.92
21.44,6.67,-0.24,6.67,-0.24,0.24,-0.60,-0.72,6.91,6.91,6.91
21.66,6.72,-0.18,6.72,-0.18,0.18,-0.62,-0.74,6.90,6.90,6.90
21.87,6.77,-0.12,6.77,-0.12,0.12,-0.63,-0.76,6.90,6.90,6.90
22.09,6.82,-0.06,6.82,-0.06,0.06,-0.64,-0.78,6.89,6.89,6.89
22.31,6.87,-0.01,6.87,-0.01,0.01,-0.66,-0.80,6.88,6.88,6.88
22.54,6.92,0.05,6.92,0.05,-0.05,-0.67,-0.83,6.87,6.87,6.87
22.76,6.97,0.11,6.97,0.11,-0.11,-0.69,-0.85,6.86,6.86,6.86
22.99,7.02,0.17,7.02,0.17,-0.17,-0.71,-0.87,6.85,6.85,6.86
23.22,7.07,0.22,7.07,0.22,-0.22,-0.72,-0.90,6.85,6.85,6.85
23.45,7.12,0.28,7.12,0.28,-0.28,-0.74,-0.92,6.84,6.84,6.84
23.69,7.17,0.34,7.17,0.34,-0.34,-0.76,-0.94,6.83,6.83,6.83
23.92,7.22,0.40,7.22,0.40,-0.40,-0.77,-0.97,6.82,6.82,6.82
24.16,7.26,0.45,7.26,0.45,-0.45,-0.79,-1.00,6.81,6.81,6.81
24.40,7.31,0.51,7.31,0.51,-0.51,-0.81,-1.02,6.80,6.80,6.80
24.65,7.36,0.56,7.36,0.56,-0.56,-0.83,-1.05,6.79,6.79,6.79
24.89,7.41,0.62,7.41,0.62,-0.62,-0.85,-1.08,6.79,6.79,6.78
25.14,7.45,0.68,7.45,0.68,-0.68,-0.87,-1.10,6.78,6.78,6.78
25.39,7.50,0.73,7.50,0.73,-0.73,-0.89,-1.13,6.77,6.77,6.77
25.65,7.54,0.78,7.54,0.78,-0.78,-0.91,-1.16,6.76,6.76,6.76
25.91,7.59,0.84,7.59,0.84,-0.84,-0.94,-1.19,6.75,6.75,6.75
26.16,7.63,0.89,7.63,0.89,-0.89,-0.96,-1.22,6.74,6.74,6.74
26.43,7.67,0.94,7.67,0.94,-0.94,-0.98,-1.24,6.73,6.73,6.73
26.69,7.72,1.00,7.72,1.00,-0.99,-1.01,-1.27,6.72,6.72,6.72
26.96,7.76,1.05,7.76,1.05,-1.05,-1.03,-1.30,6.71,6.71,6.71
27.23,7.80,1.10,7.80,1.10,-1.10,-1.06,-1.33,6.70,6.70,6.70
27.50,7.84,1.15,7.84,1.15,-1.15,-1.08,-1.36,6.69,6.69,6.69
27.77,7.88,1.20,7.88,1.20,-1.20,-1.11,-1.39,6.69,6.69,6.69
28.05,7.92,1.25,7.92,1.25,-1.25,-1.14,-1.42,6.68,6.68,6.68
28.33,7.96,1.29,7.96,1.29,-1.29,-1.16,-1.44,6.67,6.67,6.67
28.62,8.00,1.34,8.00,1.34,-1.34,-1.19,-1.47,6.66,6.66,6.66
28.90,8.04,1.39,8.04,1.39,-1.39,-1.22,-1.50,6.65,6.65,6.65
29.19,8.08,1.44,8.08,1.44,-1.44,-1.25,-1.52,6.64,6.64,6.64
29.48,8.11,1.48,8.11,1.48,-1.48,-1.28,-1.55,6.63,6.63,6.63
29.78,8.15,1.53,8.15,1.53,-1.53,-1.32,-1.57,6.62,6.62,6.62
30.08,8.19,1.57,8.19,1.57,-1.57,-1.35,-1.59,6.61,6.61,6.61
30.38,8.22,1.62,8.22,1.62,-1.62,-1.38,-1.62,6.60,6.60,6.60
30.68,8.26,1.66,8.26,1.66,-1.66,-1.42,-1.64,6.60,6.60,6.60
30.99,8.29,1.71,8.29,1.71,-1.71,-1.46,-1.66,6.59,6.59,6.59
31.30,8.33,1.75,8.33,1.75,-1.75,-1.49,-1.68,6.58,6.58,6.58
31.61,8.36,1.79,8.36,1.79,-1.79,-1.53,-1.70,6.57,6.57,6.57
31.93,8.40,1.84,8.40,1.84,-1.84,-1.57,-1.71,6.56,6.56,6.56
32.24,8.43,1.88,8.43,1.88,-1.88,-1.61,-1.73,6.55,6.55,6.55
32.57,8.46,1.92,8.46,1.92,-1.92,-1.65,-1.75,6.54,6.54,6.54
32.89,8.49,1.96,8.49,1.96,-1.96,-1.69,-1.76,6.53,6.53,6.53
33.22,8.53,2.00,8.53,2.00,-2.00,-1.73,-1.78,6.52,6.52,6.52
33.55,8.56,2.04,8.56,2.04,-2.04,-1.78,-1.79,6.51,6.51,6.51
33.89,8.59,2.08,8.59,2.08,-2.08,-1.82,-1.81,6.50,6.50,6.50
34.23,8.62,2.12,8.62,2.12,-2.12,-1.87,-1.82,6.50,6.50,6.50
34.57,8.65,2.16,8.65,2.16,-2.16,-1.91,-1.83,6.49,6.49,6.49
34.92,8.68,2.20,8.68,2.20,-2.20,-1.96,-1.85,6.48,6.48,6.48
35.27,8.71,2.24,8.71,2.24,-2.24,-2.01,-1.86,6.47,6.47,6.47
35.62,8.73,2.27,8.73,2.27,-2.27,-2.06,-1.87,6.46,6.46,6.46
35.97,8.76,2.31,8.76,2.31,-2.31,-2.11,-1.89,6.45,6.45,6.45
36.33,8.79,2.35,8.79,2.35,-2.35,-2.16,-1.90,6.44,6.44,6.44
36.70,8.81,2.38,8.81,2.38,-2.38,-2.21,-1.92,6.43,6.43,6.43
37.06,8.84,2.42,8.84,2.42,-2.42,-2.26,-1.93,6.42,6.42,6.42
37.43,8.87,2.45,8.87,2.45,-2.45,-2.31,-1.95,6.41,6.41,6.41
37.81,8.89,2.49,8.89,2.49,-2.49,-2.36,-1.96,6.40,6.41,6.40
38.19,8.91,2.52,8.91,2.52,-2.52,-2.41,-1.98,6.40,6.40,6.40
38.57,8.94,2.55,8.94,2.55,-2.55,-2.47,-2.00,6.39,6.39,6.39
38.95,8.96,2.58,8.96,2.58,-2.58,-2.52,-2.02,6.38,6.38,6.38
39.34,8.98,2.62,8.98,2.62,-2.62,-2.57,-2.04,6.37,6.37,6.37
39.74,9.01,2.65,9.01,2.65,-2.65,-2.62,-2.07,6.36,6.36,6.36
40.14,9.03,2.68,9.03,2.68,-2.68,-2.67,-2.09,6.35,6.35,6.35
40.54,9.05,2.71,9.05,2.71,-2.71,-2.72,-2.12,6.34,6.34,6.34
40.94,9.07,2.74,9.07,2.74,-2.74,-2.76,-2.15,6.33,6.33,6.33
41.35,9.09,2.77,9.09,2.77,-2.77,-2.81,-2.18,6.32,6.32,6.32
41.76,9.11,2.79,9.11,2.79,-2.79,-2.85,-2.21,6.31,6.31,6.31
42.18,9.13,2.82,9.13,2.82,-2.82,-2.90,-2.24,6.31,6.31,6.31
42.60,9.14,2.85,9.14,2.85,-2.85,-2.94,-2.27,6.30,6.30,6.30
43.03,9.16,2.87,9.16,2.87,-2.87,-2.98,-2.31,6.29,6.29,6.29
43.46,9.18,2.90,9.18,2.90,-2.90,-3.01,-2.35,6.28,6.28,6.28
43.90,9.19,2.93,9.20,2.93,-2.93,-3.05,-2.39,6.27,6.27,6.27
44.33,9.21,2.95,9.21,2.95,-2.95,-3.08,-2.43,6.26,6.26,6.26
44.78,9.23,2.98,9.23,2.98,-2.98,-3.11,-2.47,6.25,6.25,6.25
45.23,9.24,3.00,9.24,3.00,-3.00,-3.14,-2.52,6.24,6.24,6.24
45.68,9.26,3.02,9.26,3.02,-3.02,-3.16,-2.57,6.23,6.23,6.23
46.13,9.27,3.05,9.27,3.05,-3.05,-3.18,-2.62,6.22,6.22,6.22
46.60,9.28,3.07,9.28,3.07,-3.07,-3.20,-2.67,6.21,6.21,6.21
47.06,9.29,3.09,9.30,3.09,-3.09,-3.22,-2.72,6.21,6.21,6.21
47.53,9.31,3.11,9.31,3.11,-3.11,-3.24,-2.77,6.20,6.20,6.20
48.01,9.32,3.13,9.32,3.13,-3.13,-3.25,-2.83,6.19,6.19,6.19
48.49,9.33,3.15,9.33,3.15,-3.15,-3.26,-2.89,6.18,6.18,6.18
48.97,9.34,3.17,9.34,3.17,-3.17,-3.27,-2.95,6.17,6.17,6.17
49.46,9.35,3.19,9.35,3.19,-3.19,-3.28,-3.01,6.16,6.16,6.16
49.96,9.36,3.21,9.36,3.21,-3.21,-3.29,-3.07,6.15,6.15,6.15
50.46,9.37,3.23,9.37,3.23,-3.23,-3.29,-3.13,6.14,6.14,6.14
50.96,9.38,3.24,9.38,3.24,-3.24,-3.29,-3.19,6.13,6.13,6.13
51.47,9.38,3.26,9.38,3.26,-3.26,-3.30,-3.25,6.12,6.12,6.12
51.99,9.39,3.28,9.39,3.28,-3.28,-3.30,-3.32,6.11,6.11,6.11
52.51,9.40,3.29,9.40,3.29,-3.29,-3.30,-3.38,6.10,6.10,6.10
53.03,9.40,3.31,9.40,3.31,-3.31,-3.30,-3.44,6.10,6.10,6.10
53.56,9.41,3.32,9.41,3.32,-3.32,-3.30,-3.51,6.09,6.09,6.09
54.10,9.41,3.34,9.41,3.34,-3.34,-3.30,-3.57,6.08,6.08,6.08
54.64,9.42,3.35,9.42,3.35,-3.35,-3.30,-3.63,6.07,6.07,6.07
55.18,9.42,3.37,9.42,3.37,-3.37,-3.30,-3.69,6.06,6.06,6.06
55.74,9.43,3.38,9.43,3.38,-3.38,-3.30,-3.74,6.05,6.05,6.05
56.29,9.43,3.39,9.43,3.39,-3.39,-3.30,-3.80,6.04,6.04,6.04
56.86,9.43,3.40,9.43,3.40,-3.40,-3.30,-3.85,6.03,6.03,6.03
57.42,9.43,3.42,9.43,3.42,-3.42,-3.31,-3.89,6.02,6.02,6.02
58.00,9.43,3.43,9.43,3.43,-3.43,-3.31,-3.94,6.01,6.01,6.01
58.58,9.43,3.44,9.43,3.44,-3.44,-3.31,-3.98,6.00,6.00,5.99
59.16,9.43,3.45,9.43,3.45,-3.45,-3.31,-4.02,5.98,5.98,5.98
59.76,9.43,3.46,9.43,3.46,-3.46,-3.32,-4.05,5.97,5.97,5.97
60.35,9.43,3.47,9.43,3.47,-3.47,-3.32,-4.08,5.96,5.96,5.96
60.96,9.43,3.48,9.43,3.48,-3.48,-3.33,-4.10,5.95,5.95,5.95
61.57,9.43,3.49,9.43,3.49,-3.49,-3.33,-4.12,5.94,5.94,5.94
62.18,9.42,3.50,9.42,3.50,-3.50,-3.34,-4.13,5.92,5.92,5.92
62.80,9.42,3.51,9.42,3.51,-3.51,-3.35,-4.14,5.91,5.91,5.91
63.43,9.41,3.51,9.41,3.51,-3.51,-3.35,-4.14,5.90,5.90,5.90
64.07,9.41,3.52,9.41,3.52,-3.52,-3.36,-4.14,5.89,5.89,5.89
64.71,9.40,3.53,9.40,3.53,-3.53,-3.37,-4.13,5.87,5.87,5.87
65.35,9.40,3.54,9.40,3.54,-3.54,-3.38,-4.11,5.86,5.86,5.86
66.01,9.39,3.54,9.39,3.54,-3.54,-3.39,-4.10,5.85,5.85,5.85
66.67,9.38,3.55,9.38,3.55,-3.55,-3.40,-4.08,5.83,5.83,5.83
67.33,9.37,3.56,9.37,3.56,-3.55,-3.41,-4.05,5.82,5.82,5.82
68.01,9.37,3.56,9.37,3.56,-3.56,-3.42,-4.02,5.81,5.81,5.81
68.69,9.36,3.57,9.36,3.57,-3.57,-3.43,-3.99,5.79,5.79,5.79
69.37,9.35,3.57,9.35,3.57,-3.57,-3.44,-3.95,5.78,5.78,5.78
70.07,9.34,3.57,9.34,3.57,-3.57,-3.45,-3.91,5.76,5.76,5.76
70.77,9.33,3.58,9.33,3.58,-3.58,-3.46,-3.87,5.75,5.75,5.75
71.48,9.32,3.58,9.32,3.58,-3.58,-3.47,-3.83,5.74,5.74,5.74
72.19,9.30,3.58,9.30,3.58,-3.58,-3.48,-3.79,5.72,5.72,5.72
72.91,9.29,3.58,9.29,3.58,-3.58,-3.50,-3.74,5.71,5.71,5.71
73.64,9.28,3.58,9.28,3.58,-3.58,-3.51,-3.69,5.69,5.69,5.69
74.38,9.26,3.58,9.26,3.58,-3.58,-3.52,-3.65,5.68,5.68,5.68
75.12,9.25,3.59,9.25,3.58,-3.58,-3.53,-3.60,5.67,5.67,5.67
75.87,9.24,3.58,9.24,3.58,-3.58,-3.54,-3.56,5.65,5.65,5.65
76.63,9.22,3.58,9.22,3.58,-3.58,-3.55,-3.51,5.64,5.64,5.64
77.40,9.21,3.58,9.21,3.58,-3.58,-3.56,-3.47,5.62,5.62,5.62
78.17,9.19,3.58,9.19,3.58,-3.58,-3.57,-3.42,5.61,5.61,5.61
78.95,9.17,3.58,9.17,3.58,-3.58,-3.57,-3.38,5.60,5.60,5.60
79.74,9.16,3.57,9.16,3.57,-3.57,-3.58,-3.34,5.58,5.58,5.58
80.54,9.14,3.57,9.14,3.57,-3.57,-3.59,-3.30,5.57,5.57,5.57
81.35,9.12,3.57,9.12,3.57,-3.57,-3.59,-3.26,5.55,5.55,5.55
82.16,9.10,3.56,9.10,3.56,-3.56,-3.60,-3.23,5.54,5.54,5.54
82.98,9.08,3.56,9.08,3.56,-3.56,-3.60,-3.19,5.52,5.52,5.52
83.81,9.06,3.55,9.06,3.55,-3.55,-3.61,-3.16,5.51,5.51,5.51
84.65,9.04,3.54,9.04,3.54,-3.54,-3.61,-3.13,5.50,5.50,5.50
85.50,9.02,3.53,9.02,3.54,-3.54,-3.61,-3.11,5.48,5.48,5.48
86.35,9.00,3.53,9.00,3.53,-3.53,-3.61,-3.08,5.47,5.47,5.47
87.22,8.97,3.52,8.97,3.52,-3.52,-3.61,-3.06,5.45,5.45,5.45
88.09,8.95,3.51,8.95,3.51,-3.51,-3.61,-3.04,5.44,5.44,5.44
88.97,8.92,3.50,8.92,3.50,-3.50,-3.61,-3.02,5.43,5.43,5.43
89.86,8.90,3.49,8.90,3.49,-3.49,-3.61,-3.01,5.41,5.41,5.41
90.76,8.88,3.48,8.88,3.48,-3.48,-3.60,-2.99,5.40,5.40,5.40
91.66,8.85,3.47,8.85,3.47,-3.47,-3.60,-2.98,5.38,5.38,5.38
92.58,8.82,3.46,8.82,3.46,-3.46,-3.59,-2.98,5.37,5.37,5.37
93.51,8.80,3.44,8.80,3.44,-3.44,-3.58,-2.97,5.36,5.36,5.35
94.44,8.77,3.43,8.77,3.43,-3.43,-3.57,-2.97,5.34,5.34,5.34
95.39,8.74,3.42,8.74,3.42,-3.42,-3.56,-2.96,5.33,5.33,5.33
96.34,8.72,3.40,8.72,3.40,-3.40,-3.55,-2.97,5.31,5.31,5.31
97.30,8.69,3.39,8.69,3.39,-3.39,-3.54,-2.97,5.30,5.30,5.30
98.28,8.66,3.38,8.66,3.38,-3.38,-3.52,-2.97,5.28,5.28,5.28
99.26,8.63,3.36,8.63,3.36,-3.36,-3.51,-2.98,5.27,5.27,5.27
100.25,8.60,3.35,8.60,3.35,-3.35,-3.49,-2.98,5.26,5.26,5.26
101.25,8.57,3.33,8.57,3.33,-3.33,-3.47,-2.99,5.24,5.24,5.24
102.27,8.54,3.32,8.54,3.32,-3.32,-3.45,-3.00,5.23,5.23,5.23
103.29,8.51,3.30,8.51,3.30,-3.30,-3.43,-3.01,5.21,5.21,5.21
104.32,8.48,3.28,8.48,3.28,-3.28,-3.41,-3.03,5.20,5.20,5.20
105.37,8.45,3.27,8.45,3.27,-3.27,-3.39,-3.04,5.18,5.18,5.19
106.42,8.42,3.25,8.42,3.25,-3.25,-3.37,-3.05,5.17,5.17,5.17
107.48,8.39,3.23,8.39,3.23,-3.23,-3.34,-3.06,5.16,5.16,5.16
108.56,8.36,3.21,8.36,3.21,-3.21,-3.32,-3.08,5.14,5.14,5.14
109.64,8.32,3.19,8.32,3.19,-3.19,-3.29,-3.09,5.13,5.13,5.13
110.74,8.29,3.18,8.29,3.18,-3.18,-3.26,-3.10,5.11,5.11,5.11
111.85,8.26,3.16,8.26,3.16,-3.16,-3.23,-3.11,5.10,5.10,5.10
112.97,8.22,3.14,8.22,3.14,-3.14,-3.20,-3.12,5.09,5.09,5.09
114.10,8.19,3.12,8.19,3.12,-3.12,-3.17,-3.13,5.07,5.07,5.07
115.24,8.15,3.09,8.15,3.09,-3.09,-3.14,-3.13,5.06,5.06,5.06
116.39,8.12,3.07,8.12,3.07,-3.07,-3.11,-3.14,5.04,5.04,5.04
117.55,8.08,3.05,8.08,3.05,-3.05,-3.08,-3.14,5.03,5.03,5.03
118.73,8.04,3.03,8.04,3.03,-3.03,-3.05,-3.14,5.02,5.02,5.02
119.92,8.01,3.01,8.01,3.01,-3.01,-3.01,-3.14,5.00,5.00,5.00
121.12,7.97,2.98,7.97,2.98,-2.98,-2.98,-3.13,4.99,4.99,4.99
122.33,7.93,2.96,7.93,2.96,-2.96,-2.94,-3.12,4.97,4.97,4.97
123.55,7.89,2.93,7.89,2.93,-2.93,-2.91,-3.11,4.96,4.96,4.96
124.79,7.85,2.91,7.85,2.91,-2.91,-2.87,-3.10,4.94,4.94,4.94
126.03,7.81,2.88,7.81,2.88,-2.88,-2.84,-3.08,4.93,4.93,4.93
127.29,7.77,2.86,7.77,2.86,-2.86,-2.80,-3.06,4.92,4.92,4.92
128.57,7.73,2.83,7.73,2.83,-2.83,-2.76,-3.03,4.90,4.90,4.90
129.85,7.69,2.80,7.69,2.80,-2.80,-2.73,-3.01,4.89,4.89,4.89
131.15,7.65,2.77,7.65,2.77,-2.77,-2.69,-2.98,4.87,4.87,4.87
132.46,7.60,2.74,7.60,2.74,-2.74,-2.65,-2.94,4.86,4.86,4.86
133.79,7.56,2.71,7.56,2.71,-2.71,-2.61,-2.91,4.85,4.85,4.85
135.12,7.52,2.68,7.52,2.68,-2.68,-2.57,-2.87,4.83,4.83,4.83
136.48,7.47,2.65,7.47,2.65,-2.65,-2.54,-2.83,4.82,4.82,4.82
137.84,7.42,2.62,7.42,2.62,-2.62,-2.50,-2.78,4.80,4.80,4.80
139.22,7.38,2.59,7.38,2.59,-2.59,-2.46,-2.74,4.79,4.79,4.79
140.61,7.33,2.56,7.33,2.56,-2.56,-2.42,-2.69,4.77,4.77,4.77
142.02,7.29,2.52,7.29,2.52,-2.52,-2.38,-2.64,4.76,4.76,4.76
143.44,7.24,2.49,7.24,2.49,-2.49,-2.34,-2.59,4.75,4.75,4.75
144.87,7.19,2.46,7.19,2.46,-2.46,-2.31,-2.54,4.73,4.73,4.73
146.32,7.14,2.42,7.14,2.42,-2.42,-2.27,-2.49,4.72,4.72,4.72
147.78,7.09,2.39,7.09,2.39,-2.39,-2.23,-2.44,4.70,4.70,4.70
149.26,7.04,2.35,7.04,2.35,-2.35,-2.19,-2.39,4.69,4.69,4.69
150.75,6.99,2.32,6.99,2.31,-2.32,-2.15,-2.33,4.68,4.68,4.68
152.26,6.94,2.28,6.94,2.28,-2.28,-2.12,-2.28,4.66,4.66,4.66
153.78,6.89,2.24,6.89,2.24,-2.24,-2.08,-2.23,4.65,4.65,4.65
155.32,6.84,2.20,6.84,2.20,-2.20,-2.04,-2.18,4.63,4.63,4.63
156.88,6.79,2.17,6.79,2.17,-2.17,-2.00,-2.13,4.62,4.62,4.62
158.44,6.73,2.13,6.73,2.13,-2.13,-1.97,-2.08,4.60,4.60,4.61
160.03,6.68,2.09,6.68,2.09,-2.09,-1.93,-2.03,4.59,4.59,4.59
161.63,6.63,2.05,6.63,2.05,-2.05,-1.90,-1.98,4.58,4.58,4.58
163.24,6.57,2.01,6.57,2.01,-2.01,-1.86,-1.93,4.56,4.56,4.56
164.88,6.52,1.97,6.52,1.97,-1.97,-1.82,-1.89,4.55,4.55,4.55
166.53,6.46,1.93,6.46,1.93,-1.93,-1.79,-1.84,4.53,4.53,4.53
168.19,6.40,1.88,6.41,1.88,-1.89,-1.76,-1.80,4.52,4.52,4.52
169.87,6.35,1.84,6.35,1.84,-1.84,-1.72,-1.75,4.51,4.51,4.51
171.57,6.29,1.80,6.29,1.80,-1.80,-1.69,-1.71,4.49,4.49,4.49
173.29,6.23,1.75,6.23,1.75,-1.75,-1.65,-1.67,4.48,4.48,4.48
175.02,6.17,1.71,6.17,1.71,-1.71,-1.62,-1.63,4.46,4.46,4.46
176.77,6.11,1.66,6.11,1.66,-1.66,-1.59,-1.59,4.45,4.45,4.45
178.54,6.05,1.61,6.05,1.61,-1.61,-1.56,-1.56,4.44,4.44,4.44
180.32,5.99,1.56,5.99,1.56,-1.56,-1.53,-1.52,4.42,4.42,4.42
182.13,5.92,1.52,5.92,1.52,-1.51,-1.50,-1.49,4.41,4.41,4.41
183.95,5.86,1.47,5.86,1.47,-1.47,-1.47,-1.45,4.39,4.39,4.39
185.79,5.80,1.42,5.80,1.42,-1.42,-1.44,-1.42,4.38,4.38,4.38
187.65,5.73,1.37,5.73,1.37,-1.37,-1.41,-1.39,4.36,4.36,4.36
189.52,5.67,1.32,5.67,1.32,-1.32,-1.38,-1.36,4.35,4.35,4.35
191.42,5.61,1.27,5.61,1.27,-1.27,-1.35,-1.33,4.34,4.34,4.34
193.33,5.55,1.22,5.55,1.22,-1.22,-1.33,-1.30,4.32,4.32,4.32
195.27,5.49,1.18,5.49,1.18,-1.18,-1.30,-1.28,4.31,4.31,4.31
197.22,5.43,1.13,5.43,1.13,-1.13,-1.28,-1.25,4.29,4.29,4.29
199.19,5.37,1.09,5.37,1.09,-1.09,-1.25,-1.23,4.28,4.28,4.28
201.18,5.32,1.06,5.32,1.06,-1.06,-1.23,-1.20,4.27,4.26,4.27
203.19,5.27,1.02,5.27,1.02,-1.02,-1.20,-1.18,4.25,4.25,4.25
205.23,5.23,0.99,5.23,0.99,-0.99,-1.18,-1.16,4.24,4.24,4.24
207.28,5.19,0.97,5.19,0.97,-0.97,-1.16,-1.13,4.22,4.22,4.22
209.35,5.16,0.95,5.16,0.95,-0.95,-1.14,-1.11,4.21,4.21,4.21
211.44,5.13,0.94,5.13,0.94,-0.94,-1.12,-1.09,4.19,4.19,4.19
213.56,5.11,0.93,5.11,0.93,-0.93,-1.10,-1.07,4.18,4.18,4.18
215.69,5.09,0.92,5.09,0.92,-0.92,-1.08,-1.05,4.17,4.16,4.17
217.85,5.07,0.92,5.08,0.92,-0.92,-1.06,-1.03,4.15,4.15,4.15
220.03,5.06,0.93,5.07,0.93,-0.93,-1.04,-1.01,4.14,4.14,4.14
222.23,5.06,0.93,5.06,0.93,-0.93,-1.03,-0.99,4.12,4.12,4.12
224.45,5.05,0.94,5.05,0.94,-0.94,-1.01,-0.97,4.11,4.11,4.11
226.70,5.05,0.95,5.05,0.95,-0.95,-0.99,-0.95,4.10,4.10,4.10
228.96,5.04,0.96,5.04,0.96,-0.96,-0.97,-0.93,4.08,4.08,4.08
231.25,5.03,0.96,5.03,0.96,-0.96,-0.96,-0.90,4.07,4.07,4.07
233.57,5.02,0.97,5.02,0.97,-0.97,-0.94,-0.88,4.06,4.06,4.05
235.90,5.01,0.97,5.01,0.97,-0.97,-0.92,-0.86,4.04,4.04,4.04
238.26,4.99,0.96,4.99,0.96,-0.96,-0.91,-0.84,4.03,4.03,4.03
240.64,4.97,0.95,4.97,0.95,-0.95,-0.89,-0.81,4.01,4.01,4.01
243.05,4.94,0.94,4.94,0.94,-0.94,-0.87,-0.79,4.00,4.00,4.00
245.48,4.91,0.92,4.91,0.93,-0.92,-0.85,-0.76,3.98,3.98,3.98
247.93,4.87,0.90,4.87,0.90,-0.90,-0.83,-0.73,3.97,3.97,3.97
250.41,4.83,0.88,4.83,0.88,-0.88,-0.81,-0.71,3.96,3.95,3.95
252.92,4.79,0.85,4.79,0.85,-0.85,-0.79,-0.68,3.94,3.94,3.94
255.45,4.74,0.81,4.74,0.81,-0.81,-0.76,-0.65,3.93,3.93,3.93
258.00,4.69,0.78,4.69,0.78,-0.78,-0.74,-0.62,3.91,3.91,3.91
260.58,4.64,0.74,4.64,0.74,-0.74,-0.71,-0.58,3.90,3.90,3.90
263.19,4.58,0.70,4.58,0.70,-0.70,-0.68,-0.55,3.88,3.88,3.88
265.82,4.52,0.65,4.52,0.65,-0.65,-0.65,-0.52,3.87,3.87,3.87
268.48,4.46,0.61,4.46,0.61,-0.61,-0.61,-0.48,3.86,3.86,3.86
271.16,4.40,0.56,4.40,0.56,-0.56,-0.58,-0.45,3.84,3.84,3.84
273.87,4.34,0.51,4.34,0.51,-0.51,-0.54,-0.41,3.83,3.83,3.83
276.61,4.27,0.46,4.27,0.46,-0.46,-0.50,-0.37,3.81,3.81,3.81
279.38,4.21,0.41,4.21,0.41,-0.41,-0.46,-0.33,3.80,3.80,3.80
282.17,4.15,0.36,4.15,0.36,-0.36,-0.41,-0.29,3.78,3.78,3.78
284.99,4.08,0.31,4.08,0.31,-0.31,-0.37,-0.25,3.77,3.77,3.77
287.84,4.02,0.26,4.02,0.26,-0.26,-0.32,-0.21,3.76,3.76,3.76
290.72,3.95,0.21,3.95,0.21,-0.21,-0.27,-0.17,3.74,3.74,3.74
293.63,3.89,0.16,3.89,0.16,-0.16,-0.23,-0.13,3.73,3.73,3.73
296.57,3.82,0.11,3.82,0.11,-0.11,-0.18,-0.08,3.71,3.71,3.71
299.53,3.76,0.06,3.76,0.06,-0.06,-0.12,-0.04,3.70,3.70,3.70
302.53,3.69,0.01,3.69,0.01,-0.01,-0.07,0.01,3.69,3.69,3.69
305.55,3.63,-0.04,3.63,-0.04,0.04,-0.02,0.05,3.67,3.67,3.67
308.61,3.57,-0.09,3.57,-0.09,0.09,0.03,0.10,3.66,3.66,3.66
311.69,3.50,-0.14,3.50,-0.14,0.14,0.08,0.14,3.64,3.64,3.64
314.81,3.44,-0.19,3.44,-0.19,0.19,0.14,0.19,3.63,3.63,3.63
317.96,3.38,-0.24,3.38,-0.24,0.24,0.19,0.24,3.61,3.61,3.61
321.14,3.31,-0.29,3.31,-0.29,0.29,0.24,0.29,3.60,3.60,3.60
324.35,3.25,-0.34,3.25,-0.34,0.34,0.29,0.34,3.59,3.59,3.59
327.59,3.19,-0.38,3.19,-0.38,0.38,0.34,0.39,3.57,3.57,3.57
330.87,3.13,-0.43,3.13,-0.43,0.43,0.40,0.44,3.56,3.56,3.56
334.18,3.06,-0.48,3.06,-0.48,0.48,0.45,0.49,3.54,3.54,3.54
337.52,3.00,-0.53,3.00,-0.53,0.53,0.50,0.54,3.53,3.53,3.53
340.90,2.94,-0.58,2.94,-0.57,0.57,0.55,0.59,3.52,3.52,3.52
344.30,2.88,-0.62,2.88,-0.62,0.62,0.60,0.64,3.50,3.50,3.50
347.75,2.82,-0.67,2.82,-0.67,0.67,0.65,0.70,3.49,3.49,3.49
351.23,2.76,-0.71,2.76,-0.71,0.71,0.70,0.75,3.47,3.47,3.47
354.74,2.70,-0.76,2.70,-0.76,0.76,0.74,0.81,3.46,3.46,3.46
358.28,2.64,-0.81,2.64,-0.81,0.81,0.79,0.86,3.44,3.44,3.44
361.87,2.58,-0.85,2.58,-0.85,0.85,0.84,0.92,3.43,3.43,3.43
365.49,2.52,-0.90,2.52,-0.90,0.90,0.89,0.97,3.42,3.42,3.42
369.14,2.46,-0.94,2.46,-0.94,0.94,0.93,1.03,3.40,3.40,3.40
372.83,2.40,-0.99,2.40,-0.99,0.99,0.98,1.09,3.39,3.39,3.39
376.56,2.34,-1.03,2.34,-1.03,1.03,1.03,1.14,3.37,3.37,3.37
380.33,2.29,-1.07,2.29,-1.07,1.07,1.07,1.20,3.36,3.36,3.36
384.13,2.23,-1.12,2.23,-1.12,1.12,1.12,1.26,3.35,3.35,3.35
387.97,2.17,-1.16,2.17,-1.16,1.16,1.16,1.32,3.33,3.33,3.33
391.85,2.11,-1.20,2.11,-1.20,1.20,1.21,1.38,3.32,3.32,3.32
395.77,2.06,-1.25,2.06,-1.25,1.25,1.25,1.44,3.30,3.30,3.30
399.73,2.00,-1.29,2.00,-1.29,1.29,1.29,1.50,3.29,3.29,3.29
403.72,1.94,-1.33,1.94,-1.33,1.33,1.34,1.56,3.28,3.28,3.28
407.76,1.89,-1.37,1.89,-1.37,1.37,1.38,1.62,3.26,3.26,3.26
411.84,1.83,-1.41,1.83,-1.41,1.41,1.42,1.68,3.25,3.25,3.25
415.96,1.78,-1.45,1.78,-1.45,1.45,1.47,1.74,3.23,3.23,3.23
420.12,1.72,-1.50,1.72,-1.50,1.50,1.51,1.80,3.22,3.22,3.22
424.32,1.67,-1.54,1.67,-1.54,1.54,1.55,1.86,3.20,3.20,3.20
428.56,1.61,-1.58,1.61,-1.58,1.58,1.59,1.92,3.19,3.19,3.19
432.85,1.56,-1.62,1.56,-1.62,1.62,1.63,1.98,3.18,3.18,3.18
437.18,1.51,-1.66,1.51,-1.66,1.66,1.67,2.03,3.16,3.16,3.16
441.55,1.45,-1.69,1.45,-1.69,1.69,1.71,2.09,3.15,3.15,3.15
445.96,1.40,-1.73,1.40,-1.73,1.73,1.75,2.14,3.13,3.13,3.13
450.42,1.35,-1.77,1.35,-1.77,1.77,1.79,2.19,3.12,3.12,3.12
454.93,1.29,-1.81,1.29,-1.81,1.81,1.83,2.24,3.11,3.11,3.11
459.48,1.24,-1.85,1.24,-1.85,1.85,1.87,2.29,3.09,3.09,3.09
464.07,1.19,-1.89,1.19,-1.89,1.89,1.91,2.33,3.08,3.08,3.08
468.71,1.14,-1.92,1.14,-1.92,1.92,1.95,2.37,3.06,3.06,3.06
473.40,1.09,-1.96,1.09,-1.96,1.96,1.98,2.41,3.05,3.05,3.05
478.13,1.04,-2.00,1.04,-2.00,2.00,2.02,2.44,3.03,3.03,3.03
482.91,0.99,-2.03,0.99,-2.03,2.03,2.06,2.47,3.02,3.02,3.02
487.74,0.94,-2.07,0.94,-2.07,2.07,2.09,2.50,3.01,3.01,3.01
492.62,0.89,-2.10,0.89,-2.10,2.10,2.13,2.53,2.99,2.99,2.99
497.55,0.84,-2.14,0.84,-2.14,2.14,2.16,2.55,2.98,2.98,2.98
502.52,0.79,-2.17,0.79,-2.17,2.17,2.20,2.57,2.96,2.96,2.96
507.55,0.74,-2.21,0.74,-2.21,2.21,2.23,2.58,2.95,2.95,2.95
512.62,0.69,-2.24,0.69,-2.24,2.24,2.27,2.59,2.94,2.94,2.94
517.75,0.64,-2.28,0.64,-2.28,2.28,2.30,2.60,2.92,2.92,2.92
522.93,0.60,-2.31,0.60,-2.31,2.31,2.33,2.60,2.91,2.91,2.91
528.16,0.55,-2.34,0.55,-2.34,2.34,2.36,2.60,2.89,2.89,2.89
533.44,0.50,-2.37,0.50,-2.37,2.37,2.39,2.60,2.88,2.88,2.88
538.77,0.46,-2.41,0.46,-2.41,2.41,2.42,2.59,2.87,2.87,2.86
544.16,0.41,-2.44,0.41,-2.44,2.44,2.45,2.59,2.85,2.85,2.85
549.60,0.37,-2.47,0.37,-2.47,2.47,2.48,2.58,2.84,2.84,2.84
