frequency,raw,error,smoothed,error_smoothed,equalization,parametric_eq,fixed_band_eq,equalized_raw,equalized_smoothed,target
20.00,4.07,-4.21,4.07,-4.22,4.22,-0.02,1.44,8.29,8.29,8.28
20.20,4.12,-4.21,4.12,-4.20,4.20,-0.02,1.48,8.32,8.32,8.33
20.40,4.17,-4.21,4.17,-4.18,4.17,-0.02,1.53,8.35,8.35,8.38
20.61,4.23,-4.15,4.23,-4.15,4.15,-0.02,1.57,8.38,8.38,8.38
20.81,4.28,-4.10,4.28,-4.12,4.13,-0.02,1.62,8.40,8.40,8.38
21.02,4.33,-4.09,4.33,-4.10,4.11,-0.02,1.67,8.43,8.43,8.42
21.23,4.38,-4.10,4.38,-4.07,4.09,-0.02,1.72,8.46,8.46,8.48
21.44,4.43,-4.05,4.43,-4.06,4.07,-0.02,1.77,8.49,8.49,8.48
21.66,4.48,-4.02,4.48,-4.04,4.05,-0.02,1.82,8.53,8.53,8.50
21.87,4.52,-4.05,4.52,-4.02,4.04,-0.02,1.88,8.56,8.56,8.57
22.09,4.57,-4.01,4.57,-4.02,4.03,-0.02,1.94,8.59,8.59,8.58
22.31,4.61,-4.01,4.61,-4.02,4.01,-0.02,1.99,8.62,8.62,8.62
22.54,4.66,-4.02,4.66,-4.00,3.98,-0.02,2.05,8.64,8.64,8.68
22.76,4.70,-3.98,4.70,-3.98,3.96,-0.02,2.11,8.66,8.66,8.68
22.99,4.74,-3.94,4.74,-3.94,3.92,-0.02,2.18,8.67,8.67,8.68
23.22,4.79,-3.89,4.79,-3.89,3.89,-0.02,2.24,8.68,8.68,8.68
23.45,4.84,-3.84,4.84,-3.84,3.85,-0.03,2.30,8.69,8.69,8.68
23.69,4.89,-3.79,4.89,-3.80,3.82,-0.03,2.37,8.70,8.70,8.68
23.92,4.94,-3.77,4.94,-3.78,3.79,-0.03,2.44,8.73,8.73,8.71
24.16,4.99,-3.78,4.99,-3.76,3.77,-0.03,2.51,8.76,8.76,8.77
24.40,5.04,-3.74,5.04,-3.75,3.76,-0.03,2.58,8.80,8.80,8.78
24.65,5.09,-3.73,5.09,-3.74,3.76,-0.03,2.65,8.85,8.85,8.82
24.89,5.14,-3.74,5.14,-3.74,3.76,-0.03,2.72,8.90,8.90,8.88
25.14,5.18,-3.76,5.18,-3.77,3.76,-0.03,2.79,8.95,8.95,8.94
25.39,5.23,-3.79,5.23,-3.79,3.76,-0.03,2.86,8.99,8.99,9.01
25.65,5.27,-3.81,5.27,-3.79,3.76,-0.03,2.93,9.03,9.03,9.08
25.91,5.31,-3.77,5.31,-3.77,3.75,-0.03,3.01,9.06,9.06,9.08
26.16,5.35,-3.73,5.35,-3.74,3.73,-0.03,3.08,9.08,9.08,9.08
26.43,5.39,-3.69,5.39,-3.69,3.71,-0.03,3.15,9.10,9.10,9.08
26.69,5.43,-3.65,5.43,-3.65,3.67,-0.03,3.22,9.10,9.10,9.08
26.96,5.47,-3.61,5.47,-3.62,3.62,-0.03,3.29,9.09,9.09,9.08
27.23,5.51,-3.57,5.51,-3.57,3.56,-0.03,3.35,9.07,9.07,9.08
27.50,5.55,-3.53,5.55,-3.51,3.50,-0.03,3.42,9.05,9.05,9.08
27.77,5.59,-3.44,5.59,-3.45,3.43,-0.04,3.48,9.02,9.02,9.03
28.05,5.62,-3.36,5.62,-3.38,3.37,-0.04,3.54,8.99,8.99,8.98
28.33,5.66,-3.32,5.66,-3.30,3.31,-0.04,3.59,8.97,8.97,8.98
28.62,5.69,-3.23,5.69,-3.23,3.25,-0.04,3.65,8.94,8.94,8.93
28.90,5.73,-3.15,5.73,-3.17,3.19,-0.04,3.69,8.91,8.91,8.88
29.19,5.76,-3.12,5.76,-3.12,3.13,-0.04,3.74,8.90,8.90,8.88
29.48,5.79,-3.09,5.79,-3.08,3.09,-0.04,3.77,8.88,8.88,8.88
29.78,5.83,-3.05,5.83,-3.05,3.05,-0.04,3.81,8.88,8.88,8.88
30.08,5.86,-3.02,5.86,-3.02,3.02,-0.04,3.83,8.88,8.88,8.88
30.38,5.89,-2.99,5.89,-2.99,2.99,-0.04,3.85,8.88,8.88,8.88
30.68,5.92,-2.96,5.92,-2.96,2.96,-0.04,3.87,8.88,8.88,8.88
30.99,5.95,-2.93,5.95,-2.93,2.92,-0.04,3.88,8.88,8.88,8.88
31.30,5.98,-2.90,5.99,-2.90,2.89,-0.05,3.88,8.87,8.87,8.88
31.61,6.02,-2.86,6.02,-2.87,2.84,-0.05,3.88,8.86,8.86,8.88
31.93,6.06,-2.82,6.06,-2.82,2.80,-0.05,3.87,8.85,8.85,8.88
32.24,6.09,-2.79,6.09,-2.76,2.76,-0.05,3.85,8.85,8.85,8.88
32.57,6.13,-2.70,6.13,-2.71,2.73,-0.05,3.83,8.86,8.86,8.83
32.89,6.17,-2.64,6.17,-2.67,2.70,-0.05,3.80,8.87,8.87,8.80
33.22,6.20,-2.68,6.20,-2.65,2.69,-0.05,3.77,8.89,8.89,8.88
33.55,6.23,-2.65,6.23,-2.65,2.68,-0.05,3.73,8.91,8.91,8.88
33.89,6.26,-2.66,6.26,-2.68,2.68,-0.05,3.69,8.94,8.94,8.92
34.23,6.29,-2.70,6.29,-2.70,2.69,-0.05,3.64,8.97,8.97,8.99
34.57,6.31,-2.74,6.31,-2.73,2.70,-0.06,3.59,9.01,9.01,9.05
34.92,6.34,-2.74,6.34,-2.73,2.70,-0.06,3.53,9.04,9.04,9.08
35.27,6.38,-2.71,6.38,-2.71,2.69,-0.06,3.47,9.07,9.07,9.08
35.62,6.41,-2.67,6.41,-2.68,2.68,-0.06,3.41,9.08,9.08,9.08
35.97,6.44,-2.64,6.44,-2.65,2.65,-0.06,3.35,9.08,9.08,9.08
36.33,6.47,-2.61,6.47,-2.62,2.61,-0.06,3.28,9.07,9.07,9.08
36.70,6.49,-2.59,6.49,-2.57,2.57,-0.06,3.21,9.06,9.06,9.08
37.06,6.51,-2.51,6.51,-2.52,2.53,-0.06,3.14,9.04,9.04,9.03
37.43,6.53,-2.45,6.53,-2.47,2.49,-0.07,3.07,9.03,9.03,8.98
37.81,6.55,-2.43,6.55,-2.43,2.46,-0.07,3.00,9.02,9.02,8.98
38.19,6.57,-2.41,6.57,-2.40,2.43,-0.07,2.93,9.00,9.00,8.98
38.57,6.59,-2.39,6.59,-2.39,2.39,-0.07,2.86,8.99,8.99,8.98
38.95,6.62,-2.37,6.61,-2.37,2.34,-0.07,2.79,8.96,8.96,8.98
39.34,6.64,-2.34,6.64,-2.34,2.28,-0.07,2.72,8.92,8.92,8.98
39.74,6.66,-2.28,6.66,-2.27,2.20,-0.07,2.65,8.86,8.86,8.94
40.14,6.69,-2.18,6.69,-2.16,2.12,-0.08,2.59,8.80,8.80,8.87
40.54,6.71,-2.02,6.71,-2.04,2.03,-0.08,2.52,8.74,8.74,8.73
40.94,6.73,-1.91,6.73,-1.91,1.94,-0.08,2.45,8.68,8.68,8.64
41.35,6.75,-1.82,6.75,-1.80,1.87,-0.08,2.39,8.63,8.63,8.57
41.76,6.77,-1.73,6.77,-1.75,1.83,-0.08,2.32,8.60,8.60,8.50
42.18,6.79,-1.74,6.79,-1.75,1.81,-0.08,2.26,8.60,8.60,8.53
42.60,6.81,-1.79,6.81,-1.78,1.82,-0.09,2.20,8.62,8.62,8.60
43.03,6.82,-1.85,6.82,-1.84,1.84,-0.09,2.14,8.67,8.67,8.67
43.46,6.84,-1.90,6.84,-1.90,1.88,-0.09,2.08,8.72,8.72,8.74
43.90,6.86,-1.95,6.86,-1.95,1.91,-0.09,2.03,8.77,8.77,8.81
44.33,6.88,-1.99,6.88,-1.98,1.92,-0.09,1.97,8.80,8.80,8.87
44.78,6.90,-1.98,6.90,-1.97,1.90,-0.10,1.92,8.81,8.81,8.88
45.23,6.93,-1.92,6.93,-1.92,1.86,-0.10,1.87,8.79,8.79,8.85
45.68,6.95,-1.83,6.95,-1.83,1.81,-0.10,1.82,8.76,8.76,8.78
46.13,6.97,-1.73,6.97,-1.73,1.75,-0.10,1.77,8.73,8.73,8.71
46.60,6.99,-1.64,6.99,-1.64,1.70,-0.10,1.72,8.69,8.69,8.64
47.06,7.01,-1.57,7.01,-1.58,1.65,-0.11,1.68,8.66,8.66,8.58
47.53,7.03,-1.55,7.03,-1.56,1.62,-0.11,1.63,8.65,8.65,8.58
48.01,7.04,-1.58,7.04,-1.58,1.61,-0.11,1.59,8.65,8.65,8.62
48.49,7.06,-1.63,7.06,-1.63,1.61,-0.11,1.55,8.67,8.67,8.69
48.97,7.07,-1.69,7.07,-1.68,1.64,-0.11,1.51,8.71,8.71,8.76
49.46,7.08,-1.70,7.08,-1.69,1.67,-0.12,1.47,8.75,8.75,8.78
49.96,7.09,-1.69,7.09,-1.69,1.71,-0.12,1.43,8.80,8.80,8.78
50.46,7.10,-1.68,7.10,-1.70,1.73,-0.12,1.39,8.83,8.83,8.78
50.96,7.11,-1.73,7.11,-1.73,1.75,-0.13,1.36,8.86,8.86,8.84
51.47,7.12,-1.76,7.12,-1.75,1.74,-0.13,1.33,8.86,8.86,8.88
51.99,7.13,-1.75,7.13,-1.74,1.70,-0.13,1.29,8.83,8.83,8.88
52.51,7.14,-1.67,7.14,-1.68,1.63,-0.13,1.26,8.77,8.77,8.82
53.03,7.16,-1.59,7.16,-1.60,1.54,-0.14,1.23,8.69,8.69,8.75
53.56,7.17,-1.50,7.17,-1.49,1.43,-0.14,1.20,8.60,8.60,8.67
54.10,7.18,-1.35,7.18,-1.33,1.31,-0.14,1.17,8.49,8.49,8.53
54.64,7.19,-1.16,7.19,-1.16,1.19,-0.15,1.14,8.38,8.38,8.35
55.18,7.20,-0.97,7.20,-1.00,1.08,-0.15,1.11,8.28,8.28,8.17
55.74,7.21,-0.89,7.21,-0.89,1.00,-0.15,1.08,8.21,8.21,8.10
56.29,7.22,-0.86,7.22,-0.86,0.94,-0.15,1.05,8.16,8.16,8.08
56.86,7.23,-0.87,7.23,-0.88,0.91,-0.16,1.03,8.14,8.14,8.10
57.42,7.24,-0.93,7.24,-0.91,0.89,-0.16,1.00,8.13,8.13,8.17
58.00,7.25,-0.93,7.25,-0.93,0.88,-0.16,0.97,8.13,8.13,8.18
58.58,7.26,-0.92,7.26,-0.93,0.87,-0.17,0.94,8.13,8.13,8.18
59.16,7.26,-0.92,7.26,-0.90,0.85,-0.17,0.92,8.12,8.12,8.18
59.76,7.27,-0.85,7.27,-0.85,0.82,-0.18,0.89,8.09,8.09,8.12
60.35,7.28,-0.78,7.28,-0.78,0.77,-0.18,0.86,8.04,8.04,8.05
60.96,7.28,-0.70,7.28,-0.70,0.70,-0.18,0.84,7.98,7.98,7.99
61.57,7.29,-0.62,7.29,-0.62,0.64,-0.19,0.81,7.92,7.92,7.91
62.18,7.29,-0.55,7.29,-0.55,0.58,-0.19,0.78,7.87,7.87,7.84
62.80,7.30,-0.48,7.30,-0.50,0.53,-0.20,0.75,7.82,7.82,7.78
63.43,7.30,-0.48,7.30,-0.47,0.49,-0.20,0.73,7.79,7.79,7.78
64.07,7.31,-0.47,7.31,-0.46,0.47,-0.20,0.70,7.78,7.78,7.78
64.71,7.31,-0.47,7.31,-0.47,0.47,-0.21,0.67,7.78,7.78,7.78
65.35,7.31,-0.47,7.31,-0.49,0.49,-0.21,0.64,7.80,7.80,7.78
66.01,7.32,-0.51,7.32,-0.51,0.52,-0.22,0.61,7.84,7.83,7.83
66.67,7.32,-0.56,7.32,-0.54,0.56,-0.22,0.58,7.88,7.88,7.88
67.33,7.32,-0.56,7.32,-0.58,0.60,-0.23,0.55,7.92,7.92,7.88
68.01,7.32,-0.62,7.32,-0.64,0.64,-0.23,0.52,7.96,7.96,7.94
68.69,7.32,-0.69,7.32,-0.68,0.67,-0.24,0.49,7.99,7.99,8.01
69.37,7.32,-0.75,7.32,-0.71,0.69,-0.24,0.46,8.01,8.01,8.08
70.07,7.32,-0.69,7.32,-0.71,0.69,-0.25,0.43,8.01,8.01,8.01
70.77,7.32,-0.66,7.32,-0.69,0.66,-0.25,0.40,7.98,7.98,7.98
71.48,7.32,-0.66,7.32,-0.64,0.61,-0.26,0.36,7.93,7.93,7.98
72.19,7.32,-0.59,7.32,-0.58,0.54,-0.27,0.33,7.86,7.86,7.91
72.91,7.32,-0.48,7.32,-0.48,0.45,-0.27,0.30,7.76,7.76,7.80
73.64,7.32,-0.34,7.32,-0.34,0.35,-0.28,0.27,7.66,7.66,7.65
74.38,7.31,-0.21,7.31,-0.22,0.25,-0.28,0.23,7.56,7.56,7.52
75.12,7.31,-0.12,7.31,-0.12,0.16,-0.29,0.20,7.48,7.48,7.43
75.87,7.31,-0.05,7.31,-0.04,0.09,-0.30,0.17,7.40,7.40,7.36
76.63,7.31,0.02,7.31,0.00,0.04,-0.30,0.13,7.35,7.35,7.30
77.40,7.31,0.03,7.31,0.03,0.00,-0.31,0.10,7.31,7.31,7.28
78.17,7.31,0.03,7.31,0.03,-0.02,-0.32,0.06,7.29,7.29,7.28
78.95,7.30,0.02,7.30,0.02,-0.04,-0.33,0.03,7.27,7.27,7.28
79.74,7.30,0.02,7.30,0.02,-0.06,-0.33,-0.00,7.23,7.23,7.28
80.54,7.29,0.04,7.29,0.05,-0.10,-0.34,-0.04,7.19,7.19,7.25
81.35,7.29,0.10,7.29,0.09,-0.15,-0.35,-0.07,7.13,7.13,7.19
82.16,7.28,0.16,7.28,0.17,-0.21,-0.36,-0.11,7.07,7.07,7.12
82.98,7.27,0.26,7.27,0.27,-0.27,-0.36,-0.15,7.00,7.00,7.02
83.81,7.27,0.39,7.27,0.37,-0.32,-0.37,-0.18,6.94,6.94,6.88
84.65,7.26,0.45,7.26,0.44,-0.36,-0.38,-0.22,6.90,6.90,6.81
85.50,7.25,0.47,7.25,0.47,-0.39,-0.39,-0.25,6.86,6.86,6.78
86.35,7.25,0.46,7.25,0.44,-0.41,-0.40,-0.29,6.84,6.84,6.79
87.22,7.25,0.39,7.25,0.41,-0.42,-0.41,-0.33,6.83,6.83,6.86
88.09,7.24,0.36,7.24,0.36,-0.42,-0.42,-0.36,6.82,6.82,6.88
88.97,7.24,0.36,7.24,0.35,-0.42,-0.43,-0.40,6.82,6.82,6.88
89.86,7.23,0.35,7.23,0.39,-0.42,-0.44,-0.44,6.81,6.81,6.88
90.76,7.22,0.46,7.22,0.44,-0.43,-0.45,-0.48,6.78,6.78,6.76
91.66,7.21,0.53,7.21,0.49,-0.47,-0.46,-0.52,6.73,6.73,6.68
92.58,7.19,0.51,7.19,0.54,-0.53,-0.47,-0.56,6.67,6.67,6.68
93.51,7.18,0.56,7.18,0.56,-0.59,-0.48,-0.60,6.59,6.59,6.62
94.44,7.17,0.62,7.17,0.62,-0.65,-0.49,-0.63,6.52,6.52,6.55
95.39,7.16,0.68,7.16,0.71,-0.70,-0.50,-0.67,6.46,6.46,6.48
96.34,7.15,0.80,7.15,0.78,-0.75,-0.52,-0.71,6.40,6.40,6.35
97.30,7.13,0.85,7.13,0.83,-0.78,-0.53,-0.75,6.35,6.35,6.28
98.28,7.12,0.84,7.12,0.85,-0.81,-0.54,-0.80,6.31,6.31,6.28
99.26,7.11,0.83,7.11,0.83,-0.83,-0.55,-0.84,6.28,6.28,6.28
100.25,7.10,0.81,7.10,0.82,-0.85,-0.57,-0.88,6.25,6.25,6.28
101.25,7.08,0.81,7.08,0.83,-0.85,-0.58,-0.92,6.23,6.23,6.27
102.27,7.07,0.85,7.07,0.84,-0.86,-0.59,-0.96,6.21,6.21,6.22
103.29,7.05,0.87,7.05,0.86,-0.86,-0.61,-1.00,6.19,6.19,6.18
104.32,7.04,0.87,7.04,0.89,-0.87,-0.62,-1.04,6.17,6.17,6.16
105.37,7.02,0.91,7.02,0.90,-0.90,-0.64,-1.08,6.13,6.13,6.11
106.42,7.01,0.93,7.01,0.92,-0.93,-0.65,-1.12,6.08,6.08,6.08
107.48,6.99,0.94,6.99,0.95,-0.96,-0.67,-1.16,6.03,6.03,6.06
108.56,6.98,0.97,6.98,0.99,-1.00,-0.69,-1.20,5.97,5.97,6.00
109.64,6.96,1.04,6.96,1.03,-1.04,-0.70,-1.23,5.92,5.92,5.92
110.74,6.94,1.10,6.94,1.10,-1.09,-0.72,-1.27,5.86,5.86,5.84
111.85,6.92,1.14,6.92,1.16,-1.14,-0.74,-1.31,5.79,5.79,5.79
112.97,6.91,1.22,6.91,1.18,-1.19,-0.76,-1.34,5.72,5.72,5.68
114.10,6.89,1.21,6.89,1.22,-1.23,-0.77,-1.37,5.66,5.66,5.68
115.24,6.87,1.21,6.87,1.26,-1.26,-0.79,-1.41,5.62,5.62,5.66
116.39,6.85,1.31,6.85,1.29,-1.27,-0.81,-1.44,5.58,5.58,5.54
117.55,6.83,1.35,6.83,1.33,-1.29,-0.83,-1.47,5.55,5.55,5.48
118.73,6.82,1.33,6.81,1.34,-1.31,-0.85,-1.49,5.51,5.51,5.48
119.92,6.79,1.31,6.79,1.31,-1.33,-0.87,-1.52,5.47,5.47,5.48
121.12,6.77,1.29,6.77,1.28,-1.35,-0.90,-1.54,5.42,5.42,5.48
122.33,6.75,1.29,6.75,1.31,-1.37,-0.92,-1.56,5.38,5.38,5.46
123.55,6.73,1.33,6.73,1.37,-1.39,-0.94,-1.59,5.34,5.34,5.40
124.79,6.71,1.49,6.71,1.44,-1.40,-0.96,-1.60,5.31,5.31,5.22
126.03,6.69,1.51,6.69,1.49,-1.41,-0.99,-1.62,5.27,5.27,5.18
127.29,6.67,1.49,6.67,1.50,-1.43,-1.01,-1.63,5.24,5.24,5.18
128.57,6.65,1.47,6.65,1.46,-1.45,-1.04,-1.65,5.19,5.19,5.18
129.85,6.62,1.44,6.62,1.44,-1.48,-1.06,-1.65,5.14,5.14,5.18
131.15,6.60,1.43,6.60,1.44,-1.51,-1.09,-1.66,5.09,5.09,5.17
132.46,6.58,1.47,6.58,1.48,-1.54,-1.11,-1.67,5.03,5.03,5.11
133.79,6.55,1.55,6.55,1.55,-1.58,-1.14,-1.68,4.97,4.97,5.00
135.12,6.53,1.65,6.53,1.63,-1.62,-1.17,-1.68,4.91,4.91,4.87
136.48,6.50,1.69,6.50,1.72,-1.66,-1.20,-1.68,4.84,4.84,4.81
137.84,6.47,1.78,6.47,1.78,-1.71,-1.23,-1.68,4.76,4.76,4.70
139.22,6.45,1.85,6.45,1.79,-1.76,-1.26,-1.69,4.69,4.69,4.59
140.61,6.42,1.76,6.42,1.79,-1.79,-1.29,-1.68,4.62,4.63,4.66
142.02,6.39,1.76,6.39,1.78,-1.82,-1.32,-1.68,4.57,4.57,4.63
143.44,6.36,1.80,6.36,1.79,-1.85,-1.35,-1.68,4.51,4.51,4.56
144.87,6.33,1.84,6.33,1.84,-1.87,-1.38,-1.68,4.46,4.46,4.49
146.32,6.30,1.89,6.30,1.89,-1.88,-1.41,-1.68,4.42,4.42,4.41
147.78,6.27,1.93,6.27,1.93,-1.90,-1.45,-1.68,4.37,4.37,4.34
149.26,6.24,1.96,6.24,1.94,-1.92,-1.48,-1.68,4.32,4.32,4.28
150.75,6.21,1.93,6.21,1.95,-1.93,-1.51,-1.68,4.28,4.28,4.28
152.26,6.18,1.94,6.18,1.95,-1.93,-1.55,-1.68,4.24,4.24,4.24
153.78,6.14,1.96,6.14,1.94,-1.93,-1.58,-1.67,4.21,4.21,4.19
155.32,6.11,1.93,6.11,1.92,-1.93,-1.62,-1.68,4.18,4.18,4.18
156.88,6.08,1.90,6.08,1.91,-1.92,-1.65,-1.68,4.15,4.15,4.18
158.44,6.04,1.88,6.04,1.90,-1.93,-1.69,-1.68,4.12,4.12,4.16
160.03,6.01,1.93,6.01,1.91,-1.93,-1.73,-1.68,4.08,4.08,4.08
161.63,5.97,1.95,5.97,1.94,-1.95,-1.76,-1.69,4.03,4.03,4.03
163.24,5.94,1.97,5.94,1.98,-1.97,-1.80,-1.69,3.97,3.97,3.97
164.88,5.90,2.01,5.90,2.00,-2.00,-1.84,-1.70,3.90,3.90,3.89
166.53,5.86,2.03,5.86,2.03,-2.04,-1.88,-1.71,3.82,3.82,3.83
168.19,5.82,2.05,5.82,2.06,-2.08,-1.91,-1.72,3.74,3.74,3.77
169.87,5.78,2.09,5.78,2.09,-2.11,-1.95,-1.73,3.67,3.67,3.69
171.57,5.74,2.14,5.74,2.13,-2.12,-1.99,-1.74,3.61,3.61,3.60
173.29,5.70,2.16,5.70,2.16,-2.13,-2.02,-1.75,3.57,3.57,3.54
175.02,5.66,2.17,5.66,2.16,-2.11,-2.06,-1.77,3.54,3.54,3.48
176.77,5.61,2.13,5.61,2.14,-2.09,-2.10,-1.78,3.52,3.52,3.48
178.54,5.57,2.09,5.57,2.09,-2.06,-2.13,-1.80,3.51,3.51,3.48
180.32,5.53,2.04,5.53,2.01,-2.03,-2.17,-1.82,3.50,3.50,3.49
182.13,5.48,1.93,5.48,1.96,-2.01,-2.20,-1.84,3.48,3.48,3.55
183.95,5.44,1.91,5.44,1.93,-1.99,-2.23,-1.86,3.46,3.46,3.53
185.79,5.41,1.95,5.41,1.94,-1.98,-2.27,-1.89,3.43,3.43,3.45
187.65,5.37,1.98,5.38,1.98,-1.98,-2.30,-1.91,3.39,3.39,3.39
189.52,5.35,2.02,5.35,2.03,-2.01,-2.33,-1.94,3.34,3.35,3.33
191.42,5.33,2.07,5.33,2.07,-2.04,-2.36,-1.96,3.29,3.29,3.27
193.33,5.32,2.12,5.32,2.10,-2.09,-2.38,-1.99,3.23,3.23,3.20
195.27,5.31,2.13,5.31,2.13,-2.13,-2.41,-2.02,3.17,3.17,3.18
197.22,5.29,2.15,5.29,2.16,-2.18,-2.43,-2.05,3.12,3.12,3.14
199.19,5.28,2.20,5.28,2.20,-2.21,-2.45,-2.08,3.06,3.06,3.07
201.18,5.26,2.25,5.26,2.25,-2.24,-2.47,-2.11,3.01,3.01,3.01
203.19,5.23,2.29,5.23,2.28,-2.26,-2.49,-2.14,2.97,2.96,2.94
205.23,5.20,2.32,5.20,2.30,-2.28,-2.51,-2.18,2.92,2.92,2.88
207.28,5.16,2.28,5.16,2.30,-2.30,-2.52,-2.21,2.87,2.87,2.88
209.35,5.12,2.29,5.12,2.29,-2.30,-2.53,-2.24,2.83,2.83,2.84
211.44,5.08,2.30,5.08,2.28,-2.29,-2.54,-2.28,2.79,2.79,2.78
213.56,5.04,2.26,5.04,2.28,-2.28,-2.55,-2.31,2.76,2.76,2.78
215.69,5.00,2.27,5.00,2.27,-2.26,-2.56,-2.34,2.74,2.74,2.72
217.85,4.95,2.27,4.95,2.25,-2.24,-2.56,-2.37,2.71,2.71,2.68
220.03,4.91,2.23,4.91,2.23,-2.23,-2.56,-2.40,2.68,2.68,2.68
222.23,4.86,2.18,4.86,2.19,-2.21,-2.55,-2.43,2.65,2.65,2.68
224.45,4.82,2.15,4.82,2.17,-2.20,-2.55,-2.45,2.62,2.62,2.67
226.70,4.77,2.18,4.77,2.18,-2.19,-2.54,-2.48,2.59,2.59,2.59
228.96,4.73,2.21,4.73,2.19,-2.18,-2.54,-2.50,2.55,2.55,2.52
231.25,4.68,2.20,4.68,2.19,-2.18,-2.52,-2.52,2.50,2.50,2.48
233.57,4.63,2.15,4.63,2.17,-2.19,-2.51,-2.54,2.45,2.45,2.48
235.90,4.58,2.17,4.58,2.17,-2.19,-2.50,-2.55,2.39,2.39,2.42
238.26,4.53,2.20,4.53,2.19,-2.20,-2.48,-2.56,2.34,2.34,2.34
240.64,4.49,2.22,4.49,2.22,-2.20,-2.46,-2.57,2.29,2.29,2.26
243.05,4.44,2.24,4.44,2.22,-2.20,-2.44,-2.58,2.24,2.24,2.20
245.48,4.39,2.21,4.39,2.22,-2.20,-2.42,-2.57,2.20,2.20,2.18
247.93,4.34,2.19,4.34,2.20,-2.20,-2.39,-2.57,2.14,2.14,2.16
250.41,4.29,2.20,4.29,2.17,-2.20,-2.37,-2.56,2.09,2.09,2.10
252.92,4.24,2.16,4.25,2.18,-2.20,-2.34,-2.55,2.04,2.04,2.08
255.45,4.20,2.14,4.20,2.19,-2.20,-2.32,-2.54,1.99,1.99,2.05
258.00,4.15,2.27,4.15,2.20,-2.21,-2.29,-2.52,1.94,1.94,1.88
260.58,4.10,2.21,4.10,2.22,-2.21,-2.26,-2.50,1.89,1.89,1.88
263.19,4.04,2.19,4.04,2.22,-2.21,-2.23,-2.47,1.84,1.84,1.85
265.82,3.99,2.21,3.99,2.21,-2.20,-2.21,-2.44,1.79,1.79,1.79
268.48,3.94,2.23,3.94,2.22,-2.19,-2.18,-2.41,1.75,1.75,1.72
271.16,3.89,2.21,3.89,2.20,-2.18,-2.15,-2.38,1.72,1.72,1.68
273.87,3.84,2.16,3.84,2.16,-2.16,-2.12,-2.34,1.68,1.68,1.68
276.61,3.79,2.11,3.79,2.12,-2.15,-2.09,-2.30,1.64,1.64,1.68
279.38,3.74,2.09,3.74,2.10,-2.14,-2.06,-2.26,1.59,1.59,1.65
282.17,3.68,2.11,3.68,2.10,-2.13,-2.03,-2.21,1.56,1.56,1.58
284.99,3.63,2.12,3.63,2.13,-2.11,-2.01,-2.17,1.52,1.52,1.51
287.84,3.58,2.14,3.58,2.14,-2.10,-1.98,-2.12,1.48,1.48,1.43
290.72,3.52,2.14,3.52,2.12,-2.09,-1.95,-2.07,1.43,1.43,1.38
293.63,3.47,2.09,3.47,2.09,-2.08,-1.93,-2.02,1.38,1.38,1.38
296.57,3.42,2.04,3.42,2.05,-2.08,-1.90,-1.97,1.34,1.34,1.38
299.53,3.36,2.01,3.36,2.02,-2.06,-1.88,-1.91,1.30,1.30,1.35
302.53,3.31,2.02,3.31,2.02,-2.04,-1.86,-1.86,1.27,1.27,1.29
305.55,3.26,2.04,3.26,2.03,-2.01,-1.84,-1.81,1.24,1.24,1.22
308.61,3.20,2.02,3.20,2.01,-1.98,-1.82,-1.75,1.22,1.22,1.18
311.69,3.15,1.97,3.15,1.97,-1.94,-1.80,-1.70,1.21,1.21,1.18
314.81,3.09,1.91,3.09,1.91,-1.89,-1.78,-1.65,1.20,1.20,1.18
317.96,3.04,1.86,3.04,1.86,-1.84,-1.77,-1.60,1.20,1.20,1.18
321.14,2.98,1.80,2.98,1.80,-1.79,-1.75,-1.54,1.19,1.19,1.18
324.35,2.92,1.74,2.93,1.74,-1.76,-1.74,-1.49,1.17,1.17,1.18
327.59,2.87,1.69,2.87,1.69,-1.74,-1.73,-1.44,1.13,1.13,1.18
330.87,2.81,1.65,2.81,1.66,-1.73,-1.72,-1.39,1.08,1.08,1.16
334.18,2.76,1.66,2.76,1.67,-1.74,-1.70,-1.34,1.02,1.02,1.10
337.52,2.70,1.72,2.70,1.74,-1.74,-1.69,-1.29,0.96,0.96,0.98
340.90,2.65,1.80,2.65,1.81,-1.75,-1.67,-1.24,0.90,0.90,0.84
344.30,2.59,1.88,2.59,1.83,-1.75,-1.66,-1.20,0.85,0.85,0.71
347.75,2.53,1.80,2.53,1.80,-1.73,-1.64,-1.15,0.80,0.80,0.74
351.23,2.47,1.69,2.47,1.72,-1.71,-1.62,-1.10,0.77,0.77,0.78
354.74,2.41,1.63,2.41,1.63,-1.66,-1.60,-1.06,0.76,0.76,0.78
358.28,2.35,1.57,2.35,1.57,-1.59,-1.57,-1.02,0.76,0.76,0.78
361.87,2.29,1.51,2.29,1.52,-1.51,-1.54,-0.97,0.78,0.78,0.78
365.49,2.23,1.45,2.23,1.45,-1.44,-1.51,-0.93,0.80,0.80,0.78
369.14,2.17,1.39,2.17,1.36,-1.37,-1.47,-0.89,0.80,0.80,0.78
372.83,2.11,1.29,2.11,1.28,-1.33,-1.43,-0.85,0.78,0.78,0.82
376.56,2.05,1.18,2.05,1.24,-1.29,-1.39,-0.81,0.75,0.75,0.86
380.33,1.98,1.25,1.98,1.24,-1.27,-1.34,-0.77,0.71,0.71,0.74
384.13,1.92,1.28,1.92,1.25,-1.25,-1.30,-0.73,0.67,0.67,0.64
387.97,1.85,1.27,1.85,1.26,-1.22,-1.25,-0.69,0.63,0.63,0.58
391.85,1.79,1.21,1.79,1.24,-1.20,-1.20,-0.66,0.59,0.59,0.58
395.77,1.73,1.20,1.73,1.21,-1.18,-1.15,-0.62,0.55,0.55,0.53
399.73,1.67,1.19,1.67,1.17,-1.15,-1.10,-0.59,0.52,0.52,0.48
403.72,1.62,1.13,1.62,1.11,-1.12,-1.05,-0.55,0.50,0.50,0.48
407.76,1.57,1.02,1.57,1.05,-1.07,-1.00,-0.52,0.49,0.49,0.54
411.84,1.52,0.97,1.52,1.00,-1.03,-0.95,-0.48,0.49,0.50,0.55
415.96,1.48,1.00,1.48,0.97,-0.99,-0.91,-0.45,0.50,0.50,0.48
420.12,1.44,0.96,1.44,0.96,-0.95,-0.86,-0.42,0.49,0.49,0.48
424.32,1.40,0.92,1.40,0.92,-0.92,-0.81,-0.39,0.49,0.49,0.48
428.56,1.36,0.88,1.36,0.88,-0.89,-0.77,-0.36,0.48,0.48,0.48
432.85,1.32,0.84,1.32,0.85,-0.86,-0.73,-0.33,0.46,0.46,0.48
437.18,1.27,0.83,1.27,0.83,-0.83,-0.68,-0.30,0.44,0.44,0.44
441.55,1.21,0.83,1.21,0.81,-0.80,-0.64,-0.27,0.42,0.42,0.38
445.96,1.16,0.78,1.16,0.77,-0.76,-0.60,-0.24,0.40,0.40,0.38
450.42,1.10,0.72,1.10,0.73,-0.73,-0.56,-0.22,0.37,0.37,0.38
454.93,1.04,0.68,1.04,0.69,-0.70,-0.52,-0.19,0.34,0.34,0.37
459.48,0.98,0.69,0.98,0.66,-0.68,-0.49,-0.16,0.30,0.30,0.29
464.07,0.92,0.64,0.92,0.64,-0.66,-0.45,-0.14,0.26,0.26,0.28
468.71,0.86,0.60,0.86,0.62,-0.64,-0.41,-0.11,0.22,0.22,0.26
473.40,0.79,0.60,0.79,0.61,-0.61,-0.38,-0.09,0.18,0.18,0.19
478.13,0.73,0.61,0.73,0.60,-0.59,-0.34,-0.07,0.14,0.14,0.12
482.91,0.67,0.59,0.67,0.58,-0.55,-0.31,-0.04,0.12,0.12,0.08
487.74,0.61,0.53,0.61,0.53,-0.50,-0.27,-0.02,0.11,0.11,0.08
492.62,0.54,0.46,0.54,0.47,-0.44,-0.24,0.00,0.11,0.11,0.08
497.55,0.48,0.40,0.48,0.40,-0.37,-0.20,0.02,0.11,0.11,0.08
502.52,0.42,0.33,0.42,0.31,-0.31,-0.17,0.04,0.11,0.11,0.09
507.55,0.35,0.19,0.35,0.21,-0.25,-0.13,0.06,0.11,0.11,0.16
512.62,0.29,0.11,0.29,0.12,-0.19,-0.10,0.08,0.10,0.10,0.18
517.75,0.23,0.06,0.23,0.07,-0.14,-0.06,0.10,0.09,0.09,0.17
522.93,0.17,0.07,0.17,0.07,-0.08,-0.03,0.12,0.08,0.08,0.10
528.16,0.10,0.08,0.10,0.07,-0.03,0.01,0.14,0.08,0.08,0.03
533.44,0.04,0.06,0.04,0.05,0.02,0.04,0.16,0.07,0.07,-0.02
538.77,-0.02,-0.00,-0.02,-0.02,0.07,0.08,0.18,0.05,0.05,-0.02
544.16,-0.08,-0.12,-0.08,-0.11,0.13,0.11,0.19,0.04,0.04,0.04
549.60,-0.15,-0.23,-0.15,-0.21,0.18,0.15,0.21,0.03,0.03,0.08
