frequency,raw,error,smoothed,error_smoothed,equalization,parametric_eq,fixed_band_eq,equalized_raw,equalized_smoothed,target
20.00,6.56,1.83,6.56,1.82,-1.84,-1.38,-0.49,4.73,4.72,4.74
20.20,6.60,1.73,6.60,1.74,-1.75,-1.38,-0.51,4.85,4.85,4.86
20.40,6.64,1.65,6.64,1.66,-1.66,-1.39,-0.52,4.97,4.98,4.98
20.61,6.68,1.58,6.68,1.58,-1.58,-1.39,-0.54,5.10,5.10,5.10
20.81,6.72,1.52,6.72,1.52,-1.51,-1.40,-0.55,5.21,5.21,5.20
21.02,6.75,1.46,6.75,1.46,-1.43,-1.40,-0.57,5.32,5.32,5.29
21.23,6.78,1.40,6.77,1.40,-1.36,-1.41,-0.59,5.41,5.41,5.38
21.44,6.78,1.33,6.78,1.33,-1.30,-1.41,-0.60,5.48,5.48,5.45
21.66,6.77,1.25,6.78,1.25,-1.22,-1.41,-0.62,5.55,5.55,5.53
21.87,6.76,1.17,6.76,1.16,-1.15,-1.41,-0.64,5.61,5.61,5.60
22.09,6.74,1.08,6.74,1.09,-1.08,-1.41,-0.66,5.65,5.65,5.65
22.31,6.71,1.02,6.72,1.02,-1.04,-1.41,-0.68,5.68,5.68,5.69
22.54,6.69,0.98,6.69,0.98,-1.01,-1.40,-0.70,5.68,5.68,5.71
22.76,6.67,0.97,6.67,0.97,-1.02,-1.40,-0.72,5.65,5.65,5.71
22.99,6.66,1.01,6.66,1.01,-1.06,-1.40,-0.74,5.60,5.60,5.66
23.22,6.66,1.08,6.66,1.08,-1.13,-1.40,-0.76,5.53,5.53,5.58
23.45,6.66,1.18,6.66,1.19,-1.22,-1.39,-0.78,5.44,5.44,5.47
23.69,6.66,1.32,6.66,1.32,-1.32,-1.39,-0.80,5.34,5.34,5.35
23.92,6.67,1.44,6.67,1.44,-1.41,-1.38,-0.83,5.26,5.26,5.23
24.16,6.67,1.55,6.67,1.54,-1.47,-1.38,-0.85,5.20,5.20,5.12
24.40,6.67,1.60,6.67,1.59,-1.51,-1.38,-0.87,5.17,5.17,5.08
24.65,6.67,1.59,6.67,1.58,-1.50,-1.37,-0.90,5.17,5.17,5.09
24.89,6.67,1.53,6.67,1.52,-1.46,-1.37,-0.92,5.21,5.21,5.14
25.14,6.67,1.41,6.67,1.41,-1.39,-1.36,-0.94,5.28,5.28,5.25
25.39,6.66,1.29,6.67,1.29,-1.31,-1.36,-0.97,5.35,5.35,5.38
25.65,6.66,1.17,6.66,1.17,-1.23,-1.35,-0.99,5.43,5.43,5.49
25.91,6.66,1.08,6.66,1.09,-1.17,-1.35,-1.02,5.49,5.49,5.58
26.16,6.66,1.06,6.66,1.06,-1.13,-1.34,-1.04,5.53,5.53,5.61
26.43,6.67,1.07,6.67,1.07,-1.12,-1.34,-1.06,5.54,5.54,5.60
26.69,6.66,1.12,6.67,1.12,-1.14,-1.33,-1.09,5.52,5.53,5.55
26.96,6.66,1.20,6.66,1.19,-1.17,-1.33,-1.11,5.49,5.49,5.46
27.23,6.65,1.27,6.65,1.26,-1.22,-1.33,-1.13,5.43,5.43,5.38
27.50,6.62,1.32,6.62,1.32,-1.26,-1.32,-1.16,5.36,5.36,5.30
27.77,6.59,1.35,6.59,1.34,-1.30,-1.32,-1.18,5.29,5.29,5.24
28.05,6.54,1.36,6.54,1.35,-1.33,-1.32,-1.20,5.21,5.21,5.19
28.33,6.49,1.35,6.49,1.36,-1.36,-1.32,-1.22,5.13,5.13,5.14
28.62,6.45,1.36,6.45,1.36,-1.39,-1.31,-1.24,5.06,5.06,5.09
28.90,6.41,1.38,6.41,1.38,-1.42,-1.31,-1.26,4.99,4.99,5.02
29.19,6.38,1.42,6.38,1.42,-1.46,-1.31,-1.28,4.93,4.92,4.96
29.48,6.37,1.48,6.38,1.48,-1.51,-1.31,-1.29,4.86,4.86,4.90
29.78,6.39,1.55,6.39,1.55,-1.58,-1.31,-1.31,4.81,4.81,4.84
30.08,6.41,1.62,6.42,1.62,-1.64,-1.31,-1.32,4.77,4.77,4.79
30.38,6.45,1.70,6.44,1.70,-1.70,-1.31,-1.33,4.75,4.75,4.75
30.68,6.47,1.76,6.47,1.76,-1.73,-1.31,-1.35,4.74,4.74,4.71
30.99,6.47,1.79,6.47,1.79,-1.73,-1.31,-1.35,4.74,4.74,4.68
31.30,6.46,1.79,6.46,1.77,-1.69,-1.31,-1.36,4.77,4.77,4.67
31.61,6.43,1.71,6.43,1.70,-1.61,-1.31,-1.37,4.81,4.81,4.72
31.93,6.38,1.57,6.38,1.57,-1.51,-1.31,-1.37,4.87,4.87,4.81
32.24,6.33,1.41,6.34,1.41,-1.40,-1.31,-1.38,4.93,4.93,4.93
32.57,6.29,1.23,6.29,1.24,-1.29,-1.31,-1.38,4.99,5.00,5.06
32.89,6.25,1.11,6.25,1.11,-1.21,-1.32,-1.38,5.04,5.05,5.14
33.22,6.22,1.03,6.22,1.04,-1.15,-1.32,-1.38,5.07,5.07,5.19
33.55,6.19,1.03,6.19,1.04,-1.12,-1.32,-1.38,5.07,5.07,5.16
33.89,6.18,1.10,6.18,1.10,-1.13,-1.32,-1.37,5.05,5.05,5.08
34.23,6.17,1.19,6.17,1.19,-1.17,-1.33,-1.37,5.00,5.00,4.98
34.57,6.17,1.28,6.18,1.28,-1.23,-1.33,-1.37,4.94,4.94,4.89
34.92,6.19,1.35,6.20,1.35,-1.30,-1.33,-1.36,4.89,4.89,4.84
35.27,6.22,1.40,6.22,1.40,-1.36,-1.34,-1.36,4.86,4.86,4.82
35.62,6.24,1.43,6.24,1.43,-1.41,-1.34,-1.35,4.83,4.83,4.81
35.97,6.25,1.45,6.25,1.44,-1.44,-1.34,-1.34,4.81,4.81,4.81
36.33,6.24,1.44,6.23,1.45,-1.45,-1.35,-1.34,4.79,4.79,4.79
36.70,6.20,1.44,6.20,1.43,-1.43,-1.35,-1.33,4.77,4.77,4.77
37.06,6.16,1.41,6.17,1.41,-1.40,-1.36,-1.32,4.76,4.76,4.75
37.43,6.13,1.37,6.13,1.38,-1.36,-1.36,-1.31,4.77,4.77,4.75
37.81,6.11,1.34,6.11,1.33,-1.32,-1.37,-1.31,4.80,4.80,4.77
38.19,6.10,1.28,6.10,1.28,-1.27,-1.37,-1.30,4.83,4.83,4.82
38.57,6.09,1.23,6.09,1.22,-1.23,-1.37,-1.29,4.87,4.86,4.86
38.95,6.08,1.17,6.07,1.17,-1.20,-1.38,-1.29,4.88,4.88,4.91
39.34,6.06,1.13,6.05,1.14,-1.18,-1.38,-1.28,4.87,4.87,4.92
39.74,6.03,1.14,6.03,1.14,-1.18,-1.39,-1.28,4.85,4.85,4.90
40.14,6.01,1.17,6.01,1.17,-1.20,-1.39,-1.28,4.82,4.82,4.85
40.54,6.00,1.23,6.01,1.23,-1.23,-1.40,-1.27,4.78,4.78,4.77
40.94,6.01,1.30,6.01,1.29,-1.27,-1.40,-1.27,4.74,4.74,4.71
41.35,6.01,1.35,6.01,1.34,-1.32,-1.41,-1.27,4.69,4.69,4.66
41.76,6.01,1.39,6.01,1.39,-1.38,-1.41,-1.27,4.63,4.63,4.63
42.18,6.00,1.42,6.00,1.42,-1.43,-1.42,-1.27,4.57,4.57,4.58
42.60,5.99,1.46,5.99,1.46,-1.47,-1.42,-1.27,4.52,4.52,4.53
43.03,5.96,1.50,5.96,1.50,-1.49,-1.43,-1.27,4.47,4.47,4.46
43.46,5.93,1.54,5.93,1.53,-1.50,-1.43,-1.28,4.43,4.43,4.39
43.90,5.90,1.54,5.90,1.54,-1.50,-1.43,-1.28,4.40,4.40,4.35
44.33,5.86,1.52,5.86,1.52,-1.49,-1.44,-1.29,4.36,4.36,4.34
44.78,5.81,1.48,5.81,1.48,-1.49,-1.44,-1.29,4.32,4.32,4.34
45.23,5.77,1.45,5.77,1.45,-1.49,-1.45,-1.30,4.28,4.28,4.32
45.68,5.74,1.44,5.74,1.44,-1.49,-1.45,-1.31,4.24,4.24,4.30
46.13,5.71,1.46,5.71,1.47,-1.51,-1.45,-1.32,4.20,4.20,4.25
46.60,5.70,1.51,5.70,1.51,-1.53,-1.46,-1.33,4.17,4.17,4.19
47.06,5.69,1.56,5.69,1.56,-1.56,-1.46,-1.34,4.14,4.14,4.14
47.53,5.69,1.61,5.69,1.60,-1.59,-1.46,-1.35,4.11,4.11,4.09
48.01,5.69,1.64,5.69,1.64,-1.61,-1.46,-1.36,4.08,4.08,4.05
48.49,5.67,1.66,5.67,1.66,-1.62,-1.47,-1.38,4.05,4.05,4.01
48.97,5.64,1.65,5.64,1.65,-1.62,-1.47,-1.39,4.02,4.02,3.99
49.46,5.60,1.62,5.60,1.62,-1.60,-1.47,-1.41,4.00,4.00,3.98
49.96,5.55,1.57,5.55,1.58,-1.57,-1.47,-1.42,3.98,3.98,3.97
50.46,5.50,1.53,5.50,1.53,-1.53,-1.48,-1.44,3.97,3.97,3.97
50.96,5.45,1.48,5.46,1.48,-1.49,-1.48,-1.45,3.97,3.97,3.98
51.47,5.42,1.43,5.42,1.43,-1.46,-1.48,-1.47,3.96,3.96,3.99
51.99,5.39,1.40,5.39,1.40,-1.43,-1.48,-1.49,3.96,3.96,3.99
52.51,5.36,1.39,5.36,1.39,-1.42,-1.48,-1.51,3.94,3.94,3.98
53.03,5.33,1.41,5.33,1.41,-1.42,-1.48,-1.52,3.91,3.91,3.93
53.56,5.30,1.43,5.30,1.43,-1.43,-1.48,-1.54,3.87,3.87,3.87
54.10,5.26,1.47,5.26,1.46,-1.44,-1.48,-1.56,3.82,3.82,3.80
54.64,5.23,1.48,5.23,1.48,-1.46,-1.48,-1.58,3.77,3.77,3.74
55.18,5.19,1.49,5.19,1.49,-1.47,-1.48,-1.59,3.72,3.72,3.70
55.74,5.16,1.49,5.16,1.49,-1.48,-1.48,-1.61,3.68,3.68,3.67
56.29,5.14,1.48,5.14,1.48,-1.49,-1.47,-1.62,3.65,3.65,3.65
56.86,5.11,1.48,5.11,1.48,-1.49,-1.47,-1.64,3.62,3.62,3.63
57.42,5.08,1.47,5.08,1.47,-1.49,-1.47,-1.65,3.59,3.59,3.61
58.00,5.05,1.48,5.05,1.48,-1.48,-1.47,-1.66,3.57,3.57,3.58
58.58,5.02,1.48,5.02,1.48,-1.47,-1.46,-1.67,3.55,3.55,3.54
59.16,4.99,1.49,4.99,1.48,-1.46,-1.46,-1.68,3.53,3.53,3.50
59.76,4.96,1.47,4.96,1.47,-1.45,-1.46,-1.69,3.51,3.51,3.49
60.35,4.93,1.44,4.93,1.44,-1.44,-1.46,-1.69,3.48,3.48,3.48
60.96,4.90,1.42,4.90,1.42,-1.44,-1.45,-1.70,3.46,3.46,3.48
61.57,4.87,1.41,4.86,1.41,-1.43,-1.45,-1.70,3.43,3.43,3.46
62.18,4.83,1.42,4.83,1.42,-1.43,-1.44,-1.70,3.40,3.40,3.41
62.80,4.79,1.43,4.79,1.43,-1.43,-1.44,-1.70,3.36,3.36,3.36
63.43,4.76,1.44,4.76,1.44,-1.43,-1.43,-1.69,3.32,3.32,3.31
64.07,4.72,1.45,4.72,1.45,-1.43,-1.43,-1.69,3.28,3.28,3.27
64.71,4.68,1.45,4.68,1.45,-1.43,-1.42,-1.68,3.24,3.24,3.23
65.35,4.64,1.45,4.64,1.45,-1.43,-1.42,-1.67,3.20,3.20,3.19
66.01,4.60,1.44,4.60,1.44,-1.43,-1.41,-1.66,3.17,3.17,3.16
66.67,4.57,1.43,4.57,1.42,-1.43,-1.40,-1.65,3.13,3.13,3.14
67.33,4.53,1.41,4.53,1.41,-1.43,-1.40,-1.63,3.10,3.10,3.12
68.01,4.50,1.41,4.50,1.41,-1.43,-1.39,-1.62,3.07,3.07,3.10
68.69,4.47,1.42,4.47,1.42,-1.43,-1.38,-1.60,3.04,3.04,3.05
69.37,4.44,1.44,4.44,1.44,-1.43,-1.38,-1.58,3.01,3.01,3.01
70.07,4.41,1.45,4.41,1.44,-1.42,-1.37,-1.56,2.99,2.99,2.96
70.77,4.38,1.44,4.38,1.44,-1.42,-1.36,-1.54,2.96,2.96,2.94
71.48,4.35,1.42,4.35,1.42,-1.41,-1.35,-1.52,2.94,2.94,2.93
72.19,4.31,1.40,4.31,1.40,-1.40,-1.35,-1.50,2.91,2.91,2.92
72.91,4.28,1.38,4.28,1.38,-1.39,-1.34,-1.48,2.89,2.89,2.90
73.64,4.24,1.36,4.24,1.36,-1.37,-1.33,-1.46,2.87,2.87,2.88
74.38,4.20,1.35,4.20,1.35,-1.36,-1.32,-1.43,2.84,2.84,2.85
75.12,4.16,1.34,4.16,1.34,-1.34,-1.31,-1.41,2.82,2.82,2.82
75.87,4.12,1.33,4.12,1.33,-1.33,-1.31,-1.39,2.79,2.79,2.79
76.63,4.08,1.32,4.08,1.32,-1.32,-1.30,-1.37,2.75,2.75,2.76
77.40,4.04,1.31,4.04,1.32,-1.32,-1.29,-1.35,2.72,2.72,2.73
78.17,4.00,1.31,4.00,1.31,-1.31,-1.28,-1.33,2.69,2.69,2.69
78.95,3.96,1.31,3.96,1.31,-1.30,-1.27,-1.30,2.66,2.66,2.65
79.74,3.92,1.31,3.92,1.30,-1.30,-1.26,-1.28,2.62,2.62,2.62
80.54,3.88,1.29,3.88,1.29,-1.29,-1.25,-1.26,2.59,2.59,2.59
81.35,3.85,1.28,3.85,1.28,-1.28,-1.24,-1.24,2.56,2.56,2.57
82.16,3.81,1.27,3.81,1.27,-1.27,-1.23,-1.23,2.54,2.54,2.54
82.98,3.78,1.26,3.78,1.26,-1.26,-1.22,-1.21,2.52,2.52,2.51
83.81,3.74,1.26,3.74,1.25,-1.24,-1.21,-1.19,2.50,2.50,2.48
84.65,3.70,1.24,3.70,1.24,-1.23,-1.20,-1.18,2.48,2.48,2.47
85.50,3.67,1.21,3.67,1.22,-1.22,-1.20,-1.16,2.45,2.45,2.45
86.35,3.63,1.20,3.63,1.20,-1.21,-1.19,-1.15,2.42,2.42,2.43
87.22,3.59,1.19,3.59,1.19,-1.21,-1.18,-1.13,2.39,2.39,2.40
88.09,3.55,1.18,3.55,1.18,-1.21,-1.17,-1.12,2.35,2.35,2.37
88.97,3.52,1.19,3.52,1.19,-1.21,-1.16,-1.11,2.31,2.31,2.33
89.86,3.48,1.20,3.47,1.21,-1.20,-1.15,-1.10,2.27,2.27,2.27
90.76,3.43,1.23,3.43,1.22,-1.20,-1.14,-1.08,2.23,2.23,2.20
91.66,3.39,1.23,3.39,1.22,-1.19,-1.13,-1.08,2.20,2.20,2.16
92.58,3.35,1.21,3.35,1.21,-1.18,-1.12,-1.07,2.17,2.17,2.14
93.51,3.31,1.17,3.31,1.17,-1.16,-1.11,-1.06,2.14,2.14,2.14
94.44,3.27,1.13,3.27,1.13,-1.15,-1.10,-1.05,2.12,2.12,2.14
95.39,3.23,1.10,3.23,1.10,-1.12,-1.09,-1.05,2.11,2.11,2.13
96.34,3.19,1.08,3.20,1.08,-1.10,-1.08,-1.04,2.09,2.09,2.11
97.30,3.16,1.07,3.16,1.07,-1.08,-1.07,-1.04,2.08,2.08,2.09
98.28,3.12,1.07,3.12,1.07,-1.07,-1.06,-1.03,2.06,2.06,2.06
99.26,3.09,1.06,3.09,1.06,-1.06,-1.05,-1.03,2.03,2.03,2.02
100.25,3.05,1.06,3.05,1.06,-1.05,-1.05,-1.02,2.00,2.00,1.99
101.25,3.01,1.05,3.01,1.05,-1.04,-1.04,-1.02,1.96,1.96,1.96
102.27,2.97,1.04,2.97,1.04,-1.03,-1.03,-1.02,1.93,1.93,1.93
103.29,2.92,1.03,2.92,1.03,-1.02,-1.02,-1.02,1.90,1.90,1.90
104.32,2.88,1.01,2.88,1.01,-1.01,-1.01,-1.02,1.87,1.87,1.87
105.37,2.84,1.00,2.84,1.00,-1.00,-1.00,-1.02,1.84,1.84,1.84
106.42,2.80,0.98,2.80,0.98,-0.98,-0.99,-1.02,1.81,1.81,1.82
107.48,2.76,0.97,2.76,0.97,-0.97,-0.98,-1.02,1.79,1.79,1.79
108.56,2.72,0.96,2.72,0.96,-0.96,-0.98,-1.02,1.76,1.76,1.76
109.64,2.69,0.95,2.69,0.95,-0.95,-0.97,-1.02,1.74,1.74,1.74
110.74,2.65,0.93,2.65,0.93,-0.93,-0.96,-1.02,1.72,1.72,1.72
111.85,2.62,0.92,2.62,0.92,-0.92,-0.95,-1.02,1.69,1.69,1.69
112.97,2.58,0.91,2.58,0.91,-0.91,-0.94,-1.02,1.66,1.66,1.66
114.10,2.53,0.91,2.53,0.91,-0.91,-0.94,-1.02,1.63,1.63,1.63
115.24,2.48,0.90,2.48,0.90,-0.90,-0.93,-1.01,1.59,1.59,1.58
116.39,2.43,0.89,2.43,0.89,-0.89,-0.92,-1.01,1.54,1.54,1.54
117.55,2.37,0.88,2.37,0.88,-0.88,-0.91,-1.01,1.49,1.49,1.49
118.73,2.32,0.87,2.32,0.87,-0.88,-0.91,-1.01,1.44,1.44,1.44
119.92,2.27,0.86,2.27,0.86,-0.87,-0.90,-1.01,1.40,1.40,1.41
121.12,2.23,0.86,2.23,0.86,-0.87,-0.89,-1.00,1.36,1.36,1.38
122.33,2.21,0.86,2.21,0.86,-0.87,-0.89,-1.00,1.34,1.34,1.34
123.55,2.18,0.87,2.18,0.87,-0.86,-0.88,-0.99,1.32,1.32,1.31
124.79,2.16,0.88,2.16,0.88,-0.86,-0.87,-0.99,1.30,1.30,1.28
126.03,2.13,0.87,2.13,0.87,-0.86,-0.87,-0.98,1.27,1.27,1.26
127.29,2.10,0.86,2.10,0.86,-0.86,-0.86,-0.97,1.24,1.24,1.24
128.57,2.06,0.85,2.06,0.85,-0.85,-0.85,-0.96,1.21,1.21,1.22
129.85,2.02,0.84,2.02,0.84,-0.85,-0.85,-0.96,1.17,1.17,1.18
131.15,1.98,0.84,1.98,0.84,-0.85,-0.84,-0.95,1.13,1.13,1.14
132.46,1.94,0.84,1.94,0.84,-0.85,-0.84,-0.94,1.09,1.09,1.09
133.79,1.90,0.85,1.90,0.85,-0.84,-0.83,-0.93,1.05,1.05,1.05
135.12,1.86,0.85,1.86,0.85,-0.84,-0.83,-0.91,1.01,1.01,1.01
136.48,1.82,0.85,1.82,0.85,-0.84,-0.82,-0.90,0.98,0.98,0.97
137.84,1.78,0.84,1.78,0.84,-0.83,-0.81,-0.89,0.95,0.95,0.94
139.22,1.75,0.83,1.75,0.83,-0.83,-0.81,-0.88,0.92,0.92,0.92
140.61,1.71,0.82,1.71,0.82,-0.82,-0.80,-0.86,0.90,0.90,0.90
142.02,1.68,0.80,1.68,0.80,-0.80,-0.80,-0.85,0.88,0.88,0.88
143.44,1.65,0.79,1.65,0.79,-0.79,-0.79,-0.84,0.86,0.86,0.86
144.87,1.62,0.77,1.62,0.77,-0.78,-0.79,-0.82,0.84,0.84,0.84
146.32,1.58,0.76,1.58,0.76,-0.76,-0.78,-0.81,0.82,0.82,0.82
147.78,1.55,0.75,1.55,0.75,-0.75,-0.78,-0.79,0.80,0.80,0.80
149.26,1.52,0.74,1.52,0.74,-0.74,-0.78,-0.78,0.79,0.79,0.78
150.75,1.50,0.73,1.50,0.73,-0.72,-0.77,-0.77,0.77,0.77,0.77
152.26,1.47,0.71,1.47,0.71,-0.71,-0.77,-0.75,0.76,0.76,0.76
153.78,1.44,0.69,1.44,0.69,-0.69,-0.76,-0.74,0.75,0.75,0.75
155.32,1.42,0.67,1.42,0.67,-0.67,-0.76,-0.72,0.75,0.75,0.75
156.88,1.40,0.65,1.40,0.65,-0.65,-0.75,-0.71,0.74,0.74,0.74
158.44,1.37,0.63,1.38,0.63,-0.63,-0.75,-0.70,0.74,0.74,0.74
160.03,1.35,0.61,1.35,0.61,-0.61,-0.75,-0.68,0.74,0.74,0.74
161.63,1.33,0.59,1.33,0.59,-0.59,-0.74,-0.67,0.74,0.74,0.74
163.24,1.31,0.57,1.31,0.57,-0.56,-0.74,-0.66,0.74,0.74,0.74
164.88,1.28,0.55,1.28,0.55,-0.54,-0.74,-0.65,0.74,0.74,0.73
166.53,1.25,0.53,1.25,0.53,-0.52,-0.73,-0.63,0.73,0.73,0.73
168.19,1.22,0.51,1.22,0.51,-0.51,-0.73,-0.62,0.71,0.71,0.71
169.87,1.20,0.50,1.20,0.50,-0.51,-0.72,-0.61,0.68,0.68,0.70
171.57,1.17,0.50,1.17,0.50,-0.52,-0.72,-0.60,0.65,0.65,0.67
173.29,1.14,0.52,1.14,0.52,-0.54,-0.72,-0.59,0.60,0.60,0.62
175.02,1.11,0.55,1.11,0.55,-0.57,-0.71,-0.58,0.54,0.54,0.55
176.77,1.08,0.59,1.08,0.59,-0.60,-0.71,-0.57,0.48,0.48,0.48
178.54,1.04,0.64,1.04,0.64,-0.64,-0.71,-0.56,0.41,0.41,0.40
180.32,1.01,0.69,1.01,0.68,-0.67,-0.70,-0.56,0.34,0.34,0.33
182.13,0.98,0.72,0.98,0.72,-0.70,-0.70,-0.55,0.28,0.28,0.26
183.95,0.95,0.74,0.95,0.74,-0.73,-0.70,-0.54,0.22,0.22,0.21
185.79,0.92,0.76,0.92,0.76,-0.75,-0.69,-0.53,0.17,0.17,0.16
187.65,0.89,0.76,0.89,0.76,-0.76,-0.69,-0.53,0.13,0.13,0.13
189.52,0.85,0.76,0.85,0.76,-0.76,-0.69,-0.52,0.09,0.09,0.10
191.42,0.82,0.75,0.82,0.75,-0.76,-0.68,-0.51,0.06,0.06,0.07
193.33,0.79,0.75,0.79,0.75,-0.76,-0.68,-0.51,0.03,0.03,0.04
195.27,0.76,0.75,0.76,0.75,-0.75,-0.67,-0.50,0.01,0.01,0.01
197.22,0.73,0.75,0.73,0.75,-0.74,-0.67,-0.50,-0.01,-0.01,-0.01
199.19,0.70,0.74,0.70,0.74,-0.73,-0.67,-0.49,-0.03,-0.03,-0.04
201.18,0.67,0.73,0.67,0.73,-0.72,-0.66,-0.49,-0.05,-0.05,-0.05
203.19,0.65,0.72,0.65,0.72,-0.71,-0.66,-0.49,-0.07,-0.07,-0.07
205.23,0.62,0.70,0.62,0.70,-0.70,-0.65,-0.48,-0.08,-0.08,-0.08
207.28,0.59,0.69,0.59,0.69,-0.69,-0.65,-0.48,-0.10,-0.10,-0.10
209.35,0.56,0.67,0.56,0.67,-0.68,-0.64,-0.48,-0.12,-0.12,-0.11
211.44,0.53,0.66,0.53,0.66,-0.67,-0.64,-0.47,-0.13,-0.13,-0.13
213.56,0.51,0.66,0.51,0.66,-0.66,-0.63,-0.47,-0.15,-0.15,-0.15
215.69,0.48,0.65,0.48,0.65,-0.65,-0.63,-0.47,-0.18,-0.18,-0.18
217.85,0.45,0.65,0.45,0.65,-0.65,-0.62,-0.47,-0.20,-0.20,-0.20
220.03,0.42,0.65,0.42,0.65,-0.64,-0.62,-0.46,-0.23,-0.23,-0.23
222.23,0.39,0.65,0.39,0.65,-0.64,-0.61,-0.46,-0.25,-0.25,-0.26
224.45,0.36,0.64,0.36,0.64,-0.64,-0.60,-0.46,-0.28,-0.28,-0.28
226.70,0.33,0.64,0.33,0.64,-0.64,-0.60,-0.46,-0.31,-0.31,-0.31
228.96,0.30,0.63,0.30,0.63,-0.64,-0.59,-0.46,-0.34,-0.34,-0.33
231.25,0.27,0.63,0.27,0.63,-0.64,-0.58,-0.46,-0.37,-0.37,-0.36
233.57,0.24,0.63,0.24,0.63,-0.63,-0.57,-0.45,-0.39,-0.39,-0.39
235.90,0.21,0.63,0.21,0.63,-0.63,-0.57,-0.45,-0.42,-0.42,-0.42
238.26,0.19,0.63,0.19,0.63,-0.63,-0.56,-0.45,-0.44,-0.44,-0.45
240.64,0.16,0.63,0.16,0.63,-0.62,-0.55,-0.45,-0.46,-0.46,-0.47
243.05,0.13,0.62,0.13,0.62,-0.61,-0.54,-0.45,-0.48,-0.48,-0.49
245.48,0.11,0.60,0.11,0.60,-0.60,-0.53,-0.45,-0.49,-0.49,-0.50
247.93,0.08,0.58,0.08,0.58,-0.58,-0.52,-0.45,-0.50,-0.50,-0.50
250.41,0.05,0.56,0.05,0.56,-0.56,-0.50,-0.45,-0.51,-0.51,-0.51
252.92,0.03,0.54,0.02,0.54,-0.54,-0.49,-0.44,-0.52,-0.52,-0.51
255.45,-0.00,0.52,-0.00,0.52,-0.52,-0.48,-0.44,-0.52,-0.52,-0.52
258.00,-0.03,0.50,-0.03,0.50,-0.50,-0.47,-0.44,-0.53,-0.53,-0.53
260.58,-0.05,0.48,-0.05,0.48,-0.47,-0.45,-0.44,-0.53,-0.53,-0.53
263.19,-0.08,0.46,-0.08,0.45,-0.45,-0.44,-0.44,-0.53,-0.53,-0.53
265.82,-0.10,0.43,-0.10,0.43,-0.42,-0.42,-0.44,-0.53,-0.53,-0.53
268.48,-0.13,0.40,-0.13,0.40,-0.40,-0.41,-0.44,-0.53,-0.53,-0.53
271.16,-0.16,0.37,-0.16,0.37,-0.37,-0.39,-0.43,-0.53,-0.53,-0.53
273.87,-0.18,0.34,-0.18,0.34,-0.35,-0.37,-0.43,-0.53,-0.53,-0.53
276.61,-0.21,0.32,-0.21,0.32,-0.33,-0.35,-0.43,-0.53,-0.53,-0.53
279.38,-0.23,0.30,-0.23,0.30,-0.31,-0.34,-0.43,-0.54,-0.54,-0.54
282.17,-0.26,0.29,-0.26,0.29,-0.29,-0.32,-0.43,-0.55,-0.55,-0.55
284.99,-0.29,0.28,-0.29,0.28,-0.28,-0.30,-0.43,-0.57,-0.57,-0.57
287.84,-0.31,0.27,-0.31,0.27,-0.27,-0.28,-0.43,-0.59,-0.59,-0.59
290.72,-0.34,0.27,-0.34,0.27,-0.27,-0.26,-0.43,-0.61,-0.61,-0.61
293.63,-0.37,0.26,-0.37,0.26,-0.26,-0.24,-0.43,-0.63,-0.63,-0.63
296.57,-0.40,0.26,-0.39,0.26,-0.26,-0.22,-0.42,-0.66,-0.66,-0.65
299.53,-0.42,0.26,-0.42,0.26,-0.26,-0.21,-0.42,-0.68,-0.68,-0.68
302.53,-0.45,0.25,-0.45,0.26,-0.26,-0.19,-0.42,-0.71,-0.71,-0.71
305.55,-0.48,0.25,-0.48,0.25,-0.25,-0.17,-0.42,-0.73,-0.73,-0.73
308.61,-0.51,0.25,-0.51,0.25,-0.24,-0.16,-0.43,-0.75,-0.75,-0.76
311.69,-0.54,0.23,-0.54,0.23,-0.22,-0.15,-0.43,-0.76,-0.76,-0.77
314.81,-0.57,0.21,-0.57,0.21,-0.20,-0.13,-0.43,-0.77,-0.77,-0.78
317.96,-0.60,0.18,-0.60,0.18,-0.18,-0.13,-0.43,-0.77,-0.77,-0.78
321.14,-0.62,0.15,-0.62,0.15,-0.15,-0.12,-0.43,-0.77,-0.77,-0.78
324.35,-0.65,0.12,-0.65,0.12,-0.12,-0.11,-0.43,-0.77,-0.77,-0.77
327.59,-0.66,0.10,-0.66,0.10,-0.10,-0.11,-0.43,-0.76,-0.77,-0.76
330.87,-0.68,0.08,-0.68,0.08,-0.09,-0.11,-0.43,-0.76,-0.76,-0.75
334.18,-0.68,0.07,-0.68,0.07,-0.08,-0.12,-0.44,-0.76,-0.76,-0.75
337.52,-0.67,0.07,-0.67,0.07,-0.09,-0.12,-0.44,-0.76,-0.76,-0.75
340.90,-0.66,0.09,-0.66,0.09,-0.11,-0.13,-0.44,-0.77,-0.77,-0.75
344.30,-0.64,0.12,-0.64,0.13,-0.13,-0.14,-0.45,-0.77,-0.77,-0.76
347.75,-0.61,0.17,-0.61,0.17,-0.17,-0.15,-0.45,-0.78,-0.78,-0.78
351.23,-0.59,0.22,-0.59,0.22,-0.21,-0.17,-0.46,-0.80,-0.80,-0.81
354.74,-0.57,0.26,-0.57,0.26,-0.25,-0.19,-0.46,-0.82,-0.83,-0.83
358.28,-0.56,0.30,-0.56,0.30,-0.29,-0.20,-0.46,-0.86,-0.86,-0.87
361.87,-0.56,0.34,-0.56,0.34,-0.33,-0.22,-0.47,-0.89,-0.89,-0.90
365.49,-0.57,0.37,-0.57,0.37,-0.36,-0.24,-0.48,-0.93,-0.93,-0.93
369.14,-0.58,0.39,-0.58,0.39,-0.38,-0.26,-0.48,-0.96,-0.96,-0.97
372.83,-0.60,0.40,-0.60,0.40,-0.39,-0.28,-0.49,-0.99,-0.99,-1.00
376.56,-0.62,0.40,-0.62,0.40,-0.40,-0.30,-0.49,-1.02,-1.02,-1.02
380.33,-0.64,0.40,-0.64,0.40,-0.40,-0.32,-0.50,-1.05,-1.05,-1.05
384.13,-0.67,0.40,-0.67,0.40,-0.40,-0.34,-0.51,-1.07,-1.07,-1.07
387.97,-0.69,0.40,-0.69,0.40,-0.40,-0.36,-0.51,-1.09,-1.09,-1.09
391.85,-0.72,0.39,-0.72,0.39,-0.40,-0.38,-0.52,-1.12,-1.12,-1.11
395.77,-0.74,0.39,-0.74,0.39,-0.40,-0.40,-0.53,-1.14,-1.14,-1.13
399.73,-0.76,0.40,-0.76,0.40,-0.40,-0.42,-0.54,-1.16,-1.16,-1.16
403.72,-0.79,0.40,-0.79,0.40,-0.40,-0.44,-0.55,-1.18,-1.18,-1.19
407.76,-0.81,0.40,-0.81,0.40,-0.40,-0.45,-0.55,-1.21,-1.21,-1.21
411.84,-0.83,0.40,-0.83,0.40,-0.40,-0.47,-0.56,-1.24,-1.24,-1.24
415.96,-0.85,0.41,-0.85,0.41,-0.41,-0.49,-0.57,-1.26,-1.26,-1.26
420.12,-0.87,0.42,-0.87,0.42,-0.42,-0.50,-0.58,-1.29,-1.29,-1.29
424.32,-0.89,0.43,-0.89,0.43,-0.43,-0.51,-0.59,-1.32,-1.32,-1.32
428.56,-0.91,0.44,-0.91,0.44,-0.44,-0.53,-0.60,-1.35,-1.35,-1.35
432.85,-0.93,0.45,-0.93,0.45,-0.45,-0.54,-0.60,-1.38,-1.38,-1.38
437.18,-0.95,0.46,-0.95,0.46,-0.46,-0.55,-0.61,-1.41,-1.41,-1.41
441.55,-0.97,0.47,-0.97,0.47,-0.47,-0.57,-0.62,-1.44,-1.44,-1.44
445.96,-0.99,0.49,-0.99,0.49,-0.49,-0.58,-0.63,-1.48,-1.48,-1.47
450.42,-1.01,0.50,-1.01,0.50,-0.51,-0.59,-0.64,-1.51,-1.51,-1.51
454.93,-1.03,0.52,-1.03,0.52,-0.53,-0.60,-0.64,-1.55,-1.55,-1.55
459.48,-1.04,0.55,-1.04,0.55,-0.55,-0.61,-0.65,-1.59,-1.59,-1.59
464.07,-1.06,0.57,-1.06,0.57,-0.57,-0.61,-0.66,-1.64,-1.64,-1.64
468.71,-1.08,0.60,-1.08,0.60,-0.60,-0.62,-0.66,-1.68,-1.68,-1.68
473.40,-1.10,0.63,-1.10,0.63,-0.63,-0.63,-0.67,-1.73,-1.73,-1.73
478.13,-1.11,0.66,-1.11,0.66,-0.66,-0.64,-0.67,-1.77,-1.77,-1.77
482.91,-1.13,0.69,-1.13,0.69,-0.69,-0.64,-0.68,-1.82,-1.82,-1.82
487.74,-1.14,0.72,-1.14,0.72,-0.71,-0.65,-0.68,-1.86,-1.86,-1.86
492.62,-1.16,0.74,-1.16,0.74,-0.73,-0.66,-0.68,-1.89,-1.89,-1.90
497.55,-1.17,0.76,-1.17,0.76,-0.75,-0.66,-0.69,-1.93,-1.93,-1.93
502.52,-1.19,0.77,-1.19,0.77,-0.76,-0.67,-0.69,-1.95,-1.95,-1.96
507.55,-1.20,0.78,-1.20,0.78,-0.77,-0.67,-0.69,-1.98,-1.98,-1.98
