frequency,raw,error,smoothed,error_smoothed,equalization,parametric_eq,fixed_band_eq,equalized_raw,equalized_smoothed,target
20.00,5.52,-1.03,5.52,-1.03,0.99,0.86,0.41,6.51,6.51,6.55
20.20,5.56,-1.02,5.56,-1.00,0.99,0.87,0.43,6.56,6.56,6.58
20.40,5.61,-0.97,5.61,-0.98,0.99,0.88,0.44,6.60,6.59,6.58
20.61,5.65,-0.94,5.65,-0.96,0.98,0.88,0.45,6.63,6.63,6.58
20.81,5.69,-0.97,5.69,-0.95,0.98,0.89,0.47,6.66,6.66,6.65
21.02,5.73,-0.95,5.73,-0.94,0.97,0.90,0.48,6.70,6.70,6.68
21.23,5.77,-0.92,5.77,-0.94,0.96,0.91,0.49,6.73,6.73,6.69
21.44,5.81,-0.93,5.81,-0.94,0.95,0.91,0.51,6.76,6.76,6.74
21.66,5.85,-0.95,5.85,-0.95,0.94,0.92,0.52,6.79,6.79,6.80
21.87,5.89,-0.98,5.89,-0.96,0.93,0.92,0.54,6.82,6.82,6.87
22.09,5.93,-0.95,5.93,-0.95,0.92,0.93,0.56,6.85,6.85,6.88
22.31,5.97,-0.91,5.97,-0.91,0.89,0.94,0.57,6.87,6.87,6.88
22.54,6.01,-0.87,6.01,-0.87,0.87,0.94,0.59,6.88,6.88,6.88
22.76,6.05,-0.83,6.05,-0.83,0.84,0.95,0.61,6.89,6.89,6.88
22.99,6.08,-0.80,6.08,-0.79,0.81,0.95,0.62,6.89,6.89,6.88
23.22,6.12,-0.76,6.12,-0.76,0.78,0.95,0.64,6.90,6.90,6.88
23.45,6.15,-0.73,6.15,-0.75,0.76,0.96,0.66,6.91,6.91,6.88
23.69,6.18,-0.76,6.18,-0.75,0.75,0.96,0.68,6.93,6.93,6.94
23.92,6.21,-0.77,6.21,-0.75,0.75,0.97,0.70,6.96,6.96,6.98
24.16,6.24,-0.74,6.24,-0.76,0.76,0.97,0.72,7.00,7.00,6.98
24.40,6.28,-0.77,6.28,-0.77,0.78,0.97,0.74,7.06,7.06,7.05
24.65,6.31,-0.80,6.31,-0.79,0.81,0.97,0.76,7.12,7.12,7.12
24.89,6.35,-0.83,6.35,-0.83,0.83,0.97,0.78,7.18,7.18,7.18
25.14,6.38,-0.86,6.38,-0.86,0.86,0.98,0.80,7.25,7.25,7.24
25.39,6.42,-0.89,6.42,-0.90,0.89,0.98,0.82,7.31,7.31,7.31
25.65,6.45,-0.94,6.45,-0.94,0.92,0.98,0.84,7.37,7.37,7.39
25.91,6.48,-0.98,6.48,-0.96,0.95,0.98,0.86,7.43,7.43,7.46
26.16,6.51,-0.97,6.51,-0.97,0.98,0.98,0.88,7.49,7.49,7.48
26.43,6.53,-0.96,6.53,-0.98,1.01,0.98,0.90,7.54,7.54,7.49
26.69,6.55,-1.00,6.55,-1.00,1.03,0.98,0.92,7.58,7.58,7.55
26.96,6.58,-1.04,6.58,-1.04,1.04,0.98,0.94,7.62,7.62,7.62
27.23,6.60,-1.08,6.60,-1.07,1.04,0.97,0.96,7.64,7.64,7.68
27.50,6.62,-1.06,6.62,-1.06,1.04,0.97,0.98,7.66,7.66,7.68
27.77,6.64,-1.04,6.64,-1.05,1.02,0.97,1.00,7.67,7.67,7.68
28.05,6.67,-1.02,6.66,-1.02,1.00,0.97,1.02,7.66,7.66,7.68
28.33,6.69,-0.99,6.69,-0.97,0.96,0.96,1.03,7.65,7.65,7.68
28.62,6.71,-0.92,6.71,-0.92,0.92,0.96,1.05,7.63,7.63,7.63
28.90,6.73,-0.85,6.73,-0.87,0.88,0.96,1.06,7.61,7.61,7.58
29.19,6.75,-0.83,6.75,-0.82,0.84,0.95,1.07,7.59,7.59,7.58
29.48,6.78,-0.80,6.78,-0.80,0.81,0.95,1.09,7.59,7.59,7.58
29.78,6.80,-0.78,6.80,-0.78,0.80,0.95,1.10,7.60,7.60,7.58
30.08,6.82,-0.77,6.82,-0.79,0.80,0.94,1.10,7.63,7.63,7.60
30.38,6.84,-0.81,6.84,-0.81,0.82,0.94,1.11,7.67,7.67,7.66
30.68,6.87,-0.86,6.87,-0.85,0.86,0.93,1.12,7.72,7.72,7.73
30.99,6.89,-0.91,6.89,-0.90,0.90,0.92,1.12,7.79,7.79,7.80
31.30,6.91,-0.95,6.91,-0.95,0.95,0.92,1.12,7.87,7.87,7.86
31.61,6.94,-1.00,6.94,-1.00,1.00,0.91,1.12,7.94,7.94,7.93
31.93,6.96,-1.05,6.96,-1.05,1.05,0.91,1.12,8.01,8.01,8.01
32.24,6.98,-1.09,6.98,-1.10,1.09,0.90,1.12,8.07,8.07,8.07
32.57,7.00,-1.13,7.00,-1.13,1.11,0.89,1.12,8.11,8.11,8.13
32.89,7.02,-1.16,7.02,-1.15,1.12,0.88,1.11,8.14,8.14,8.18
33.22,7.04,-1.14,7.04,-1.14,1.11,0.88,1.10,8.16,8.16,8.18
33.55,7.07,-1.11,7.07,-1.10,1.09,0.87,1.10,8.16,8.16,8.18
33.89,7.08,-1.06,7.08,-1.05,1.06,0.86,1.09,8.15,8.15,8.14
34.23,7.10,-0.98,7.10,-1.01,1.02,0.85,1.08,8.12,8.12,8.08
34.57,7.11,-0.97,7.11,-0.95,0.97,0.85,1.06,8.08,8.08,8.08
34.92,7.12,-0.92,7.12,-0.91,0.92,0.84,1.05,8.04,8.04,8.04
35.27,7.13,-0.85,7.13,-0.88,0.87,0.83,1.04,8.00,8.00,7.98
35.62,7.13,-0.85,7.13,-0.83,0.83,0.82,1.02,7.96,7.96,7.98
35.97,7.14,-0.79,7.14,-0.79,0.79,0.81,1.01,7.93,7.93,7.93
36.33,7.14,-0.74,7.14,-0.76,0.77,0.80,0.99,7.91,7.91,7.88
36.70,7.15,-0.73,7.15,-0.73,0.74,0.79,0.98,7.89,7.89,7.88
37.06,7.16,-0.72,7.16,-0.72,0.72,0.79,0.96,7.88,7.88,7.88
37.43,7.17,-0.72,7.17,-0.71,0.71,0.78,0.95,7.88,7.88,7.88
37.81,7.17,-0.71,7.17,-0.71,0.71,0.77,0.93,7.88,7.88,7.88
38.19,7.18,-0.70,7.18,-0.70,0.70,0.76,0.91,7.89,7.89,7.88
38.57,7.19,-0.69,7.19,-0.69,0.70,0.75,0.90,7.89,7.89,7.88
38.95,7.20,-0.68,7.20,-0.68,0.69,0.74,0.88,7.88,7.88,7.88
39.34,7.21,-0.67,7.21,-0.68,0.66,0.73,0.87,7.87,7.87,7.88
39.74,7.21,-0.67,7.21,-0.67,0.63,0.72,0.85,7.84,7.84,7.88
40.14,7.22,-0.65,7.22,-0.63,0.58,0.71,0.84,7.81,7.81,7.87
40.54,7.23,-0.57,7.23,-0.57,0.54,0.70,0.82,7.77,7.77,7.81
40.94,7.24,-0.50,7.24,-0.50,0.50,0.69,0.81,7.75,7.75,7.74
41.35,7.25,-0.43,7.25,-0.44,0.48,0.68,0.79,7.73,7.73,7.68
41.76,7.26,-0.42,7.26,-0.40,0.48,0.67,0.78,7.74,7.74,7.68
42.18,7.27,-0.41,7.27,-0.42,0.49,0.66,0.76,7.76,7.76,7.68
42.60,7.27,-0.44,7.27,-0.48,0.53,0.66,0.75,7.80,7.80,7.72
43.03,7.27,-0.58,7.27,-0.56,0.58,0.65,0.74,7.85,7.85,7.86
43.46,7.27,-0.67,7.27,-0.66,0.63,0.64,0.73,7.90,7.90,7.94
43.90,7.28,-0.73,7.28,-0.74,0.68,0.63,0.72,7.96,7.96,8.01
44.33,7.28,-0.79,7.28,-0.78,0.72,0.62,0.71,8.00,8.00,8.07
44.78,7.29,-0.79,7.29,-0.79,0.73,0.61,0.70,8.02,8.02,8.08
45.23,7.29,-0.76,7.29,-0.75,0.73,0.60,0.69,8.02,8.02,8.05
45.68,7.29,-0.69,7.29,-0.69,0.71,0.59,0.68,8.00,7.99,7.98
46.13,7.29,-0.62,7.29,-0.64,0.67,0.58,0.67,7.95,7.95,7.91
46.60,7.28,-0.60,7.29,-0.60,0.62,0.57,0.66,7.90,7.90,7.88
47.06,7.29,-0.59,7.29,-0.56,0.57,0.56,0.66,7.86,7.86,7.87
47.53,7.29,-0.51,7.29,-0.53,0.53,0.56,0.65,7.82,7.82,7.80
48.01,7.30,-0.48,7.30,-0.49,0.50,0.55,0.64,7.79,7.79,7.78
48.49,7.30,-0.48,7.30,-0.47,0.48,0.54,0.64,7.79,7.78,7.78
48.97,7.30,-0.48,7.30,-0.48,0.48,0.53,0.63,7.79,7.79,7.78
49.46,7.30,-0.48,7.30,-0.48,0.50,0.52,0.63,7.79,7.79,7.78
49.96,7.28,-0.50,7.28,-0.49,0.52,0.51,0.62,7.80,7.80,7.78
50.46,7.27,-0.51,7.27,-0.53,0.55,0.51,0.62,7.82,7.82,7.78
50.96,7.25,-0.58,7.25,-0.58,0.58,0.50,0.62,7.84,7.84,7.84
51.47,7.24,-0.64,7.24,-0.63,0.61,0.49,0.61,7.85,7.85,7.88
51.99,7.22,-0.66,7.22,-0.67,0.64,0.48,0.61,7.85,7.85,7.88
52.51,7.20,-0.68,7.20,-0.67,0.64,0.47,0.61,7.84,7.84,7.88
53.03,7.17,-0.67,7.17,-0.67,0.64,0.47,0.60,7.81,7.81,7.85
53.56,7.15,-0.63,7.15,-0.66,0.63,0.46,0.60,7.78,7.78,7.78
54.10,7.14,-0.64,7.14,-0.62,0.61,0.45,0.60,7.74,7.75,7.78
54.64,7.14,-0.60,7.14,-0.58,0.59,0.44,0.60,7.73,7.73,7.74
55.18,7.15,-0.53,7.15,-0.55,0.58,0.44,0.59,7.73,7.73,7.68
55.74,7.17,-0.51,7.17,-0.53,0.59,0.43,0.59,7.75,7.75,7.68
56.29,7.18,-0.55,7.18,-0.55,0.61,0.42,0.59,7.79,7.79,7.73
56.86,7.19,-0.61,7.18,-0.61,0.65,0.42,0.59,7.83,7.83,7.80
57.42,7.18,-0.69,7.18,-0.69,0.69,0.41,0.59,7.87,7.87,7.87
58.00,7.17,-0.77,7.17,-0.76,0.74,0.40,0.58,7.91,7.91,7.94
58.58,7.15,-0.83,7.15,-0.82,0.78,0.39,0.58,7.94,7.94,7.98
59.16,7.14,-0.84,7.14,-0.85,0.82,0.39,0.58,7.95,7.95,7.98
59.76,7.12,-0.86,7.12,-0.86,0.83,0.38,0.57,7.95,7.95,7.98
60.35,7.11,-0.84,7.11,-0.83,0.81,0.38,0.57,7.92,7.92,7.95
60.96,7.10,-0.78,7.10,-0.79,0.77,0.37,0.57,7.87,7.87,7.89
61.57,7.09,-0.72,7.09,-0.73,0.71,0.36,0.56,7.81,7.81,7.81
62.18,7.08,-0.66,7.08,-0.65,0.65,0.36,0.56,7.73,7.73,7.74
62.80,7.07,-0.59,7.07,-0.57,0.57,0.35,0.55,7.65,7.65,7.66
63.43,7.06,-0.47,7.06,-0.48,0.51,0.35,0.54,7.57,7.57,7.53
64.07,7.05,-0.39,7.05,-0.41,0.45,0.34,0.54,7.50,7.49,7.44
64.71,7.04,-0.34,7.04,-0.36,0.39,0.33,0.53,7.43,7.43,7.38
65.35,7.02,-0.36,7.02,-0.33,0.35,0.33,0.52,7.37,7.37,7.38
66.01,7.00,-0.33,7.00,-0.33,0.31,0.32,0.52,7.32,7.32,7.33
66.67,6.99,-0.29,6.99,-0.32,0.28,0.32,0.51,7.27,7.27,7.28
67.33,6.97,-0.31,6.97,-0.29,0.26,0.31,0.50,7.23,7.23,7.28
68.01,6.95,-0.27,6.95,-0.26,0.25,0.31,0.49,7.20,7.20,7.22
68.69,6.92,-0.23,6.92,-0.24,0.25,0.30,0.48,7.17,7.17,7.15
69.37,6.89,-0.19,6.89,-0.21,0.25,0.30,0.47,7.14,7.14,7.08
70.07,6.86,-0.22,6.86,-0.22,0.25,0.29,0.47,7.11,7.11,7.08
70.77,6.83,-0.25,6.83,-0.25,0.26,0.29,0.46,7.08,7.09,7.08
71.48,6.80,-0.28,6.80,-0.28,0.26,0.28,0.45,7.06,7.06,7.08
72.19,6.78,-0.30,6.78,-0.31,0.27,0.28,0.44,7.05,7.05,7.08
72.91,6.76,-0.32,6.76,-0.31,0.28,0.28,0.43,7.04,7.04,7.08
73.64,6.75,-0.31,6.75,-0.30,0.28,0.27,0.42,7.04,7.04,7.07
74.38,6.74,-0.26,6.74,-0.27,0.29,0.27,0.41,7.03,7.03,7.00
75.12,6.73,-0.25,6.73,-0.26,0.29,0.26,0.40,7.02,7.02,6.98
75.87,6.72,-0.26,6.72,-0.26,0.29,0.26,0.39,7.01,7.01,6.98
76.63,6.70,-0.28,6.70,-0.28,0.29,0.26,0.38,6.99,6.99,6.98
77.40,6.68,-0.30,6.67,-0.30,0.29,0.25,0.37,6.97,6.97,6.98
78.17,6.65,-0.31,6.65,-0.30,0.30,0.25,0.36,6.94,6.94,6.96
78.95,6.61,-0.28,6.61,-0.30,0.30,0.24,0.35,6.91,6.91,6.89
79.74,6.58,-0.30,6.58,-0.30,0.30,0.24,0.34,6.87,6.87,6.88
80.54,6.54,-0.31,6.54,-0.30,0.28,0.24,0.33,6.82,6.82,6.85
81.35,6.51,-0.28,6.51,-0.28,0.26,0.23,0.32,6.77,6.77,6.78
82.16,6.48,-0.24,6.48,-0.24,0.23,0.23,0.31,6.70,6.70,6.72
82.98,6.45,-0.20,6.45,-0.20,0.19,0.23,0.30,6.64,6.64,6.65
83.81,6.43,-0.15,6.43,-0.15,0.15,0.22,0.29,6.58,6.58,6.58
84.65,6.42,-0.09,6.42,-0.10,0.12,0.22,0.28,6.53,6.53,6.51
85.50,6.42,-0.06,6.42,-0.06,0.08,0.22,0.27,6.50,6.50,6.48
86.35,6.44,-0.04,6.44,-0.03,0.05,0.22,0.26,6.49,6.49,6.48
87.22,6.48,-0.00,6.48,-0.02,0.02,0.21,0.25,6.50,6.50,6.48
88.09,6.52,-0.01,6.52,-0.02,0.00,0.21,0.25,6.52,6.52,6.53
88.97,6.55,-0.03,6.55,-0.01,-0.01,0.21,0.24,6.54,6.54,6.58
89.86,6.56,-0.02,6.55,0.01,-0.02,0.21,0.23,6.54,6.53,6.58
90.76,6.51,0.04,6.50,0.03,-0.02,0.20,0.22,6.49,6.49,6.46
91.66,6.42,0.06,6.42,0.04,-0.01,0.20,0.22,6.41,6.41,6.35
92.58,6.31,0.02,6.31,0.02,0.01,0.20,0.21,6.31,6.32,6.29
93.51,6.20,-0.02,6.20,-0.01,0.02,0.20,0.20,6.22,6.23,6.22
94.44,6.11,-0.04,6.11,-0.04,0.04,0.20,0.19,6.15,6.15,6.15
95.39,6.04,-0.04,6.05,-0.06,0.05,0.19,0.19,6.09,6.09,6.08
96.34,6.00,-0.08,6.00,-0.09,0.05,0.19,0.18,6.05,6.05,6.08
97.30,5.98,-0.10,5.98,-0.09,0.03,0.19,0.17,6.01,6.01,6.08
98.28,5.97,-0.10,5.96,-0.06,0.01,0.19,0.17,5.98,5.98,6.07
99.26,5.95,0.02,5.95,0.00,-0.02,0.19,0.16,5.93,5.93,5.93
100.25,5.93,0.09,5.92,0.07,-0.05,0.19,0.16,5.88,5.87,5.83
101.25,5.89,0.12,5.89,0.12,-0.07,0.19,0.15,5.82,5.82,5.77
102.27,5.84,0.12,5.84,0.14,-0.07,0.18,0.14,5.76,5.76,5.72
103.29,5.78,0.13,5.78,0.13,-0.07,0.18,0.14,5.71,5.71,5.65
104.32,5.72,0.12,5.72,0.08,-0.05,0.18,0.13,5.67,5.67,5.60
105.37,5.66,0.01,5.66,0.02,-0.02,0.18,0.13,5.64,5.64,5.65
106.42,5.61,-0.07,5.61,-0.05,0.00,0.18,0.12,5.61,5.61,5.68
107.48,5.56,-0.10,5.56,-0.09,0.03,0.18,0.12,5.59,5.59,5.66
108.56,5.52,-0.08,5.52,-0.07,0.04,0.18,0.11,5.56,5.56,5.60
109.64,5.49,-0.02,5.49,-0.04,0.03,0.18,0.11,5.52,5.52,5.52
110.74,5.46,0.02,5.47,0.01,-0.00,0.18,0.10,5.46,5.46,5.44
111.85,5.44,0.05,5.44,0.06,-0.06,0.18,0.10,5.38,5.38,5.39
112.97,5.41,0.12,5.41,0.13,-0.13,0.18,0.10,5.28,5.28,5.28
114.10,5.38,0.21,5.38,0.20,-0.22,0.18,0.09,5.16,5.16,5.17
115.24,5.34,0.29,5.34,0.29,-0.30,0.18,0.09,5.04,5.04,5.06
116.39,5.31,0.37,5.31,0.37,-0.38,0.18,0.09,4.93,4.93,4.94
117.55,5.27,0.45,5.27,0.46,-0.44,0.18,0.08,4.83,4.83,4.83
118.73,5.24,0.53,5.24,0.53,-0.50,0.18,0.08,4.73,4.73,4.71
119.92,5.20,0.61,5.20,0.58,-0.55,0.19,0.08,4.65,4.65,4.59
121.12,5.16,0.58,5.16,0.58,-0.57,0.19,0.08,4.59,4.59,4.58
122.33,5.12,0.54,5.12,0.55,-0.57,0.19,0.07,4.55,4.56,4.58
123.55,5.08,0.50,5.08,0.51,-0.52,0.19,0.07,4.56,4.56,4.58
124.79,5.04,0.46,5.04,0.48,-0.44,0.20,0.07,4.60,4.60,4.58
126.03,5.01,0.43,5.01,0.42,-0.34,0.20,0.07,4.67,4.67,4.58
127.29,4.97,0.34,4.97,0.30,-0.22,0.20,0.07,4.75,4.75,4.62
128.57,4.93,0.11,4.93,0.12,-0.10,0.21,0.07,4.83,4.83,4.82
129.85,4.88,-0.08,4.88,-0.07,0.01,0.21,0.07,4.90,4.90,4.97
131.15,4.84,-0.24,4.84,-0.22,0.10,0.22,0.07,4.95,4.94,5.08
132.46,4.80,-0.28,4.80,-0.28,0.18,0.22,0.07,4.97,4.97,5.08
133.79,4.75,-0.29,4.75,-0.30,0.23,0.23,0.07,4.98,4.98,5.04
135.12,4.71,-0.27,4.71,-0.27,0.26,0.23,0.07,4.96,4.96,4.97
136.48,4.66,-0.25,4.66,-0.24,0.28,0.24,0.07,4.94,4.94,4.91
137.84,4.62,-0.22,4.62,-0.22,0.29,0.25,0.07,4.91,4.91,4.84
139.22,4.57,-0.21,4.57,-0.22,0.31,0.26,0.07,4.88,4.88,4.78
140.61,4.52,-0.26,4.52,-0.27,0.35,0.27,0.07,4.87,4.87,4.78
142.02,4.48,-0.36,4.48,-0.36,0.39,0.28,0.07,4.87,4.87,4.83
143.44,4.43,-0.47,4.43,-0.47,0.45,0.29,0.07,4.88,4.88,4.90
144.87,4.39,-0.59,4.39,-0.57,0.50,0.31,0.07,4.89,4.89,4.97
146.32,4.35,-0.63,4.35,-0.63,0.55,0.32,0.07,4.89,4.89,4.98
147.78,4.31,-0.64,4.30,-0.63,0.59,0.34,0.08,4.90,4.90,4.94
149.26,4.26,-0.61,4.26,-0.61,0.62,0.35,0.08,4.88,4.88,4.87
150.75,4.22,-0.58,4.21,-0.58,0.63,0.37,0.08,4.84,4.84,4.79
152.26,4.17,-0.57,4.17,-0.57,0.62,0.39,0.08,4.79,4.79,4.74
153.78,4.12,-0.57,4.12,-0.59,0.59,0.40,0.08,4.71,4.71,4.69
155.32,4.07,-0.61,4.07,-0.61,0.57,0.42,0.08,4.64,4.64,4.68
156.88,4.02,-0.61,4.02,-0.59,0.54,0.44,0.09,4.57,4.57,4.64
158.44,3.98,-0.56,3.98,-0.55,0.53,0.45,0.09,4.50,4.50,4.54
160.03,3.93,-0.45,3.93,-0.48,0.51,0.46,0.09,4.44,4.44,4.38
161.63,3.88,-0.44,3.88,-0.45,0.50,0.46,0.09,4.38,4.38,4.33
163.24,3.84,-0.44,3.84,-0.45,0.48,0.47,0.10,4.32,4.32,4.28
164.88,3.79,-0.49,3.79,-0.48,0.47,0.47,0.10,4.26,4.26,4.28
166.53,3.74,-0.49,3.74,-0.48,0.46,0.46,0.10,4.21,4.21,4.23
168.19,3.69,-0.48,3.69,-0.47,0.46,0.45,0.11,4.16,4.16,4.17
169.87,3.65,-0.44,3.65,-0.47,0.46,0.44,0.11,4.11,4.11,4.09
171.57,3.60,-0.48,3.60,-0.47,0.47,0.43,0.11,4.06,4.06,4.08
173.29,3.55,-0.49,3.55,-0.48,0.47,0.41,0.11,4.02,4.02,4.04
175.02,3.50,-0.48,3.50,-0.47,0.47,0.40,0.12,3.97,3.97,3.98
176.77,3.45,-0.44,3.45,-0.45,0.47,0.38,0.12,3.92,3.92,3.89
178.54,3.40,-0.43,3.40,-0.44,0.47,0.37,0.12,3.87,3.87,3.83
180.32,3.34,-0.44,3.34,-0.45,0.46,0.35,0.13,3.81,3.81,3.78
182.13,3.29,-0.49,3.29,-0.48,0.45,0.34,0.13,3.74,3.74,3.78
183.95,3.23,-0.50,3.23,-0.48,0.44,0.32,0.13,3.68,3.68,3.73
185.79,3.18,-0.45,3.18,-0.45,0.43,0.31,0.14,3.61,3.61,3.63
187.65,3.13,-0.38,3.13,-0.40,0.41,0.30,0.14,3.53,3.53,3.50
189.52,3.08,-0.35,3.08,-0.36,0.37,0.29,0.14,3.45,3.45,3.43
191.42,3.03,-0.34,3.03,-0.34,0.33,0.28,0.15,3.36,3.36,3.37
193.33,2.98,-0.32,2.98,-0.31,0.28,0.27,0.15,3.26,3.26,3.30
195.27,2.94,-0.28,2.94,-0.26,0.23,0.27,0.16,3.18,3.18,3.22
197.22,2.90,-0.20,2.90,-0.19,0.20,0.26,0.16,3.10,3.10,3.10
199.19,2.86,-0.11,2.86,-0.13,0.17,0.25,0.16,3.03,3.03,2.97
201.18,2.82,-0.08,2.82,-0.09,0.15,0.25,0.17,2.97,2.97,2.91
203.19,2.79,-0.10,2.79,-0.10,0.13,0.25,0.17,2.92,2.92,2.88
205.23,2.75,-0.13,2.75,-0.13,0.12,0.24,0.18,2.87,2.87,2.88
207.28,2.71,-0.17,2.71,-0.16,0.13,0.24,0.18,2.83,2.83,2.88
209.35,2.67,-0.17,2.67,-0.16,0.13,0.24,0.18,2.80,2.80,2.84
211.44,2.63,-0.14,2.63,-0.14,0.14,0.23,0.19,2.76,2.76,2.77
213.56,2.58,-0.11,2.58,-0.13,0.14,0.23,0.19,2.72,2.72,2.70
215.69,2.54,-0.14,2.54,-0.14,0.13,0.23,0.20,2.67,2.67,2.68
217.85,2.49,-0.16,2.49,-0.14,0.11,0.23,0.20,2.61,2.61,2.65
220.03,2.44,-0.14,2.44,-0.12,0.10,0.23,0.20,2.54,2.54,2.58
222.23,2.39,-0.08,2.39,-0.09,0.10,0.23,0.21,2.49,2.49,2.47
224.45,2.33,-0.05,2.33,-0.07,0.12,0.23,0.21,2.45,2.45,2.38
226.70,2.28,-0.10,2.28,-0.09,0.15,0.23,0.22,2.43,2.43,2.38
228.96,2.23,-0.15,2.23,-0.13,0.18,0.23,0.22,2.41,2.41,2.38
231.25,2.19,-0.19,2.19,-0.20,0.21,0.23,0.23,2.40,2.40,2.38
233.57,2.14,-0.24,2.14,-0.27,0.24,0.23,0.23,2.39,2.39,2.38
235.90,2.10,-0.34,2.10,-0.33,0.27,0.23,0.23,2.37,2.37,2.44
238.26,2.06,-0.38,2.06,-0.35,0.29,0.24,0.24,2.34,2.34,2.44
240.64,2.01,-0.33,2.01,-0.33,0.29,0.24,0.24,2.30,2.30,2.35
243.05,1.97,-0.26,1.97,-0.27,0.27,0.24,0.24,2.24,2.24,2.23
245.48,1.93,-0.20,1.93,-0.21,0.24,0.24,0.25,2.17,2.17,2.13
247.93,1.88,-0.17,1.88,-0.18,0.20,0.24,0.25,2.08,2.08,2.06
250.41,1.84,-0.15,1.84,-0.16,0.15,0.25,0.25,1.99,1.99,2.00
252.92,1.80,-0.14,1.80,-0.12,0.12,0.25,0.26,1.91,1.91,1.93
255.45,1.75,-0.10,1.75,-0.07,0.09,0.25,0.26,1.84,1.84,1.85
258.00,1.70,0.02,1.70,-0.03,0.08,0.25,0.26,1.78,1.78,1.68
260.58,1.65,-0.03,1.65,-0.04,0.08,0.26,0.27,1.73,1.73,1.68
263.19,1.60,-0.08,1.60,-0.07,0.08,0.26,0.27,1.67,1.68,1.68
265.82,1.55,-0.13,1.55,-0.11,0.07,0.26,0.27,1.62,1.62,1.68
268.48,1.51,-0.11,1.51,-0.11,0.07,0.27,0.28,1.57,1.57,1.62
271.16,1.46,-0.09,1.46,-0.09,0.06,0.27,0.28,1.52,1.52,1.55
273.87,1.42,-0.06,1.42,-0.06,0.05,0.27,0.28,1.47,1.47,1.48
276.61,1.38,-0.04,1.38,-0.04,0.04,0.28,0.28,1.41,1.41,1.42
279.38,1.33,-0.01,1.33,-0.01,0.02,0.28,0.29,1.35,1.35,1.35
282.17,1.29,0.01,1.29,0.02,0.00,0.29,0.29,1.29,1.29,1.28
284.99,1.25,0.04,1.25,0.03,-0.00,0.29,0.29,1.24,1.25,1.21
287.84,1.20,0.02,1.20,0.02,0.01,0.30,0.30,1.21,1.21,1.18
290.72,1.16,-0.02,1.16,-0.02,0.03,0.30,0.30,1.19,1.19,1.18
293.63,1.12,-0.06,1.12,-0.06,0.06,0.31,0.30,1.17,1.18,1.18
296.57,1.07,-0.11,1.07,-0.11,0.10,0.31,0.31,1.17,1.17,1.18
299.53,1.03,-0.15,1.03,-0.15,0.15,0.32,0.31,1.18,1.18,1.18
302.53,0.98,-0.20,0.98,-0.20,0.19,0.32,0.31,1.18,1.18,1.18
305.55,0.94,-0.24,0.94,-0.24,0.24,0.33,0.32,1.17,1.17,1.18
308.61,0.89,-0.29,0.89,-0.29,0.28,0.33,0.32,1.17,1.17,1.18
311.69,0.85,-0.33,0.85,-0.34,0.31,0.34,0.33,1.16,1.16,1.18
314.81,0.80,-0.38,0.80,-0.36,0.35,0.34,0.33,1.16,1.16,1.18
317.96,0.76,-0.38,0.76,-0.37,0.39,0.35,0.34,1.15,1.15,1.14
321.14,0.72,-0.36,0.72,-0.39,0.43,0.36,0.34,1.14,1.14,1.08
324.35,0.67,-0.41,0.67,-0.43,0.45,0.36,0.35,1.13,1.13,1.08
327.59,0.63,-0.50,0.63,-0.49,0.48,0.37,0.35,1.11,1.11,1.13
330.87,0.59,-0.58,0.59,-0.54,0.50,0.38,0.36,1.09,1.09,1.16
334.18,0.55,-0.55,0.55,-0.55,0.52,0.38,0.36,1.07,1.07,1.10
337.52,0.51,-0.52,0.51,-0.54,0.54,0.39,0.37,1.05,1.05,1.03
340.90,0.47,-0.51,0.47,-0.53,0.54,0.40,0.38,1.01,1.01,0.98
344.30,0.43,-0.55,0.43,-0.52,0.54,0.40,0.38,0.97,0.97,0.98
347.75,0.39,-0.53,0.39,-0.54,0.52,0.41,0.39,0.92,0.92,0.93
351.23,0.35,-0.53,0.35,-0.55,0.51,0.42,0.40,0.86,0.86,0.88
354.74,0.31,-0.57,0.31,-0.52,0.51,0.43,0.40,0.82,0.82,0.88
358.28,0.27,-0.48,0.27,-0.49,0.52,0.44,0.41,0.80,0.80,0.75
361.87,0.23,-0.45,0.23,-0.48,0.54,0.44,0.42,0.78,0.78,0.68
365.49,0.19,-0.50,0.19,-0.51,0.57,0.45,0.43,0.76,0.76,0.69
369.14,0.15,-0.59,0.15,-0.58,0.59,0.46,0.44,0.74,0.74,0.75
372.83,0.12,-0.66,0.12,-0.65,0.60,0.47,0.45,0.72,0.72,0.78
376.56,0.08,-0.69,0.08,-0.68,0.61,0.48,0.46,0.69,0.69,0.77
380.33,0.04,-0.67,0.04,-0.67,0.62,0.49,0.47,0.66,0.66,0.71
384.13,-0.00,-0.64,-0.00,-0.64,0.62,0.50,0.48,0.62,0.62,0.64
387.97,-0.04,-0.61,-0.04,-0.61,0.61,0.51,0.49,0.57,0.57,0.56
391.85,-0.08,-0.58,-0.08,-0.58,0.61,0.51,0.50,0.53,0.53,0.50
395.77,-0.13,-0.55,-0.13,-0.55,0.61,0.52,0.51,0.49,0.49,0.43
399.73,-0.17,-0.55,-0.16,-0.56,0.62,0.53,0.52,0.45,0.45,0.38
403.72,-0.20,-0.58,-0.20,-0.60,0.63,0.54,0.53,0.43,0.43,0.38
407.76,-0.24,-0.68,-0.24,-0.67,0.65,0.55,0.54,0.42,0.42,0.44
411.84,-0.27,-0.75,-0.27,-0.74,0.68,0.57,0.55,0.41,0.41,0.48
415.96,-0.30,-0.78,-0.30,-0.77,0.71,0.58,0.56,0.40,0.40,0.48
420.12,-0.33,-0.75,-0.33,-0.74,0.73,0.59,0.58,0.40,0.40,0.41
424.32,-0.36,-0.71,-0.36,-0.72,0.75,0.60,0.59,0.39,0.39,0.34
428.56,-0.39,-0.68,-0.39,-0.72,0.76,0.61,0.60,0.37,0.37,0.29
432.85,-0.42,-0.78,-0.42,-0.74,0.75,0.62,0.61,0.34,0.34,0.36
437.18,-0.44,-0.77,-0.44,-0.76,0.74,0.63,0.62,0.30,0.30,0.33
441.55,-0.46,-0.74,-0.46,-0.77,0.73,0.64,0.64,0.27,0.27,0.28
445.96,-0.48,-0.76,-0.48,-0.74,0.73,0.65,0.65,0.25,0.25,0.28
450.42,-0.49,-0.72,-0.49,-0.72,0.73,0.67,0.66,0.24,0.24,0.23
454.93,-0.51,-0.69,-0.51,-0.71,0.74,0.68,0.67,0.23,0.23,0.18
459.48,-0.52,-0.70,-0.52,-0.70,0.73,0.69,0.68,0.21,0.21,0.18
464.07,-0.54,-0.72,-0.54,-0.72,0.72,0.70,0.69,0.18,0.18,0.18
468.71,-0.56,-0.74,-0.56,-0.74,0.71,0.71,0.70,0.15,0.15,0.18
473.40,-0.58,-0.76,-0.58,-0.75,0.70,0.73,0.72,0.12,0.12,0.18
478.13,-0.61,-0.73,-0.61,-0.72,0.70,0.74,0.73,0.09,0.09,0.12
482.91,-0.64,-0.69,-0.64,-0.69,0.70,0.75,0.74,0.06,0.06,0.05
487.74,-0.66,-0.65,-0.66,-0.67,0.70,0.76,0.75,0.04,0.04,-0.02
492.62,-0.69,-0.67,-0.69,-0.67,0.70,0.78,0.76,0.01,0.01,-0.02
497.55,-0.72,-0.70,-0.72,-0.69,0.71,0.79,0.77,-0.01,-0.01,-0.02
502.52,-0.74,-0.72,-0.74,-0.72,0.72,0.80,0.77,-0.02,-0.02,-0.02
507.55,-0.77,-0.75,-0.77,-0.75,0.74,0.82,0.78,-0.03,-0.03,-0.02
512.62,-0.80,-0.78,-0.80,-0.78,0.76,0.83,0.79,-0.03,-0.03,-0.02
517.75,-0.82,-0.80,-0.82,-0.80,0.78,0.84,0.80,-0.04,-0.04,-0.02
522.93,-0.84,-0.82,-0.84,-0.83,0.81,0.85,0.81,-0.04,-0.04,-0.02
528.16,-0.87,-0.85,-0.87,-0.83,0.83,0.87,0.82,-0.04,-0.04,-0.02
533.44,-0.89,-0.85,-0.89,-0.83,0.85,0.88,0.82,-0.04,-0.04,-0.04
538.77,-0.91,-0.80,-0.91,-0.84,0.86,0.89,0.83,-0.04,-0.04,-0.10
544.16,-0.93,-0.87,-0.93,-0.87,0.88,0.91,0.84,-0.04,-0.04,-0.06
549.60,-0.94,-0.92,-0.94,-0.90,0.91,0.92,0.85,-0.04,-0.04,-0.02
555.10,-0.96,-0.94,-0.96,-0.94,0.93,0.93,0.85,-0.03,-0.03,-0.02
560.65,-0.98,-0.96,-0.98,-0.96,0.95,0.94,0.86,-0.02,-0.02,-0.02
566.25,-0.99,-0.98,-0.99,-0.98,0.98,0.96,0.87,-0.02,-0.02,-0.02
