frequency,raw,error,smoothed,error_smoothed,equalization,parametric_eq,fixed_band_eq,equalized_raw,equalized_smoothed,target
20.00,7.76,1.84,7.76,1.84,-1.83,-1.85,-1.10,5.93,5.93,5.92
20.20,7.78,1.84,7.78,1.84,-1.84,-1.87,-1.13,5.94,5.94,5.94
20.40,7.80,1.85,7.81,1.85,-1.85,-1.89,-1.17,5.96,5.96,5.96
20.61,7.83,1.86,7.83,1.86,-1.86,-1.91,-1.20,5.97,5.97,5.98
20.81,7.86,1.87,7.86,1.87,-1.88,-1.93,-1.24,5.99,5.99,5.99
21.02,7.89,1.89,7.89,1.88,-1.89,-1.95,-1.27,6.00,6.00,6.01
21.23,7.93,1.90,7.93,1.90,-1.91,-1.97,-1.31,6.02,6.02,6.02
21.44,7.96,1.93,7.96,1.93,-1.93,-1.99,-1.35,6.03,6.03,6.03
21.66,7.99,1.96,7.99,1.96,-1.96,-2.01,-1.39,6.03,6.03,6.03
21.87,8.02,1.98,8.02,1.98,-1.98,-2.03,-1.43,6.04,6.04,6.04
22.09,8.05,2.01,8.05,2.01,-2.01,-2.05,-1.47,6.04,6.04,6.04
22.31,8.08,2.04,8.08,2.04,-2.04,-2.07,-1.52,6.04,6.04,6.03
22.54,8.11,2.07,8.11,2.07,-2.07,-2.09,-1.56,6.04,6.04,6.03
22.76,8.13,2.10,8.13,2.10,-2.09,-2.10,-1.61,6.04,6.04,6.04
22.99,8.16,2.12,8.16,2.12,-2.11,-2.12,-1.65,6.05,6.05,6.04
23.22,8.19,2.14,8.19,2.14,-2.13,-2.14,-1.70,6.06,6.06,6.05
23.45,8.22,2.15,8.22,2.15,-2.15,-2.15,-1.75,6.07,6.07,6.07
23.69,8.25,2.17,8.25,2.17,-2.17,-2.17,-1.80,6.08,6.08,6.08
23.92,8.28,2.19,8.28,2.19,-2.19,-2.19,-1.85,6.09,6.09,6.09
24.16,8.31,2.21,8.31,2.21,-2.21,-2.20,-1.90,6.10,6.10,6.10
24.40,8.34,2.23,8.34,2.23,-2.24,-2.21,-1.95,6.10,6.10,6.11
24.65,8.36,2.26,8.36,2.26,-2.26,-2.23,-2.01,6.10,6.10,6.11
24.89,8.39,2.28,8.39,2.29,-2.29,-2.24,-2.06,6.10,6.10,6.11
25.14,8.41,2.32,8.41,2.32,-2.32,-2.25,-2.11,6.09,6.09,6.10
25.39,8.44,2.35,8.44,2.35,-2.35,-2.26,-2.17,6.09,6.09,6.09
25.65,8.46,2.38,8.46,2.38,-2.37,-2.28,-2.22,6.08,6.08,6.08
25.91,8.47,2.40,8.47,2.40,-2.39,-2.29,-2.28,6.09,6.09,6.08
26.16,8.49,2.41,8.49,2.41,-2.40,-2.29,-2.33,6.09,6.09,6.08
26.43,8.50,2.41,8.50,2.41,-2.40,-2.30,-2.38,6.10,6.10,6.09
26.69,8.50,2.40,8.50,2.40,-2.39,-2.31,-2.44,6.11,6.11,6.10
26.96,8.51,2.38,8.51,2.38,-2.38,-2.32,-2.49,6.13,6.13,6.12
27.23,8.50,2.35,8.50,2.35,-2.36,-2.32,-2.54,6.15,6.15,6.15
27.50,8.50,2.33,8.50,2.33,-2.34,-2.33,-2.59,6.16,6.16,6.17
27.77,8.49,2.30,8.49,2.31,-2.32,-2.33,-2.64,6.17,6.17,6.19
28.05,8.48,2.29,8.48,2.29,-2.30,-2.34,-2.69,6.18,6.18,6.20
28.33,8.48,2.28,8.48,2.28,-2.29,-2.34,-2.73,6.19,6.19,6.20
28.62,8.48,2.28,8.48,2.28,-2.28,-2.34,-2.77,6.20,6.20,6.21
28.90,8.49,2.28,8.49,2.28,-2.28,-2.34,-2.81,6.21,6.21,6.21
29.19,8.50,2.29,8.50,2.29,-2.29,-2.35,-2.85,6.22,6.22,6.21
29.48,8.52,2.30,8.52,2.29,-2.29,-2.35,-2.88,6.23,6.23,6.22
29.78,8.53,2.30,8.53,2.30,-2.29,-2.35,-2.91,6.24,6.24,6.24
30.08,8.55,2.30,8.55,2.30,-2.30,-2.35,-2.94,6.26,6.26,6.25
30.38,8.57,2.30,8.57,2.30,-2.30,-2.34,-2.96,6.27,6.27,6.27
30.68,8.58,2.30,8.58,2.30,-2.30,-2.34,-2.98,6.28,6.28,6.28
30.99,8.60,2.31,8.60,2.31,-2.31,-2.34,-2.99,6.29,6.29,6.29
31.30,8.61,2.31,8.61,2.31,-2.32,-2.34,-3.00,6.29,6.29,6.30
31.61,8.62,2.32,8.62,2.32,-2.32,-2.34,-3.01,6.29,6.29,6.30
31.93,8.63,2.33,8.63,2.33,-2.33,-2.34,-3.01,6.30,6.30,6.30
32.24,8.64,2.34,8.64,2.34,-2.34,-2.34,-3.02,6.30,6.30,6.30
32.57,8.65,2.36,8.65,2.35,-2.35,-2.34,-3.01,6.30,6.30,6.29
32.89,8.66,2.37,8.66,2.36,-2.35,-2.34,-3.00,6.30,6.30,6.29
33.22,8.66,2.37,8.66,2.37,-2.36,-2.35,-2.99,6.31,6.31,6.29
33.55,8.67,2.37,8.67,2.37,-2.37,-2.35,-2.98,6.31,6.31,6.30
33.89,8.68,2.37,8.68,2.37,-2.38,-2.35,-2.96,6.30,6.30,6.31
34.23,8.69,2.38,8.69,2.38,-2.40,-2.36,-2.94,6.29,6.29,6.31
34.57,8.70,2.39,8.70,2.40,-2.42,-2.36,-2.92,6.28,6.28,6.31
34.92,8.70,2.43,8.70,2.43,-2.45,-2.37,-2.89,6.26,6.26,6.28
35.27,8.70,2.47,8.70,2.47,-2.47,-2.37,-2.87,6.24,6.24,6.24
35.62,8.71,2.51,8.71,2.51,-2.49,-2.38,-2.84,6.22,6.22,6.20
35.97,8.71,2.54,8.71,2.53,-2.50,-2.39,-2.81,6.21,6.21,6.17
36.33,8.71,2.54,8.71,2.54,-2.51,-2.40,-2.78,6.20,6.20,6.17
36.70,8.71,2.52,8.71,2.52,-2.51,-2.40,-2.75,6.20,6.20,6.19
37.06,8.72,2.50,8.72,2.50,-2.50,-2.41,-2.72,6.22,6.22,6.22
37.43,8.72,2.47,8.72,2.47,-2.49,-2.42,-2.69,6.23,6.23,6.25
37.81,8.72,2.45,8.72,2.45,-2.47,-2.43,-2.65,6.25,6.26,6.27
38.19,8.72,2.44,8.72,2.44,-2.45,-2.43,-2.62,6.28,6.28,6.29
38.57,8.72,2.43,8.73,2.43,-2.43,-2.44,-2.59,6.29,6.29,6.29
38.95,8.73,2.43,8.73,2.42,-2.42,-2.45,-2.56,6.30,6.30,6.30
39.34,8.73,2.42,8.73,2.42,-2.42,-2.45,-2.53,6.31,6.31,6.31
39.74,8.73,2.41,8.73,2.41,-2.41,-2.46,-2.51,6.32,6.32,6.32
40.14,8.73,2.41,8.73,2.41,-2.42,-2.46,-2.48,6.32,6.32,6.32
40.54,8.74,2.41,8.74,2.41,-2.42,-2.46,-2.45,6.32,6.32,6.32
40.94,8.74,2.42,8.74,2.42,-2.42,-2.47,-2.43,6.32,6.32,6.32
41.35,8.74,2.43,8.74,2.42,-2.42,-2.47,-2.41,6.32,6.32,6.32
41.76,8.75,2.43,8.74,2.43,-2.42,-2.47,-2.39,6.32,6.32,6.32
42.18,8.75,2.43,8.75,2.43,-2.42,-2.47,-2.37,6.32,6.32,6.32
42.60,8.74,2.42,8.74,2.42,-2.42,-2.47,-2.35,6.32,6.32,6.32
43.03,8.74,2.42,8.74,2.42,-2.42,-2.47,-2.33,6.33,6.32,6.32
43.46,8.74,2.41,8.74,2.41,-2.41,-2.47,-2.32,6.33,6.33,6.33
43.90,8.73,2.40,8.73,2.40,-2.40,-2.47,-2.30,6.33,6.33,6.33
44.33,8.72,2.39,8.72,2.39,-2.39,-2.46,-2.29,6.33,6.33,6.33
44.78,8.72,2.38,8.72,2.38,-2.39,-2.46,-2.28,6.33,6.33,6.33
45.23,8.71,2.37,8.71,2.37,-2.38,-2.46,-2.28,6.33,6.33,6.34
45.68,8.70,2.37,8.70,2.37,-2.37,-2.45,-2.27,6.33,6.33,6.34
46.13,8.70,2.36,8.70,2.36,-2.37,-2.45,-2.27,6.33,6.33,6.33
46.60,8.69,2.36,8.69,2.36,-2.37,-2.44,-2.27,6.33,6.33,6.33
47.06,8.69,2.37,8.69,2.37,-2.37,-2.44,-2.27,6.32,6.32,6.33
47.53,8.69,2.37,8.69,2.37,-2.37,-2.43,-2.27,6.32,6.32,6.32
48.01,8.69,2.37,8.69,2.37,-2.37,-2.43,-2.27,6.32,6.32,6.32
48.49,8.69,2.37,8.69,2.37,-2.37,-2.42,-2.27,6.32,6.32,6.31
48.97,8.68,2.37,8.68,2.37,-2.37,-2.41,-2.28,6.31,6.31,6.31
49.46,8.68,2.37,8.68,2.37,-2.36,-2.41,-2.29,6.31,6.31,6.31
49.96,8.67,2.36,8.67,2.36,-2.36,-2.40,-2.30,6.31,6.31,6.31
50.46,8.66,2.36,8.66,2.36,-2.36,-2.39,-2.31,6.30,6.30,6.30
50.96,8.65,2.35,8.65,2.35,-2.35,-2.38,-2.32,6.30,6.30,6.30
51.47,8.64,2.34,8.64,2.34,-2.34,-2.37,-2.33,6.29,6.29,6.30
51.99,8.63,2.34,8.63,2.34,-2.34,-2.36,-2.34,6.29,6.29,6.29
52.51,8.62,2.33,8.62,2.33,-2.34,-2.36,-2.35,6.29,6.29,6.29
53.03,8.62,2.33,8.62,2.33,-2.33,-2.35,-2.36,6.29,6.29,6.29
53.56,8.62,2.33,8.62,2.33,-2.33,-2.34,-2.38,6.28,6.28,6.29
54.10,8.61,2.33,8.61,2.33,-2.33,-2.33,-2.39,6.28,6.28,6.28
54.64,8.61,2.33,8.61,2.33,-2.33,-2.32,-2.40,6.28,6.28,6.28
55.18,8.61,2.33,8.61,2.33,-2.32,-2.31,-2.42,6.29,6.28,6.28
55.74,8.60,2.32,8.60,2.32,-2.32,-2.30,-2.43,6.29,6.29,6.28
56.29,8.60,2.31,8.60,2.31,-2.31,-2.29,-2.44,6.29,6.29,6.28
56.86,8.59,2.30,8.59,2.30,-2.30,-2.28,-2.45,6.29,6.29,6.29
57.42,8.58,2.29,8.58,2.29,-2.29,-2.27,-2.46,6.28,6.28,6.29
58.00,8.57,2.28,8.57,2.28,-2.28,-2.26,-2.47,6.28,6.28,6.28
58.58,8.55,2.27,8.55,2.27,-2.27,-2.25,-2.48,6.28,6.28,6.28
59.16,8.54,2.26,8.54,2.26,-2.26,-2.24,-2.48,6.28,6.28,6.28
59.76,8.53,2.25,8.53,2.25,-2.25,-2.23,-2.48,6.28,6.28,6.28
60.35,8.51,2.24,8.51,2.24,-2.24,-2.22,-2.48,6.27,6.27,6.27
60.96,8.50,2.23,8.50,2.23,-2.23,-2.21,-2.48,6.27,6.27,6.27
61.57,8.48,2.22,8.48,2.22,-2.22,-2.20,-2.48,6.26,6.26,6.26
62.18,8.46,2.21,8.46,2.21,-2.21,-2.19,-2.47,6.26,6.26,6.26
62.80,8.45,2.20,8.45,2.20,-2.20,-2.18,-2.47,6.25,6.25,6.25
63.43,8.43,2.19,8.43,2.19,-2.19,-2.17,-2.46,6.24,6.24,6.24
64.07,8.42,2.18,8.42,2.18,-2.18,-2.16,-2.44,6.24,6.24,6.24
64.71,8.41,2.17,8.41,2.17,-2.17,-2.15,-2.43,6.24,6.23,6.24
65.35,8.40,2.17,8.40,2.17,-2.17,-2.14,-2.41,6.23,6.23,6.23
66.01,8.39,2.16,8.39,2.16,-2.16,-2.13,-2.39,6.23,6.23,6.23
66.67,8.39,2.16,8.39,2.16,-2.16,-2.12,-2.37,6.23,6.23,6.23
67.33,8.38,2.16,8.38,2.16,-2.16,-2.11,-2.35,6.22,6.22,6.22
68.01,8.37,2.15,8.37,2.15,-2.15,-2.10,-2.33,6.22,6.22,6.22
68.69,8.36,2.15,8.36,2.15,-2.15,-2.09,-2.30,6.22,6.22,6.21
69.37,8.36,2.14,8.36,2.15,-2.14,-2.08,-2.28,6.21,6.21,6.21
70.07,8.34,2.14,8.34,2.14,-2.14,-2.07,-2.25,6.21,6.21,6.21
70.77,8.33,2.13,8.33,2.13,-2.13,-2.06,-2.22,6.20,6.20,6.20
71.48,8.31,2.12,8.31,2.12,-2.12,-2.05,-2.19,6.20,6.20,6.19
72.19,8.30,2.11,8.30,2.11,-2.11,-2.04,-2.16,6.19,6.19,6.19
72.91,8.28,2.09,8.28,2.09,-2.09,-2.02,-2.13,6.18,6.18,6.18
73.64,8.26,2.08,8.26,2.08,-2.08,-2.01,-2.10,6.18,6.18,6.18
74.38,8.24,2.06,8.24,2.06,-2.06,-2.00,-2.07,6.17,6.17,6.17
75.12,8.22,2.05,8.22,2.05,-2.05,-1.99,-2.04,6.17,6.17,6.17
75.87,8.20,2.03,8.20,2.03,-2.03,-1.98,-2.01,6.16,6.16,6.16
76.63,8.18,2.02,8.18,2.02,-2.02,-1.97,-1.98,6.16,6.16,6.16
77.40,8.16,2.00,8.16,2.00,-2.01,-1.96,-1.95,6.15,6.15,6.15
78.17,8.14,1.99,8.14,1.99,-1.99,-1.95,-1.92,6.15,6.15,6.15
78.95,8.12,1.98,8.12,1.98,-1.98,-1.94,-1.89,6.14,6.14,6.14
79.74,8.09,1.96,8.09,1.96,-1.96,-1.92,-1.86,6.13,6.13,6.13
80.54,8.07,1.95,8.07,1.95,-1.95,-1.91,-1.83,6.12,6.12,6.12
81.35,8.05,1.93,8.05,1.93,-1.93,-1.90,-1.81,6.11,6.11,6.11
82.16,8.02,1.91,8.02,1.91,-1.91,-1.89,-1.78,6.11,6.11,6.11
82.98,7.99,1.90,7.99,1.90,-1.89,-1.88,-1.76,6.10,6.10,6.10
83.81,7.97,1.88,7.97,1.88,-1.87,-1.86,-1.74,6.10,6.10,6.09
84.65,7.94,1.85,7.94,1.85,-1.85,-1.85,-1.72,6.09,6.09,6.09
85.50,7.91,1.83,7.91,1.83,-1.82,-1.84,-1.70,6.09,6.09,6.08
86.35,7.88,1.80,7.88,1.80,-1.80,-1.82,-1.68,6.08,6.08,6.08
87.22,7.85,1.77,7.85,1.77,-1.78,-1.81,-1.66,6.07,6.07,6.07
88.09,7.82,1.75,7.82,1.75,-1.76,-1.80,-1.65,6.06,6.06,6.07
88.97,7.79,1.73,7.79,1.73,-1.74,-1.78,-1.63,6.05,6.05,6.06
89.86,7.77,1.71,7.77,1.72,-1.73,-1.77,-1.62,6.04,6.04,6.05
90.76,7.75,1.71,7.75,1.71,-1.71,-1.75,-1.61,6.04,6.04,6.04
91.66,7.74,1.70,7.74,1.70,-1.70,-1.74,-1.60,6.03,6.03,6.04
92.58,7.72,1.70,7.72,1.70,-1.69,-1.72,-1.59,6.03,6.03,6.03
93.51,7.70,1.68,7.70,1.68,-1.67,-1.71,-1.58,6.03,6.03,6.02
94.44,7.67,1.66,7.67,1.66,-1.65,-1.69,-1.57,6.02,6.02,6.01
95.39,7.64,1.64,7.64,1.63,-1.62,-1.68,-1.57,6.02,6.02,6.00
96.34,7.59,1.60,7.59,1.60,-1.58,-1.66,-1.56,6.01,6.01,5.99
97.30,7.54,1.55,7.54,1.55,-1.54,-1.64,-1.56,5.99,5.99,5.99
98.28,7.48,1.50,7.48,1.50,-1.51,-1.63,-1.55,5.97,5.97,5.98
99.26,7.42,1.45,7.42,1.45,-1.47,-1.61,-1.55,5.95,5.95,5.97
100.25,7.38,1.42,7.38,1.42,-1.44,-1.59,-1.55,5.94,5.94,5.96
101.25,7.35,1.40,7.35,1.40,-1.42,-1.58,-1.55,5.93,5.94,5.95
102.27,7.34,1.40,7.34,1.40,-1.40,-1.56,-1.55,5.93,5.93,5.94
103.29,7.33,1.40,7.33,1.40,-1.40,-1.54,-1.55,5.93,5.93,5.93
104.32,7.32,1.40,7.32,1.40,-1.40,-1.52,-1.55,5.92,5.92,5.92
105.37,7.32,1.41,7.32,1.41,-1.40,-1.50,-1.55,5.91,5.91,5.91
106.42,7.31,1.41,7.31,1.41,-1.41,-1.48,-1.55,5.90,5.90,5.90
107.48,7.30,1.42,7.30,1.41,-1.41,-1.46,-1.55,5.89,5.89,5.89
108.56,7.29,1.42,7.29,1.42,-1.41,-1.44,-1.55,5.88,5.88,5.88
109.64,7.28,1.42,7.28,1.42,-1.41,-1.42,-1.55,5.87,5.87,5.87
110.74,7.27,1.41,7.27,1.41,-1.41,-1.40,-1.55,5.86,5.86,5.85
111.85,7.25,1.41,7.25,1.41,-1.41,-1.38,-1.55,5.85,5.85,5.84
112.97,7.23,1.40,7.23,1.40,-1.40,-1.36,-1.55,5.83,5.84,5.83
114.10,7.21,1.38,7.21,1.38,-1.38,-1.34,-1.55,5.83,5.83,5.82
115.24,7.18,1.37,7.18,1.37,-1.37,-1.32,-1.55,5.82,5.82,5.81
116.39,7.15,1.35,7.15,1.35,-1.35,-1.30,-1.54,5.81,5.81,5.80
117.55,7.12,1.33,7.12,1.33,-1.33,-1.27,-1.54,5.80,5.79,5.79
118.73,7.09,1.30,7.09,1.30,-1.30,-1.25,-1.53,5.78,5.78,5.78
119.92,7.05,1.28,7.05,1.28,-1.28,-1.23,-1.52,5.77,5.77,5.77
121.12,7.01,1.25,7.01,1.25,-1.25,-1.21,-1.51,5.76,5.76,5.76
122.33,6.98,1.23,6.98,1.23,-1.23,-1.18,-1.50,5.74,5.74,5.75
123.55,6.94,1.21,6.94,1.20,-1.21,-1.16,-1.49,5.73,5.73,5.73
124.79,6.90,1.18,6.90,1.18,-1.18,-1.14,-1.47,5.72,5.72,5.72
126.03,6.87,1.16,6.87,1.16,-1.16,-1.11,-1.46,5.71,5.71,5.71
127.29,6.83,1.14,6.83,1.14,-1.14,-1.09,-1.44,5.69,5.69,5.69
128.57,6.80,1.12,6.80,1.12,-1.12,-1.07,-1.42,5.68,5.68,5.68
129.85,6.76,1.09,6.76,1.10,-1.09,-1.04,-1.39,5.67,5.67,5.67
131.15,6.72,1.07,6.72,1.07,-1.07,-1.02,-1.37,5.65,5.65,5.65
132.46,6.69,1.05,6.69,1.05,-1.05,-0.99,-1.34,5.64,5.64,5.64
133.79,6.65,1.02,6.65,1.02,-1.02,-0.97,-1.32,5.63,5.63,5.63
135.12,6.61,0.99,6.61,0.99,-0.99,-0.94,-1.29,5.61,5.62,5.62
136.48,6.57,0.97,6.57,0.97,-0.97,-0.92,-1.26,5.60,5.60,5.60
137.84,6.53,0.94,6.53,0.94,-0.94,-0.89,-1.22,5.59,5.59,5.59
139.22,6.49,0.91,6.49,0.91,-0.91,-0.87,-1.19,5.57,5.57,5.57
140.61,6.45,0.89,6.44,0.89,-0.88,-0.84,-1.15,5.56,5.56,5.56
142.02,6.40,0.86,6.40,0.86,-0.86,-0.81,-1.12,5.54,5.55,5.55
143.44,6.36,0.83,6.36,0.83,-0.83,-0.79,-1.08,5.53,5.53,5.53
144.87,6.32,0.80,6.31,0.80,-0.80,-0.76,-1.05,5.52,5.52,5.52
146.32,6.27,0.77,6.27,0.77,-0.77,-0.74,-1.01,5.50,5.50,5.50
147.78,6.23,0.74,6.23,0.74,-0.74,-0.71,-0.97,5.49,5.49,5.49
149.26,6.18,0.71,6.18,0.71,-0.71,-0.68,-0.93,5.47,5.47,5.47
150.75,6.14,0.68,6.14,0.68,-0.68,-0.66,-0.89,5.46,5.46,5.46
152.26,6.09,0.65,6.09,0.65,-0.65,-0.63,-0.85,5.44,5.44,5.44
153.78,6.05,0.62,6.05,0.62,-0.62,-0.60,-0.81,5.42,5.42,5.42
155.32,6.00,0.59,6.00,0.59,-0.59,-0.58,-0.77,5.41,5.41,5.41
156.88,5.95,0.56,5.95,0.56,-0.56,-0.55,-0.73,5.39,5.39,5.39
158.44,5.91,0.54,5.91,0.54,-0.54,-0.52,-0.69,5.37,5.37,5.37
160.03,5.87,0.51,5.87,0.51,-0.51,-0.50,-0.65,5.36,5.36,5.36
161.63,5.83,0.48,5.83,0.48,-0.49,-0.47,-0.61,5.34,5.34,5.34
163.24,5.78,0.46,5.79,0.46,-0.46,-0.44,-0.57,5.32,5.32,5.32
164.88,5.75,0.44,5.75,0.44,-0.44,-0.41,-0.53,5.31,5.31,5.31
166.53,5.70,0.41,5.70,0.41,-0.41,-0.39,-0.49,5.29,5.29,5.29
168.19,5.66,0.39,5.66,0.39,-0.39,-0.36,-0.45,5.28,5.28,5.28
169.87,5.62,0.36,5.62,0.36,-0.36,-0.33,-0.41,5.26,5.26,5.26
171.57,5.58,0.33,5.57,0.33,-0.33,-0.30,-0.37,5.24,5.24,5.24
173.29,5.53,0.31,5.53,0.31,-0.31,-0.28,-0.33,5.22,5.22,5.22
175.02,5.48,0.28,5.48,0.28,-0.28,-0.25,-0.29,5.20,5.20,5.20
176.77,5.43,0.25,5.43,0.25,-0.25,-0.22,-0.25,5.18,5.18,5.18
178.54,5.38,0.22,5.38,0.22,-0.22,-0.19,-0.21,5.17,5.17,5.16
180.32,5.34,0.19,5.34,0.19,-0.19,-0.17,-0.17,5.15,5.15,5.14
182.13,5.29,0.16,5.29,0.16,-0.16,-0.14,-0.13,5.13,5.13,5.13
183.95,5.24,0.13,5.24,0.13,-0.13,-0.11,-0.09,5.11,5.11,5.11
185.79,5.19,0.10,5.19,0.10,-0.10,-0.08,-0.05,5.09,5.09,5.09
187.65,5.14,0.06,5.14,0.06,-0.06,-0.06,-0.02,5.07,5.07,5.07
189.52,5.09,0.03,5.09,0.03,-0.03,-0.03,0.02,5.05,5.05,5.05
191.42,5.04,0.00,5.04,0.00,-0.00,0.00,0.06,5.03,5.03,5.04
193.33,4.99,-0.03,4.99,-0.03,0.03,0.03,0.10,5.01,5.01,5.01
195.27,4.94,-0.06,4.94,-0.06,0.05,0.06,0.13,4.99,4.99,4.99
197.22,4.89,-0.08,4.89,-0.08,0.08,0.08,0.17,4.97,4.97,4.97
199.19,4.84,-0.11,4.84,-0.11,0.11,0.11,0.21,4.95,4.95,4.95
201.18,4.79,-0.14,4.79,-0.14,0.14,0.14,0.24,4.93,4.93,4.93
203.19,4.74,-0.17,4.74,-0.17,0.17,0.17,0.28,4.91,4.91,4.91
205.23,4.68,-0.21,4.68,-0.21,0.21,0.20,0.32,4.89,4.89,4.89
207.28,4.63,-0.24,4.63,-0.24,0.24,0.22,0.35,4.87,4.87,4.87
209.35,4.57,-0.27,4.57,-0.27,0.27,0.25,0.39,4.85,4.85,4.85
211.44,4.52,-0.31,4.52,-0.31,0.31,0.28,0.42,4.82,4.82,4.82
213.56,4.46,-0.34,4.46,-0.34,0.34,0.31,0.46,4.80,4.80,4.80
215.69,4.40,-0.38,4.40,-0.38,0.37,0.33,0.49,4.78,4.78,4.78
217.85,4.35,-0.41,4.35,-0.41,0.41,0.36,0.52,4.76,4.76,4.76
220.03,4.29,-0.44,4.29,-0.44,0.44,0.39,0.55,4.73,4.73,4.73
222.23,4.24,-0.48,4.24,-0.48,0.47,0.42,0.59,4.71,4.71,4.71
224.45,4.18,-0.51,4.18,-0.51,0.51,0.45,0.62,4.69,4.69,4.69
226.70,4.12,-0.54,4.12,-0.54,0.54,0.47,0.65,4.66,4.66,4.66
228.96,4.06,-0.58,4.06,-0.58,0.58,0.50,0.67,4.64,4.64,4.64
231.25,4.01,-0.61,4.01,-0.61,0.61,0.53,0.70,4.62,4.62,4.62
233.57,3.95,-0.64,3.95,-0.65,0.65,0.56,0.73,4.59,4.59,4.59
235.90,3.88,-0.68,3.88,-0.68,0.68,0.58,0.75,4.57,4.57,4.57
238.26,3.82,-0.72,3.82,-0.72,0.72,0.61,0.78,4.54,4.55,4.54
240.64,3.76,-0.76,3.76,-0.76,0.77,0.64,0.80,4.52,4.52,4.52
243.05,3.69,-0.81,3.69,-0.81,0.81,0.67,0.82,4.50,4.50,4.49
245.48,3.62,-0.85,3.62,-0.85,0.85,0.69,0.84,4.47,4.47,4.47
247.93,3.55,-0.89,3.55,-0.89,0.90,0.72,0.86,4.45,4.45,4.45
250.41,3.48,-0.94,3.48,-0.94,0.94,0.75,0.88,4.42,4.42,4.42
252.92,3.41,-0.98,3.41,-0.98,0.99,0.77,0.90,4.40,4.40,4.39
255.45,3.35,-1.02,3.34,-1.02,1.02,0.80,0.91,4.37,4.37,4.37
258.00,3.28,-1.06,3.28,-1.06,1.05,0.83,0.93,4.33,4.34,4.34
260.58,3.23,-1.08,3.23,-1.08,1.07,0.85,0.94,4.30,4.30,4.31
263.19,3.19,-1.10,3.19,-1.10,1.08,0.88,0.95,4.27,4.27,4.29
265.82,3.16,-1.10,3.16,-1.10,1.08,0.91,0.96,4.24,4.24,4.26
268.48,3.15,-1.08,3.15,-1.08,1.07,0.93,0.97,4.22,4.22,4.23
271.16,3.14,-1.06,3.14,-1.06,1.06,0.96,0.98,4.20,4.20,4.20
273.87,3.14,-1.03,3.14,-1.03,1.04,0.99,0.99,4.18,4.18,4.18
276.61,3.14,-1.01,3.14,-1.01,1.02,1.01,1.00,4.16,4.16,4.15
279.38,3.13,-0.99,3.13,-0.99,1.00,1.04,1.01,4.13,4.13,4.12
282.17,3.11,-0.98,3.11,-0.98,0.99,1.06,1.01,4.10,4.10,4.09
284.99,3.08,-0.98,3.08,-0.98,0.99,1.09,1.02,4.07,4.07,4.06
287.84,3.04,-0.99,3.04,-0.99,1.00,1.11,1.03,4.03,4.04,4.03
290.72,2.99,-1.01,2.99,-1.01,1.01,1.14,1.03,4.00,4.00,4.00
293.63,2.94,-1.03,2.94,-1.03,1.03,1.16,1.04,3.97,3.97,3.97
296.57,2.88,-1.06,2.88,-1.06,1.05,1.19,1.04,3.94,3.94,3.94
299.53,2.83,-1.08,2.83,-1.08,1.08,1.21,1.05,3.91,3.91,3.91
302.53,2.77,-1.11,2.77,-1.11,1.11,1.23,1.06,3.88,3.88,3.88
305.55,2.71,-1.14,2.71,-1.14,1.14,1.26,1.06,3.85,3.85,3.85
308.61,2.65,-1.16,2.65,-1.16,1.16,1.28,1.07,3.82,3.82,3.82
311.69,2.60,-1.19,2.60,-1.19,1.19,1.30,1.08,3.79,3.79,3.79
314.81,2.54,-1.22,2.54,-1.22,1.22,1.32,1.09,3.75,3.75,3.75
317.96,2.48,-1.24,2.48,-1.24,1.24,1.35,1.10,3.72,3.72,3.72
321.14,2.42,-1.27,2.42,-1.27,1.27,1.37,1.11,3.69,3.69,3.69
324.35,2.36,-1.30,2.36,-1.30,1.30,1.39,1.12,3.66,3.66,3.66
327.59,2.31,-1.32,2.31,-1.32,1.32,1.41,1.13,3.63,3.63,3.63
330.87,2.25,-1.35,2.25,-1.35,1.35,1.43,1.14,3.60,3.60,3.60
334.18,2.19,-1.37,2.19,-1.37,1.37,1.45,1.15,3.56,3.56,3.56
337.52,2.13,-1.40,2.13,-1.40,1.40,1.47,1.17,3.53,3.53,3.53
340.90,2.08,-1.42,2.08,-1.42,1.42,1.49,1.18,3.50,3.50,3.50
344.30,2.02,-1.45,2.02,-1.45,1.45,1.51,1.20,3.47,3.47,3.47
347.75,1.96,-1.47,1.96,-1.47,1.47,1.52,1.21,3.44,3.44,3.44
351.23,1.91,-1.50,1.91,-1.50,1.50,1.54,1.23,3.41,3.41,3.41
354.74,1.85,-1.52,1.85,-1.52,1.52,1.56,1.25,3.37,3.37,3.38
358.28,1.80,-1.55,1.80,-1.55,1.55,1.57,1.27,3.34,3.34,3.34
361.87,1.74,-1.57,1.74,-1.57,1.57,1.59,1.29,3.31,3.31,3.31
365.49,1.69,-1.59,1.69,-1.59,1.59,1.61,1.31,3.28,3.28,3.28
369.14,1.64,-1.61,1.64,-1.61,1.61,1.62,1.33,3.25,3.25,3.25
372.83,1.58,-1.63,1.58,-1.63,1.63,1.63,1.36,3.21,3.21,3.21
376.56,1.53,-1.65,1.53,-1.65,1.65,1.65,1.38,3.18,3.18,3.18
380.33,1.48,-1.67,1.48,-1.67,1.67,1.66,1.41,3.14,3.14,3.15
384.13,1.42,-1.69,1.42,-1.69,1.69,1.67,1.44,3.11,3.11,3.11
387.97,1.37,-1.70,1.37,-1.70,1.70,1.69,1.46,3.07,3.07,3.07
391.85,1.32,-1.72,1.32,-1.72,1.72,1.70,1.49,3.04,3.04,3.04
395.77,1.27,-1.73,1.27,-1.73,1.73,1.71,1.52,3.00,3.00,3.00
399.73,1.21,-1.74,1.22,-1.74,1.74,1.72,1.55,2.96,2.96,2.96
403.72,1.16,-1.76,1.16,-1.76,1.76,1.73,1.58,2.92,2.92,2.92
407.76,1.11,-1.77,1.11,-1.77,1.77,1.74,1.61,2.88,2.88,2.88
411.84,1.06,-1.78,1.06,-1.78,1.78,1.74,1.64,2.84,2.84,2.84
415.96,1.01,-1.79,1.01,-1.79,1.79,1.75,1.67,2.80,2.80,2.80
420.12,0.96,-1.80,0.96,-1.80,1.80,1.76,1.70,2.76,2.76,2.76
424.32,0.91,-1.81,0.91,-1.81,1.81,1.76,1.73,2.72,2.72,2.72
428.56,0.86,-1.82,0.86,-1.82,1.82,1.77,1.76,2.68,2.68,2.68
432.85,0.81,-1.83,0.81,-1.83,1.83,1.78,1.79,2.64,2.64,2.64
437.18,0.76,-1.84,0.76,-1.84,1.84,1.78,1.82,2.60,2.60,2.60
441.55,0.71,-1.84,0.71,-1.84,1.84,1.79,1.85,2.55,2.55,2.55
445.96,0.66,-1.85,0.66,-1.85,1.85,1.79,1.88,2.51,2.51,2.51
450.42,0.61,-1.86,0.61,-1.86,1.86,1.79,1.91,2.47,2.47,2.47
454.93,0.56,-1.86,0.56,-1.86,1.86,1.79,1.94,2.42,2.43,2.43
459.48,0.51,-1.87,0.51,-1.87,1.87,1.80,1.96,2.38,2.38,2.38
464.07,0.47,-1.87,0.47,-1.87,1.87,1.80,1.98,2.34,2.34,2.34
468.71,0.42,-1.87,0.42,-1.87,1.87,1.80,2.00,2.29,2.29,2.29
473.40,0.37,-1.88,0.37,-1.88,1.88,1.80,2.02,2.25,2.25,2.25
478.13,0.33,-1.88,0.33,-1.88,1.88,1.80,2.04,2.21,2.20,2.20
482.91,0.28,-1.88,0.28,-1.88,1.88,1.80,2.06,2.16,2.16,2.16
487.74,0.24,-1.88,0.24,-1.88,1.88,1.80,2.07,2.11,2.11,2.11
492.62,0.19,-1.88,0.19,-1.88,1.88,1.80,2.08,2.07,2.07,2.07
497.55,0.15,-1.87,0.15,-1.88,1.87,1.80,2.09,2.02,2.02,2.02
502.52,0.11,-1.87,0.11,-1.87,1.87,1.79,2.10,1.98,1.98,1.98
507.55,0.06,-1.87,0.06,-1.87,1.87,1.79,2.10,1.93,1.93,1.93
512.62,0.02,-1.87,0.02,-1.87,1.87,1.79,2.11,1.89,1.89,1.88
517.75,-0.03,-1.86,-0.03,-1.86,1.86,1.79,2.11,1.84,1.84,1.84
522.93,-0.07,-1.86,-0.07,-1.86,1.86,1.79,2.11,1.79,1.79,1.79
528.16,-0.11,-1.86,-0.11,-1.86,1.86,1.78,2.10,1.74,1.74,1.74
533.44,-0.16,-1.85,-0.16,-1.85,1.85,1.78,2.10,1.69,1.69,1.69
538.77,-0.20,-1.85,-0.20,-1.85,1.84,1.78,2.09,1.64,1.65,1.65
544.16,-0.24,-1.84,-0.24,-1.84,1.84,1.77,2.08,1.60,1.60,1.60
549.60,-0.28,-1.83,-0.28,-1.83,1.83,1.77,2.07,1.55,1.55,1.55
555.10,-0.32,-1.82,-0.32,-1.82,1.82,1.76,2.06,1.50,1.50,1.50
