frequency,raw,error,smoothed,error_smoothed,equalization,parametric_eq,fixed_band_eq,equalized_raw,equalized_smoothed,target
20.00,2.85,-3.37,2.85,-3.37,3.32,-0.01,1.23,6.17,6.17,6.22
20.20,2.88,-3.33,2.88,-3.32,3.31,-0.01,1.27,6.19,6.19,6.21
20.40,2.91,-3.29,2.91,-3.28,3.30,-0.01,1.31,6.21,6.21,6.20
20.61,2.94,-3.25,2.93,-3.25,3.29,-0.01,1.35,6.22,6.22,6.18
20.81,2.96,-3.23,2.96,-3.23,3.27,-0.01,1.39,6.23,6.23,6.18
21.02,2.97,-3.22,2.97,-3.22,3.26,-0.01,1.43,6.23,6.23,6.19
21.23,2.99,-3.23,2.99,-3.23,3.24,-0.01,1.47,6.23,6.23,6.21
21.44,3.00,-3.24,3.00,-3.24,3.23,-0.01,1.52,6.23,6.23,6.23
21.66,3.01,-3.24,3.01,-3.24,3.22,-0.01,1.56,6.23,6.23,6.25
21.87,3.03,-3.24,3.03,-3.23,3.21,-0.01,1.61,6.24,6.24,6.26
22.09,3.04,-3.22,3.04,-3.21,3.19,-0.01,1.66,6.24,6.24,6.26
22.31,3.06,-3.18,3.06,-3.18,3.17,-0.01,1.71,6.23,6.23,6.25
22.54,3.08,-3.14,3.08,-3.14,3.14,-0.02,1.76,6.22,6.22,6.23
22.76,3.10,-3.10,3.10,-3.10,3.11,-0.02,1.81,6.21,6.21,6.20
22.99,3.12,-3.06,3.12,-3.06,3.07,-0.02,1.86,6.20,6.20,6.18
23.22,3.14,-3.03,3.14,-3.03,3.04,-0.02,1.92,6.18,6.18,6.16
23.45,3.15,-3.01,3.15,-3.01,3.02,-0.02,1.97,6.16,6.16,6.15
23.69,3.15,-2.99,3.15,-2.99,3.00,-0.02,2.03,6.15,6.15,6.15
23.92,3.16,-2.98,3.16,-2.98,2.98,-0.02,2.09,6.14,6.14,6.14
24.16,3.17,-2.97,3.17,-2.97,2.97,-0.02,2.14,6.14,6.14,6.14
24.40,3.17,-2.97,3.17,-2.97,2.97,-0.02,2.20,6.14,6.14,6.14
24.65,3.18,-2.96,3.18,-2.96,2.96,-0.02,2.26,6.14,6.14,6.14
24.89,3.18,-2.95,3.18,-2.95,2.95,-0.02,2.33,6.14,6.14,6.14
25.14,3.19,-2.94,3.19,-2.95,2.94,-0.02,2.39,6.13,6.13,6.14
25.39,3.20,-2.93,3.20,-2.93,2.93,-0.02,2.45,6.13,6.13,6.13
25.65,3.21,-2.92,3.21,-2.92,2.91,-0.02,2.51,6.11,6.11,6.12
25.91,3.21,-2.90,3.21,-2.90,2.89,-0.02,2.57,6.10,6.10,6.11
26.16,3.22,-2.87,3.22,-2.87,2.86,-0.02,2.63,6.08,6.08,6.09
26.43,3.23,-2.83,3.23,-2.83,2.83,-0.02,2.69,6.06,6.06,6.06
26.69,3.23,-2.80,3.23,-2.80,2.80,-0.02,2.75,6.03,6.03,6.03
26.96,3.24,-2.76,3.24,-2.76,2.77,-0.02,2.81,6.02,6.02,6.00
27.23,3.25,-2.73,3.25,-2.74,2.75,-0.02,2.87,6.00,6.00,5.98
27.50,3.25,-2.72,3.25,-2.72,2.73,-0.02,2.92,5.99,5.99,5.97
27.77,3.26,-2.71,3.26,-2.71,2.72,-0.02,2.98,5.98,5.98,5.97
28.05,3.26,-2.71,3.26,-2.71,2.71,-0.02,3.03,5.97,5.97,5.97
28.33,3.26,-2.71,3.26,-2.71,2.70,-0.02,3.07,5.96,5.96,5.97
28.62,3.25,-2.71,3.25,-2.70,2.69,-0.02,3.12,5.95,5.95,5.96
28.90,3.25,-2.70,3.25,-2.69,2.68,-0.03,3.16,5.93,5.93,5.95
29.19,3.25,-2.68,3.25,-2.68,2.67,-0.03,3.20,5.92,5.92,5.93
29.48,3.25,-2.66,3.25,-2.66,2.65,-0.03,3.23,5.90,5.90,5.90
29.78,3.25,-2.63,3.25,-2.63,2.63,-0.03,3.26,5.89,5.88,5.88
30.08,3.26,-2.60,3.26,-2.60,2.61,-0.03,3.28,5.87,5.87,5.86
30.38,3.27,-2.58,3.27,-2.58,2.59,-0.03,3.30,5.86,5.86,5.85
30.68,3.28,-2.56,3.28,-2.56,2.57,-0.03,3.31,5.85,5.85,5.84
30.99,3.29,-2.54,3.29,-2.54,2.55,-0.03,3.32,5.84,5.84,5.83
31.30,3.30,-2.53,3.30,-2.53,2.53,-0.03,3.32,5.83,5.83,5.83
31.61,3.31,-2.51,3.31,-2.51,2.51,-0.03,3.32,5.81,5.81,5.82
31.93,3.31,-2.49,3.31,-2.49,2.48,-0.03,3.31,5.79,5.79,5.80
32.24,3.31,-2.47,3.31,-2.47,2.46,-0.03,3.30,5.77,5.77,5.78
32.57,3.32,-2.44,3.32,-2.44,2.44,-0.03,3.28,5.76,5.76,5.76
32.89,3.32,-2.41,3.32,-2.41,2.41,-0.03,3.26,5.74,5.74,5.74
33.22,3.33,-2.38,3.33,-2.38,2.39,-0.03,3.23,5.72,5.72,5.72
33.55,3.34,-2.36,3.34,-2.36,2.37,-0.03,3.20,5.71,5.71,5.70
33.89,3.35,-2.34,3.35,-2.34,2.34,-0.03,3.16,5.69,5.69,5.68
34.23,3.35,-2.32,3.35,-2.32,2.32,-0.04,3.12,5.67,5.67,5.67
34.57,3.35,-2.31,3.35,-2.31,2.31,-0.04,3.08,5.65,5.65,5.66
34.92,3.34,-2.30,3.34,-2.29,2.29,-0.04,3.04,5.63,5.63,5.64
35.27,3.34,-2.28,3.34,-2.28,2.28,-0.04,2.99,5.62,5.62,5.62
35.62,3.34,-2.26,3.34,-2.26,2.26,-0.04,2.94,5.60,5.60,5.60
35.97,3.34,-2.24,3.34,-2.24,2.25,-0.04,2.88,5.59,5.59,5.58
36.33,3.34,-2.23,3.34,-2.23,2.23,-0.04,2.83,5.57,5.57,5.57
36.70,3.34,-2.22,3.34,-2.22,2.22,-0.04,2.77,5.55,5.55,5.55
37.06,3.34,-2.21,3.34,-2.20,2.20,-0.04,2.71,5.53,5.53,5.54
37.43,3.34,-2.19,3.34,-2.19,2.18,-0.04,2.65,5.51,5.51,5.52
37.81,3.34,-2.16,3.34,-2.16,2.15,-0.04,2.60,5.49,5.49,5.50
38.19,3.34,-2.13,3.34,-2.13,2.13,-0.04,2.54,5.47,5.47,5.47
38.57,3.34,-2.10,3.34,-2.10,2.11,-0.05,2.48,5.44,5.44,5.44
38.95,3.34,-2.07,3.34,-2.07,2.08,-0.05,2.42,5.42,5.42,5.41
39.34,3.34,-2.05,3.34,-2.05,2.06,-0.05,2.36,5.40,5.40,5.39
39.74,3.33,-2.03,3.33,-2.03,2.04,-0.05,2.30,5.37,5.37,5.37
40.14,3.33,-2.02,3.33,-2.02,2.02,-0.05,2.25,5.35,5.35,5.35
40.54,3.33,-2.01,3.33,-2.01,2.00,-0.05,2.19,5.33,5.33,5.34
40.94,3.33,-1.99,3.33,-1.99,1.98,-0.05,2.14,5.31,5.31,5.32
41.35,3.33,-1.97,3.33,-1.97,1.97,-0.05,2.08,5.30,5.30,5.30
41.76,3.33,-1.95,3.33,-1.95,1.95,-0.05,2.03,5.28,5.28,5.28
42.18,3.33,-1.93,3.33,-1.93,1.93,-0.05,1.98,5.26,5.26,5.26
42.60,3.33,-1.90,3.33,-1.90,1.90,-0.06,1.93,5.24,5.24,5.23
43.03,3.33,-1.88,3.33,-1.88,1.88,-0.06,1.88,5.21,5.21,5.21
43.46,3.33,-1.85,3.33,-1.85,1.86,-0.06,1.83,5.19,5.19,5.19
43.90,3.33,-1.83,3.33,-1.83,1.83,-0.06,1.78,5.16,5.16,5.16
44.33,3.33,-1.81,3.33,-1.81,1.81,-0.06,1.74,5.14,5.14,5.14
44.78,3.33,-1.79,3.33,-1.79,1.79,-0.06,1.69,5.12,5.12,5.12
45.23,3.32,-1.77,3.32,-1.77,1.76,-0.06,1.65,5.09,5.09,5.09
45.68,3.32,-1.74,3.32,-1.74,1.74,-0.06,1.61,5.06,5.06,5.06
46.13,3.32,-1.72,3.32,-1.72,1.72,-0.07,1.57,5.04,5.04,5.04
46.60,3.31,-1.70,3.31,-1.70,1.70,-0.07,1.53,5.01,5.01,5.01
47.06,3.31,-1.67,3.31,-1.67,1.67,-0.07,1.50,4.98,4.98,4.98
47.53,3.31,-1.65,3.31,-1.65,1.65,-0.07,1.46,4.95,4.95,4.95
48.01,3.30,-1.62,3.30,-1.62,1.62,-0.07,1.43,4.93,4.93,4.93
48.49,3.30,-1.60,3.30,-1.60,1.60,-0.07,1.39,4.90,4.90,4.90
48.97,3.30,-1.57,3.30,-1.57,1.57,-0.07,1.36,4.87,4.87,4.87
49.46,3.30,-1.55,3.30,-1.55,1.55,-0.08,1.33,4.85,4.85,4.85
49.96,3.30,-1.52,3.30,-1.52,1.52,-0.08,1.30,4.82,4.82,4.82
50.46,3.30,-1.50,3.30,-1.50,1.50,-0.08,1.27,4.80,4.80,4.79
50.96,3.30,-1.47,3.30,-1.47,1.48,-0.08,1.24,4.77,4.77,4.77
51.47,3.29,-1.45,3.29,-1.45,1.46,-0.08,1.22,4.75,4.75,4.75
51.99,3.29,-1.43,3.29,-1.43,1.43,-0.08,1.19,4.72,4.72,4.72
52.51,3.28,-1.42,3.28,-1.41,1.41,-0.08,1.17,4.70,4.70,4.70
53.03,3.28,-1.39,3.28,-1.39,1.39,-0.09,1.14,4.67,4.67,4.67
53.56,3.28,-1.37,3.28,-1.37,1.37,-0.09,1.12,4.64,4.64,4.64
54.10,3.27,-1.34,3.27,-1.34,1.34,-0.09,1.10,4.61,4.61,4.61
54.64,3.27,-1.32,3.27,-1.32,1.32,-0.09,1.07,4.59,4.59,4.59
55.18,3.26,-1.29,3.26,-1.29,1.29,-0.09,1.05,4.56,4.56,4.56
55.74,3.26,-1.26,3.26,-1.26,1.27,-0.10,1.03,4.53,4.53,4.52
56.29,3.26,-1.24,3.26,-1.24,1.24,-0.10,1.01,4.50,4.50,4.49
56.86,3.25,-1.21,3.25,-1.21,1.22,-0.10,0.99,4.47,4.47,4.47
57.42,3.25,-1.19,3.24,-1.19,1.19,-0.10,0.96,4.44,4.44,4.44
58.00,3.24,-1.17,3.24,-1.17,1.16,-0.10,0.94,4.40,4.40,4.41
58.58,3.23,-1.14,3.23,-1.14,1.13,-0.11,0.92,4.36,4.36,4.37
59.16,3.22,-1.11,3.22,-1.11,1.10,-0.11,0.90,4.32,4.32,4.33
59.76,3.21,-1.08,3.21,-1.08,1.07,-0.11,0.88,4.28,4.28,4.29
60.35,3.21,-1.04,3.21,-1.04,1.04,-0.11,0.86,4.25,4.25,4.25
60.96,3.20,-1.00,3.20,-1.00,1.01,-0.12,0.84,4.21,4.21,4.20
61.57,3.20,-0.97,3.20,-0.97,0.98,-0.12,0.82,4.18,4.18,4.16
62.18,3.19,-0.94,3.19,-0.94,0.96,-0.12,0.80,4.15,4.15,4.13
62.80,3.19,-0.93,3.19,-0.93,0.94,-0.12,0.77,4.12,4.12,4.12
63.43,3.18,-0.92,3.18,-0.92,0.91,-0.13,0.75,4.09,4.09,4.10
64.07,3.17,-0.91,3.17,-0.91,0.89,-0.13,0.73,4.07,4.07,4.08
64.71,3.17,-0.89,3.17,-0.89,0.87,-0.13,0.70,4.04,4.04,4.06
65.35,3.16,-0.86,3.16,-0.86,0.85,-0.13,0.68,4.01,4.01,4.02
66.01,3.15,-0.83,3.15,-0.83,0.83,-0.14,0.66,3.98,3.98,3.97
66.67,3.14,-0.79,3.14,-0.79,0.80,-0.14,0.63,3.94,3.94,3.93
67.33,3.13,-0.76,3.13,-0.76,0.78,-0.14,0.61,3.91,3.91,3.89
68.01,3.12,-0.74,3.12,-0.74,0.75,-0.15,0.58,3.87,3.87,3.87
68.69,3.12,-0.73,3.12,-0.72,0.72,-0.15,0.56,3.83,3.83,3.84
69.37,3.11,-0.70,3.11,-0.70,0.68,-0.15,0.53,3.79,3.79,3.81
70.07,3.10,-0.67,3.10,-0.67,0.65,-0.16,0.51,3.76,3.76,3.77
70.77,3.09,-0.62,3.09,-0.62,0.62,-0.16,0.48,3.72,3.72,3.72
71.48,3.09,-0.58,3.09,-0.58,0.59,-0.16,0.46,3.68,3.68,3.67
72.19,3.08,-0.55,3.08,-0.55,0.56,-0.17,0.43,3.64,3.64,3.62
72.91,3.07,-0.53,3.07,-0.52,0.53,-0.17,0.40,3.60,3.60,3.59
73.64,3.06,-0.50,3.06,-0.50,0.50,-0.17,0.38,3.56,3.56,3.56
74.38,3.05,-0.48,3.05,-0.48,0.47,-0.18,0.35,3.52,3.52,3.53
75.12,3.04,-0.45,3.04,-0.45,0.45,-0.18,0.32,3.49,3.49,3.49
75.87,3.03,-0.42,3.03,-0.42,0.42,-0.18,0.30,3.45,3.45,3.45
76.63,3.02,-0.40,3.02,-0.40,0.39,-0.19,0.27,3.41,3.41,3.41
77.40,3.00,-0.37,3.01,-0.37,0.37,-0.19,0.24,3.37,3.37,3.38
78.17,2.99,-0.34,2.99,-0.34,0.34,-0.20,0.21,3.33,3.33,3.33
78.95,2.98,-0.31,2.98,-0.31,0.31,-0.20,0.19,3.29,3.29,3.29
79.74,2.97,-0.27,2.97,-0.27,0.28,-0.20,0.16,3.25,3.25,3.24
80.54,2.96,-0.24,2.96,-0.24,0.25,-0.21,0.13,3.21,3.21,3.21
81.35,2.95,-0.22,2.95,-0.22,0.22,-0.21,0.10,3.17,3.17,3.17
82.16,2.94,-0.19,2.94,-0.19,0.19,-0.22,0.08,3.13,3.13,3.13
82.98,2.93,-0.16,2.93,-0.16,0.16,-0.22,0.05,3.09,3.09,3.09
83.81,2.91,-0.13,2.91,-0.13,0.13,-0.23,0.02,3.05,3.05,3.05
84.65,2.90,-0.10,2.90,-0.10,0.11,-0.23,-0.01,3.01,3.01,3.00
85.50,2.88,-0.08,2.88,-0.08,0.08,-0.24,-0.04,2.96,2.96,2.96
86.35,2.87,-0.05,2.87,-0.05,0.05,-0.24,-0.06,2.92,2.92,2.92
87.22,2.85,-0.03,2.85,-0.03,0.03,-0.25,-0.09,2.88,2.88,2.88
88.09,2.84,-0.00,2.84,-0.00,0.00,-0.25,-0.12,2.84,2.84,2.84
88.97,2.82,0.02,2.82,0.02,-0.03,-0.26,-0.15,2.79,2.79,2.80
89.86,2.80,0.05,2.80,0.05,-0.06,-0.26,-0.18,2.75,2.75,2.75
90.76,2.79,0.08,2.79,0.08,-0.09,-0.27,-0.21,2.70,2.70,2.71
91.66,2.78,0.11,2.78,0.11,-0.12,-0.28,-0.24,2.66,2.66,2.66
92.58,2.77,0.15,2.77,0.15,-0.15,-0.28,-0.26,2.62,2.62,2.62
93.51,2.76,0.19,2.76,0.19,-0.18,-0.29,-0.29,2.58,2.58,2.58
94.44,2.75,0.22,2.75,0.22,-0.21,-0.29,-0.32,2.54,2.54,2.53
95.39,2.74,0.25,2.74,0.25,-0.24,-0.30,-0.35,2.50,2.50,2.49
96.34,2.72,0.28,2.72,0.27,-0.27,-0.31,-0.38,2.45,2.45,2.44
97.30,2.70,0.30,2.70,0.30,-0.30,-0.31,-0.41,2.40,2.40,2.40
98.28,2.68,0.32,2.68,0.32,-0.32,-0.32,-0.44,2.35,2.35,2.36
99.26,2.65,0.34,2.65,0.35,-0.35,-0.33,-0.47,2.30,2.30,2.31
100.25,2.64,0.37,2.64,0.37,-0.38,-0.34,-0.50,2.26,2.26,2.26
101.25,2.62,0.41,2.62,0.41,-0.41,-0.34,-0.53,2.21,2.21,2.22
102.27,2.61,0.44,2.61,0.44,-0.44,-0.35,-0.56,2.17,2.17,2.17
103.29,2.60,0.47,2.60,0.47,-0.47,-0.36,-0.59,2.13,2.13,2.13
104.32,2.59,0.51,2.59,0.51,-0.50,-0.37,-0.62,2.09,2.09,2.09
105.37,2.58,0.54,2.58,0.54,-0.54,-0.37,-0.65,2.04,2.04,2.04
106.42,2.56,0.57,2.56,0.57,-0.57,-0.38,-0.68,1.99,1.99,1.99
107.48,2.54,0.60,2.54,0.60,-0.60,-0.39,-0.70,1.95,1.94,1.94
108.56,2.52,0.62,2.52,0.62,-0.62,-0.40,-0.73,1.90,1.90,1.90
109.64,2.50,0.65,2.50,0.65,-0.65,-0.41,-0.76,1.85,1.85,1.85
110.74,2.48,0.67,2.48,0.67,-0.67,-0.42,-0.79,1.80,1.80,1.80
111.85,2.46,0.70,2.46,0.70,-0.70,-0.43,-0.81,1.76,1.76,1.76
112.97,2.44,0.72,2.44,0.72,-0.72,-0.44,-0.84,1.72,1.72,1.72
114.10,2.42,0.75,2.42,0.75,-0.75,-0.45,-0.86,1.68,1.68,1.67
115.24,2.40,0.77,2.40,0.77,-0.77,-0.46,-0.89,1.63,1.63,1.63
116.39,2.39,0.79,2.39,0.80,-0.80,-0.47,-0.91,1.59,1.59,1.59
117.55,2.37,0.82,2.37,0.82,-0.82,-0.48,-0.93,1.55,1.55,1.55
118.73,2.35,0.85,2.35,0.85,-0.85,-0.49,-0.95,1.50,1.50,1.50
119.92,2.33,0.87,2.33,0.87,-0.87,-0.50,-0.97,1.45,1.45,1.45
121.12,2.31,0.90,2.31,0.90,-0.90,-0.51,-0.99,1.41,1.41,1.41
122.33,2.28,0.92,2.29,0.92,-0.92,-0.52,-1.01,1.36,1.36,1.36
123.55,2.26,0.95,2.26,0.95,-0.95,-0.53,-1.02,1.32,1.32,1.32
124.79,2.24,0.97,2.24,0.97,-0.97,-0.55,-1.04,1.27,1.27,1.27
126.03,2.22,0.99,2.22,0.99,-0.99,-0.56,-1.05,1.23,1.23,1.23
127.29,2.20,1.02,2.20,1.02,-1.02,-0.57,-1.06,1.18,1.18,1.18
128.57,2.17,1.04,2.17,1.04,-1.04,-0.59,-1.08,1.13,1.13,1.13
129.85,2.15,1.07,2.15,1.07,-1.07,-0.60,-1.09,1.09,1.09,1.09
131.15,2.13,1.09,2.13,1.09,-1.09,-0.61,-1.10,1.04,1.04,1.04
132.46,2.10,1.11,2.10,1.11,-1.11,-0.63,-1.10,0.99,0.99,0.99
133.79,2.08,1.14,2.08,1.14,-1.14,-0.64,-1.11,0.94,0.94,0.94
135.12,2.05,1.16,2.05,1.16,-1.16,-0.65,-1.12,0.89,0.89,0.89
136.48,2.02,1.19,2.03,1.19,-1.19,-0.67,-1.13,0.84,0.84,0.84
137.84,2.00,1.21,2.00,1.21,-1.21,-0.69,-1.13,0.79,0.79,0.79
139.22,1.98,1.24,1.98,1.24,-1.24,-0.70,-1.14,0.74,0.74,0.74
140.61,1.95,1.26,1.95,1.26,-1.26,-0.72,-1.14,0.69,0.69,0.69
142.02,1.93,1.29,1.93,1.29,-1.29,-0.73,-1.14,0.64,0.64,0.64
143.44,1.90,1.31,1.90,1.31,-1.31,-0.75,-1.15,0.59,0.59,0.59
144.87,1.88,1.33,1.88,1.33,-1.34,-0.77,-1.15,0.54,0.54,0.54
146.32,1.85,1.36,1.85,1.36,-1.36,-0.78,-1.15,0.49,0.49,0.50
147.78,1.83,1.38,1.83,1.38,-1.39,-0.80,-1.16,0.44,0.44,0.45
149.26,1.80,1.41,1.80,1.41,-1.41,-0.82,-1.16,0.39,0.39,0.40
150.75,1.78,1.43,1.78,1.43,-1.43,-0.84,-1.17,0.35,0.35,0.35
152.26,1.75,1.45,1.75,1.45,-1.45,-0.86,-1.17,0.31,0.31,0.30
153.78,1.73,1.47,1.73,1.47,-1.46,-0.88,-1.18,0.27,0.27,0.26
155.32,1.70,1.48,1.70,1.47,-1.47,-0.90,-1.18,0.23,0.23,0.22
156.88,1.67,1.47,1.67,1.47,-1.47,-0.92,-1.19,0.21,0.21,0.20
158.44,1.65,1.47,1.65,1.47,-1.47,-0.94,-1.20,0.18,0.18,0.18
160.03,1.62,1.46,1.62,1.46,-1.46,-0.96,-1.20,0.16,0.16,0.15
161.63,1.59,1.45,1.59,1.45,-1.45,-0.98,-1.21,0.14,0.14,0.14
163.24,1.56,1.43,1.56,1.43,-1.44,-1.00,-1.22,0.12,0.12,0.12
164.88,1.53,1.42,1.53,1.42,-1.43,-1.02,-1.23,0.09,0.09,0.11
166.53,1.50,1.42,1.50,1.42,-1.42,-1.04,-1.24,0.07,0.07,0.08
168.19,1.47,1.42,1.47,1.41,-1.42,-1.07,-1.25,0.05,0.05,0.05
169.87,1.43,1.41,1.43,1.41,-1.41,-1.09,-1.27,0.03,0.02,0.03
171.57,1.40,1.41,1.40,1.41,-1.40,-1.11,-1.28,-0.01,-0.01,-0.01
173.29,1.36,1.41,1.36,1.41,-1.40,-1.14,-1.30,-0.04,-0.04,-0.05
175.02,1.32,1.41,1.32,1.40,-1.40,-1.16,-1.31,-0.08,-0.08,-0.09
176.77,1.27,1.40,1.27,1.40,-1.40,-1.19,-1.33,-0.12,-0.12,-0.12
178.54,1.23,1.39,1.23,1.39,-1.40,-1.21,-1.35,-0.17,-0.17,-0.16
180.32,1.19,1.38,1.19,1.39,-1.40,-1.24,-1.37,-0.21,-0.21,-0.19
182.13,1.16,1.40,1.16,1.40,-1.40,-1.26,-1.39,-0.24,-0.24,-0.24
183.95,1.13,1.41,1.13,1.41,-1.41,-1.29,-1.41,-0.28,-0.28,-0.29
185.79,1.09,1.42,1.09,1.42,-1.41,-1.31,-1.43,-0.32,-0.32,-0.33
187.65,1.05,1.42,1.05,1.42,-1.42,-1.34,-1.46,-0.37,-0.37,-0.37
189.52,1.01,1.43,1.01,1.43,-1.42,-1.36,-1.48,-0.41,-0.41,-0.42
191.42,0.97,1.43,0.97,1.43,-1.43,-1.39,-1.51,-0.46,-0.46,-0.46
193.33,0.93,1.43,0.93,1.43,-1.43,-1.42,-1.53,-0.50,-0.50,-0.50
195.27,0.90,1.44,0.90,1.44,-1.44,-1.44,-1.56,-0.54,-0.54,-0.54
197.22,0.86,1.45,0.86,1.45,-1.45,-1.47,-1.59,-0.58,-0.58,-0.58
199.19,0.83,1.46,0.83,1.46,-1.45,-1.50,-1.62,-0.62,-0.62,-0.63
201.18,0.80,1.47,0.80,1.47,-1.47,-1.52,-1.64,-0.66,-0.66,-0.66
203.19,0.78,1.48,0.78,1.48,-1.48,-1.55,-1.67,-0.71,-0.71,-0.70
205.23,0.76,1.50,0.76,1.50,-1.51,-1.58,-1.70,-0.75,-0.75,-0.74
207.28,0.74,1.53,0.74,1.52,-1.54,-1.60,-1.73,-0.79,-0.79,-0.78
209.35,0.73,1.56,0.74,1.56,-1.57,-1.63,-1.76,-0.84,-0.83,-0.82
211.44,0.74,1.60,0.74,1.60,-1.61,-1.65,-1.79,-0.87,-0.87,-0.86
213.56,0.75,1.65,0.75,1.65,-1.65,-1.68,-1.82,-0.90,-0.90,-0.90
215.69,0.76,1.70,0.76,1.70,-1.69,-1.70,-1.85,-0.93,-0.93,-0.94
217.85,0.77,1.74,0.76,1.74,-1.73,-1.73,-1.88,-0.96,-0.97,-0.98
220.03,0.77,1.78,0.76,1.78,-1.77,-1.75,-1.91,-1.00,-1.00,-1.02
222.23,0.75,1.80,0.75,1.81,-1.79,-1.78,-1.94,-1.04,-1.04,-1.05
224.45,0.73,1.82,0.73,1.82,-1.82,-1.80,-1.96,-1.08,-1.08,-1.09
226.70,0.71,1.84,0.71,1.84,-1.84,-1.82,-1.99,-1.13,-1.13,-1.13
228.96,0.68,1.84,0.68,1.84,-1.85,-1.84,-2.01,-1.17,-1.17,-1.16
231.25,0.65,1.85,0.65,1.85,-1.86,-1.86,-2.03,-1.20,-1.20,-1.20
233.57,0.62,1.86,0.62,1.86,-1.86,-1.88,-2.05,-1.24,-1.24,-1.23
235.90,0.60,1.87,0.60,1.86,-1.87,-1.90,-2.07,-1.27,-1.27,-1.27
238.26,0.57,1.87,0.57,1.87,-1.87,-1.92,-2.08,-1.30,-1.30,-1.30
240.64,0.54,1.88,0.54,1.88,-1.87,-1.93,-2.10,-1.34,-1.34,-1.34
243.05,0.51,1.88,0.51,1.88,-1.88,-1.95,-2.11,-1.37,-1.37,-1.37
245.48,0.47,1.87,0.47,1.88,-1.88,-1.96,-2.11,-1.40,-1.40,-1.40
247.93,0.44,1.87,0.44,1.88,-1.88,-1.98,-2.12,-1.44,-1.44,-1.43
250.41,0.41,1.88,0.41,1.88,-1.88,-1.99,-2.12,-1.47,-1.47,-1.47
252.92,0.38,1.88,0.38,1.88,-1.88,-2.00,-2.12,-1.50,-1.50,-1.50
255.45,0.35,1.88,0.35,1.88,-1.88,-2.00,-2.12,-1.53,-1.53,-1.53
258.00,0.31,1.87,0.31,1.87,-1.87,-2.01,-2.12,-1.56,-1.56,-1.56
260.58,0.28,1.87,0.28,1.87,-1.87,-2.02,-2.11,-1.59,-1.59,-1.59
263.19,0.25,1.87,0.25,1.87,-1.87,-2.02,-2.10,-1.62,-1.62,-1.62
265.82,0.21,1.87,0.21,1.87,-1.87,-2.02,-2.09,-1.65,-1.65,-1.66
268.48,0.18,1.86,0.18,1.86,-1.87,-2.02,-2.08,-1.68,-1.68,-1.68
271.16,0.15,1.86,0.15,1.86,-1.86,-2.02,-2.06,-1.71,-1.71,-1.71
273.87,0.12,1.86,0.12,1.86,-1.86,-2.02,-2.04,-1.74,-1.74,-1.74
276.61,0.09,1.86,0.09,1.86,-1.86,-2.02,-2.03,-1.76,-1.76,-1.77
279.38,0.06,1.86,0.06,1.85,-1.85,-2.01,-2.01,-1.79,-1.79,-1.79
282.17,0.03,1.85,0.03,1.85,-1.84,-2.01,-1.98,-1.81,-1.81,-1.82
284.99,-0.01,1.84,-0.01,1.84,-1.83,-2.00,-1.96,-1.84,-1.84,-1.85
287.84,-0.04,1.82,-0.04,1.82,-1.82,-1.99,-1.94,-1.87,-1.87,-1.87
290.72,-0.08,1.81,-0.08,1.81,-1.81,-1.98,-1.91,-1.89,-1.89,-1.89
293.63,-0.11,1.80,-0.11,1.80,-1.80,-1.96,-1.89,-1.92,-1.91,-1.91
296.57,-0.14,1.79,-0.14,1.79,-1.79,-1.95,-1.87,-1.94,-1.94,-1.93
299.53,-0.17,1.78,-0.17,1.78,-1.78,-1.94,-1.84,-1.96,-1.96,-1.96
302.53,-0.20,1.77,-0.20,1.77,-1.77,-1.92,-1.82,-1.97,-1.97,-1.97
305.55,-0.23,1.76,-0.23,1.76,-1.76,-1.90,-1.79,-1.99,-1.99,-1.99
308.61,-0.25,1.75,-0.25,1.75,-1.75,-1.88,-1.77,-2.01,-2.01,-2.01
311.69,-0.28,1.74,-0.28,1.75,-1.75,-1.86,-1.75,-2.02,-2.02,-2.02
314.81,-0.30,1.74,-0.30,1.74,-1.74,-1.84,-1.72,-2.04,-2.04,-2.04
317.96,-0.33,1.73,-0.33,1.73,-1.73,-1.82,-1.70,-2.06,-2.06,-2.06
321.14,-0.36,1.72,-0.36,1.72,-1.72,-1.80,-1.68,-2.08,-2.08,-2.08
324.35,-0.39,1.71,-0.39,1.71,-1.71,-1.78,-1.66,-2.09,-2.09,-2.09
327.59,-0.42,1.70,-0.42,1.70,-1.70,-1.75,-1.64,-2.11,-2.11,-2.11
330.87,-0.45,1.69,-0.45,1.68,-1.68,-1.73,-1.62,-2.13,-2.13,-2.13
334.18,-0.48,1.67,-0.48,1.67,-1.67,-1.70,-1.60,-2.15,-2.15,-2.15
337.52,-0.50,1.66,-0.50,1.66,-1.66,-1.68,-1.59,-2.16,-2.16,-2.16
340.90,-0.53,1.64,-0.53,1.64,-1.64,-1.65,-1.57,-2.18,-2.18,-2.17
344.30,-0.56,1.63,-0.56,1.63,-1.63,-1.63,-1.56,-2.19,-2.19,-2.19
347.75,-0.59,1.62,-0.59,1.61,-1.61,-1.60,-1.55,-2.21,-2.21,-2.21
351.23,-0.62,1.60,-0.62,1.60,-1.60,-1.57,-1.53,-2.22,-2.22,-2.22
354.74,-0.65,1.58,-0.65,1.58,-1.58,-1.55,-1.52,-2.24,-2.24,-2.23
358.28,-0.68,1.57,-0.68,1.57,-1.57,-1.52,-1.51,-2.25,-2.25,-2.25
361.87,-0.71,1.55,-0.71,1.55,-1.55,-1.49,-1.51,-2.26,-2.26,-2.26
365.49,-0.73,1.54,-0.73,1.54,-1.54,-1.47,-1.50,-2.27,-2.27,-2.27
369.14,-0.76,1.53,-0.76,1.53,-1.52,-1.44,-1.49,-2.28,-2.28,-2.29
372.83,-0.79,1.51,-0.79,1.51,-1.51,-1.41,-1.49,-2.29,-2.29,-2.30
376.56,-0.81,1.49,-0.81,1.49,-1.49,-1.39,-1.49,-2.31,-2.31,-2.31
380.33,-0.84,1.48,-0.84,1.48,-1.48,-1.36,-1.48,-2.32,-2.32,-2.32
384.13,-0.87,1.46,-0.87,1.46,-1.46,-1.33,-1.48,-2.33,-2.33,-2.33
387.97,-0.89,1.45,-0.89,1.45,-1.44,-1.31,-1.48,-2.34,-2.34,-2.34
391.85,-0.92,1.43,-0.92,1.43,-1.43,-1.28,-1.48,-2.35,-2.35,-2.35
395.77,-0.95,1.41,-0.95,1.41,-1.41,-1.25,-1.49,-2.35,-2.35,-2.36
399.73,-0.97,1.39,-0.97,1.39,-1.39,-1.23,-1.49,-2.36,-2.36,-2.36
403.72,-1.00,1.37,-1.00,1.37,-1.37,-1.20,-1.49,-2.37,-2.37,-2.37
407.76,-1.02,1.35,-1.02,1.35,-1.35,-1.18,-1.49,-2.38,-2.38,-2.37
411.84,-1.05,1.34,-1.05,1.34,-1.34,-1.15,-1.50,-2.38,-2.38,-2.38
415.96,-1.07,1.32,-1.07,1.32,-1.32,-1.13,-1.50,-2.39,-2.39,-2.39
420.12,-1.10,1.30,-1.10,1.30,-1.30,-1.11,-1.51,-2.40,-2.40,-2.40
424.32,-1.12,1.28,-1.12,1.28,-1.28,-1.08,-1.51,-2.40,-2.40,-2.41
428.56,-1.15,1.26,-1.15,1.26,-1.26,-1.06,-1.51,-2.41,-2.41,-2.41
432.85,-1.17,1.24,-1.17,1.24,-1.24,-1.04,-1.52,-2.41,-2.41,-2.41
437.18,-1.19,1.22,-1.19,1.22,-1.22,-1.02,-1.52,-2.42,-2.42,-2.41
441.55,-1.22,1.20,-1.22,1.20,-1.20,-0.99,-1.53,-2.42,-2.42,-2.42
445.96,-1.24,1.18,-1.24,1.18,-1.18,-0.97,-1.53,-2.42,-2.42,-2.42
450.42,-1.26,1.16,-1.26,1.16,-1.16,-0.95,-1.53,-2.42,-2.42,-2.42
454.93,-1.29,1.14,-1.29,1.14,-1.14,-0.93,-1.53,-2.42,-2.42,-2.42
459.48,-1.31,1.12,-1.31,1.12,-1.12,-0.91,-1.53,-2.42,-2.42,-2.42
464.07,-1.33,1.09,-1.33,1.09,-1.10,-0.89,-1.53,-2.43,-2.43,-2.42
468.71,-1.35,1.07,-1.35,1.07,-1.07,-0.88,-1.52,-2.43,-2.43,-2.42
473.40,-1.37,1.05,-1.37,1.05,-1.05,-0.86,-1.52,-2.43,-2.43,-2.43
478.13,-1.39,1.03,-1.39,1.03,-1.03,-0.84,-1.51,-2.43,-2.43,-2.43
482.91,-1.41,1.01,-1.41,1.01,-1.01,-0.82,-1.50,-2.42,-2.42,-2.43
487.74,-1.43,0.99,-1.43,0.99,-0.99,-0.81,-1.49,-2.42,-2.42,-2.42
492.62,-1.45,0.97,-1.45,0.97,-0.97,-0.79,-1.48,-2.42,-2.42,-2.42
497.55,-1.47,0.94,-1.47,0.94,-0.94,-0.78,-1.46,-2.42,-2.42,-2.42
502.52,-1.49,0.92,-1.49,0.92,-0.92,-0.76,-1.45,-2.41,-2.41,-2.41
507.55,-1.51,0.90,-1.51,0.90,-0.90,-0.75,-1.43,-2.41,-2.41,-2.41
