frequency,raw,error,smoothed,error_smoothed,equalization,parametric_eq,fixed_band_eq,equalized_raw,equalized_smoothed,target
20.00,9.03,2.32,9.03,2.31,-2.32,-1.72,-0.60,6.71,6.71,6.71
20.20,9.01,2.29,9.02,2.29,-2.30,-1.92,-0.62,6.72,6.72,6.72
20.40,9.01,2.27,9.01,2.28,-2.28,-2.11,-0.64,6.73,6.73,6.73
20.61,9.01,2.27,9.02,2.26,-2.27,-2.32,-0.66,6.75,6.75,6.75
20.81,9.03,2.25,9.03,2.25,-2.25,-2.54,-0.69,6.78,6.78,6.77
21.02,9.05,2.25,9.05,2.25,-2.24,-2.75,-0.71,6.80,6.80,6.80
21.23,9.06,2.24,9.06,2.24,-2.23,-2.95,-0.73,6.83,6.83,6.82
21.44,9.08,2.23,9.08,2.23,-2.23,-3.08,-0.76,6.85,6.85,6.84
21.66,9.09,2.22,9.09,2.22,-2.22,-3.20,-0.78,6.87,6.87,6.86
21.87,9.10,2.22,9.10,2.22,-2.22,-3.19,-0.81,6.88,6.88,6.88
22.09,9.11,2.21,9.11,2.21,-2.21,-3.17,-0.83,6.90,6.90,6.90
22.31,9.13,2.21,9.13,2.21,-2.22,-3.05,-0.86,6.91,6.91,6.92
22.54,9.15,2.22,9.15,2.22,-2.23,-2.92,-0.89,6.93,6.93,6.94
22.76,9.18,2.23,9.19,2.23,-2.24,-2.74,-0.91,6.94,6.95,6.96
22.99,9.22,2.25,9.22,2.25,-2.26,-2.57,-0.94,6.97,6.97,6.97
23.22,9.27,2.28,9.27,2.27,-2.28,-2.41,-0.97,6.99,6.99,6.99
23.45,9.31,2.30,9.31,2.30,-2.30,-2.25,-1.00,7.01,7.01,7.01
23.69,9.35,2.32,9.35,2.32,-2.32,-2.12,-1.03,7.04,7.04,7.03
23.92,9.39,2.34,9.39,2.34,-2.33,-1.99,-1.06,7.06,7.06,7.05
24.16,9.41,2.34,9.41,2.34,-2.34,-1.90,-1.09,7.08,7.07,7.07
24.40,9.42,2.34,9.42,2.34,-2.33,-1.81,-1.13,7.09,7.09,7.09
24.65,9.42,2.32,9.42,2.32,-2.32,-1.74,-1.16,7.11,7.11,7.10
24.89,9.41,2.30,9.41,2.30,-2.29,-1.68,-1.19,7.12,7.12,7.12
25.14,9.39,2.26,9.39,2.26,-2.26,-1.64,-1.22,7.13,7.13,7.13
25.39,9.36,2.21,9.36,2.21,-2.21,-1.60,-1.26,7.15,7.15,7.15
25.65,9.31,2.15,9.31,2.15,-2.15,-1.58,-1.29,7.16,7.16,7.16
25.91,9.26,2.09,9.26,2.09,-2.09,-1.55,-1.32,7.18,7.18,7.18
26.16,9.21,2.02,9.21,2.02,-2.01,-1.54,-1.35,7.19,7.19,7.19
26.43,9.14,1.94,9.14,1.94,-1.93,-1.52,-1.38,7.21,7.21,7.20
26.69,9.07,1.85,9.07,1.85,-1.85,-1.52,-1.41,7.22,7.22,7.22
26.96,9.00,1.76,8.99,1.76,-1.76,-1.51,-1.44,7.23,7.23,7.23
27.23,8.92,1.68,8.92,1.67,-1.67,-1.51,-1.47,7.24,7.24,7.24
27.50,8.84,1.59,8.84,1.59,-1.59,-1.50,-1.49,7.25,7.25,7.25
27.77,8.76,1.50,8.76,1.50,-1.50,-1.50,-1.52,7.26,7.26,7.26
28.05,8.69,1.42,8.69,1.42,-1.42,-1.49,-1.54,7.27,7.27,7.27
28.33,8.63,1.34,8.63,1.34,-1.35,-1.49,-1.56,7.28,7.28,7.28
28.62,8.57,1.28,8.57,1.28,-1.29,-1.48,-1.58,7.29,7.29,7.29
28.90,8.53,1.23,8.53,1.23,-1.23,-1.47,-1.59,7.30,7.30,7.30
29.19,8.49,1.18,8.49,1.18,-1.18,-1.46,-1.61,7.31,7.31,7.31
29.48,8.46,1.14,8.46,1.14,-1.14,-1.45,-1.62,7.31,7.32,7.32
29.78,8.44,1.11,8.44,1.11,-1.11,-1.43,-1.62,7.33,7.32,7.33
30.08,8.43,1.09,8.43,1.09,-1.09,-1.41,-1.62,7.33,7.33,7.34
30.38,8.42,1.07,8.42,1.07,-1.08,-1.39,-1.62,7.34,7.34,7.34
30.68,8.42,1.06,8.42,1.06,-1.07,-1.37,-1.62,7.35,7.35,7.35
30.99,8.42,1.06,8.42,1.06,-1.06,-1.34,-1.61,7.36,7.36,7.36
31.30,8.42,1.06,8.42,1.06,-1.06,-1.31,-1.60,7.36,7.36,7.36
31.61,8.42,1.05,8.42,1.05,-1.05,-1.27,-1.59,7.37,7.37,7.37
31.93,8.42,1.05,8.42,1.05,-1.05,-1.23,-1.57,7.38,7.38,7.37
32.24,8.41,1.04,8.41,1.04,-1.04,-1.19,-1.54,7.38,7.38,7.37
32.57,8.40,1.03,8.40,1.03,-1.02,-1.15,-1.52,7.38,7.38,7.38
32.89,8.38,1.01,8.38,1.01,-1.00,-1.10,-1.49,7.38,7.38,7.38
33.22,8.36,0.98,8.36,0.98,-0.98,-1.05,-1.45,7.38,7.38,7.38
33.55,8.33,0.95,8.33,0.95,-0.94,-1.00,-1.42,7.38,7.38,7.38
33.89,8.29,0.91,8.29,0.91,-0.90,-0.95,-1.38,7.38,7.38,7.38
34.23,8.24,0.86,8.24,0.86,-0.86,-0.90,-1.34,7.39,7.39,7.38
34.57,8.19,0.81,8.19,0.81,-0.80,-0.84,-1.29,7.39,7.39,7.38
34.92,8.13,0.75,8.13,0.75,-0.75,-0.78,-1.24,7.39,7.39,7.38
35.27,8.07,0.68,8.07,0.68,-0.68,-0.72,-1.19,7.38,7.38,7.38
35.62,8.00,0.62,8.00,0.62,-0.62,-0.67,-1.14,7.38,7.38,7.38
35.97,7.93,0.55,7.93,0.55,-0.55,-0.61,-1.09,7.38,7.38,7.38
36.33,7.85,0.48,7.85,0.48,-0.48,-0.55,-1.03,7.38,7.38,7.38
36.70,7.78,0.41,7.78,0.41,-0.41,-0.49,-0.97,7.37,7.37,7.38
37.06,7.72,0.35,7.72,0.35,-0.35,-0.43,-0.91,7.37,7.37,7.37
37.43,7.65,0.29,7.65,0.29,-0.29,-0.37,-0.85,7.36,7.36,7.37
37.81,7.59,0.23,7.59,0.23,-0.23,-0.31,-0.79,7.36,7.36,7.36
38.19,7.54,0.18,7.54,0.18,-0.19,-0.25,-0.73,7.35,7.35,7.35
38.57,7.49,0.14,7.49,0.14,-0.14,-0.19,-0.67,7.34,7.35,7.35
38.95,7.45,0.10,7.44,0.10,-0.10,-0.13,-0.60,7.34,7.34,7.34
39.34,7.41,0.07,7.41,0.07,-0.07,-0.07,-0.54,7.34,7.34,7.34
39.74,7.37,0.04,7.38,0.04,-0.04,-0.01,-0.47,7.33,7.34,7.34
40.14,7.35,0.01,7.35,0.01,-0.01,0.04,-0.41,7.33,7.33,7.34
40.54,7.32,-0.01,7.32,-0.01,0.02,0.10,-0.34,7.33,7.33,7.33
40.94,7.29,-0.04,7.29,-0.04,0.05,0.15,-0.28,7.33,7.33,7.33
41.35,7.25,-0.07,7.25,-0.07,0.08,0.21,-0.21,7.33,7.33,7.32
41.76,7.21,-0.10,7.21,-0.11,0.11,0.26,-0.14,7.32,7.32,7.32
42.18,7.17,-0.15,7.17,-0.15,0.15,0.32,-0.08,7.32,7.32,7.31
42.60,7.12,-0.19,7.12,-0.19,0.19,0.37,-0.01,7.31,7.31,7.31
43.03,7.07,-0.24,7.07,-0.24,0.24,0.42,0.05,7.30,7.30,7.30
43.46,7.01,-0.29,7.01,-0.29,0.28,0.48,0.12,7.30,7.30,7.30
43.90,6.95,-0.34,6.96,-0.34,0.34,0.53,0.19,7.29,7.29,7.29
44.33,6.90,-0.39,6.89,-0.39,0.39,0.58,0.25,7.29,7.29,7.28
44.78,6.83,-0.44,6.83,-0.44,0.45,0.63,0.32,7.28,7.28,7.27
45.23,6.76,-0.50,6.76,-0.50,0.51,0.68,0.39,7.27,7.27,7.26
45.68,6.68,-0.57,6.68,-0.57,0.57,0.73,0.46,7.26,7.26,7.25
46.13,6.61,-0.63,6.61,-0.63,0.63,0.78,0.52,7.24,7.24,7.24
46.60,6.53,-0.70,6.53,-0.70,0.70,0.83,0.59,7.23,7.23,7.23
47.06,6.46,-0.76,6.46,-0.76,0.76,0.88,0.66,7.21,7.21,7.22
47.53,6.39,-0.82,6.39,-0.82,0.81,0.92,0.73,7.20,7.20,7.21
48.01,6.33,-0.87,6.33,-0.87,0.87,0.97,0.79,7.19,7.19,7.20
48.49,6.27,-0.92,6.27,-0.92,0.92,1.02,0.86,7.19,7.19,7.19
48.97,6.21,-0.96,6.21,-0.96,0.97,1.07,0.93,7.18,7.18,7.17
49.46,6.15,-1.01,6.15,-1.01,1.01,1.12,1.00,7.16,7.16,7.15
49.96,6.08,-1.05,6.08,-1.06,1.06,1.16,1.06,7.14,7.14,7.14
50.46,6.01,-1.11,6.01,-1.11,1.11,1.21,1.13,7.12,7.12,7.12
50.96,5.94,-1.16,5.94,-1.16,1.16,1.26,1.20,7.11,7.11,7.10
51.47,5.88,-1.21,5.88,-1.21,1.21,1.30,1.26,7.09,7.09,7.09
51.99,5.81,-1.27,5.81,-1.27,1.27,1.35,1.33,7.07,7.07,7.08
52.51,5.74,-1.32,5.74,-1.32,1.32,1.40,1.40,7.06,7.06,7.06
53.03,5.67,-1.38,5.67,-1.38,1.37,1.45,1.46,7.04,7.04,7.05
53.56,5.61,-1.43,5.61,-1.43,1.42,1.49,1.53,7.03,7.03,7.03
54.10,5.54,-1.47,5.55,-1.47,1.47,1.54,1.59,7.02,7.02,7.02
54.64,5.48,-1.52,5.48,-1.52,1.53,1.59,1.66,7.01,7.01,7.01
55.18,5.42,-1.57,5.41,-1.58,1.58,1.64,1.72,7.00,7.00,6.99
55.74,5.34,-1.63,5.34,-1.63,1.64,1.68,1.78,6.98,6.98,6.98
56.29,5.27,-1.69,5.27,-1.69,1.70,1.73,1.84,6.96,6.96,6.96
56.86,5.18,-1.75,5.18,-1.76,1.76,1.78,1.90,6.94,6.94,6.94
57.42,5.10,-1.82,5.10,-1.82,1.82,1.83,1.95,6.92,6.92,6.92
58.00,5.01,-1.88,5.02,-1.88,1.88,1.88,2.01,6.89,6.89,6.90
58.58,4.93,-1.94,4.93,-1.94,1.94,1.92,2.06,6.87,6.87,6.87
59.16,4.85,-2.00,4.85,-2.00,1.99,1.97,2.12,6.85,6.85,6.85
59.76,4.78,-2.05,4.78,-2.05,2.05,2.02,2.17,6.83,6.83,6.83
60.35,4.71,-2.10,4.71,-2.10,2.10,2.07,2.21,6.81,6.81,6.81
60.96,4.64,-2.15,4.64,-2.15,2.15,2.12,2.26,6.79,6.79,6.79
61.57,4.58,-2.19,4.58,-2.20,2.20,2.17,2.31,6.78,6.78,6.77
62.18,4.51,-2.25,4.51,-2.25,2.25,2.22,2.35,6.76,6.76,6.75
62.80,4.43,-2.30,4.43,-2.30,2.30,2.27,2.39,6.74,6.74,6.73
63.43,4.36,-2.36,4.36,-2.36,2.36,2.32,2.43,6.71,6.71,6.71
64.07,4.28,-2.41,4.28,-2.41,2.41,2.37,2.46,6.69,6.69,6.69
64.71,4.19,-2.47,4.19,-2.47,2.47,2.42,2.50,6.67,6.67,6.67
65.35,4.11,-2.53,4.11,-2.53,2.53,2.48,2.53,6.64,6.64,6.64
66.01,4.02,-2.59,4.02,-2.59,2.59,2.53,2.56,6.61,6.61,6.61
66.67,3.93,-2.65,3.93,-2.65,2.65,2.58,2.59,6.58,6.58,6.58
67.33,3.83,-2.71,3.83,-2.72,2.72,2.63,2.62,6.55,6.55,6.55
68.01,3.74,-2.78,3.74,-2.78,2.78,2.69,2.64,6.52,6.52,6.52
68.69,3.65,-2.84,3.65,-2.84,2.84,2.74,2.67,6.48,6.48,6.49
69.37,3.56,-2.90,3.56,-2.90,2.90,2.79,2.70,6.45,6.45,6.45
70.07,3.47,-2.95,3.47,-2.95,2.95,2.85,2.72,6.42,6.42,6.42
70.77,3.38,-3.01,3.38,-3.01,3.01,2.90,2.75,6.39,6.39,6.39
71.48,3.29,-3.07,3.29,-3.07,3.07,2.96,2.77,6.36,6.36,6.36
72.19,3.21,-3.13,3.21,-3.13,3.13,3.01,2.80,6.34,6.34,6.34
72.91,3.13,-3.18,3.13,-3.18,3.18,3.07,2.82,6.31,6.31,6.31
73.64,3.05,-3.24,3.05,-3.24,3.24,3.12,2.85,6.29,6.29,6.29
74.38,2.97,-3.30,2.97,-3.30,3.30,3.18,2.87,6.26,6.26,6.26
75.12,2.88,-3.35,2.88,-3.36,3.36,3.24,2.90,6.24,6.24,6.24
75.87,2.80,-3.41,2.80,-3.41,3.42,3.29,2.93,6.21,6.21,6.21
76.63,2.71,-3.47,2.71,-3.47,3.47,3.35,2.96,6.19,6.19,6.19
77.40,2.62,-3.53,2.62,-3.53,3.53,3.41,2.99,6.16,6.16,6.16
78.17,2.54,-3.59,2.54,-3.59,3.59,3.46,3.03,6.12,6.12,6.13
78.95,2.45,-3.65,2.45,-3.65,3.64,3.52,3.06,6.09,6.09,6.09
79.74,2.36,-3.70,2.36,-3.70,3.70,3.58,3.10,6.06,6.06,6.06
80.54,2.27,-3.75,2.27,-3.75,3.75,3.64,3.14,6.02,6.02,6.02
81.35,2.18,-3.80,2.18,-3.80,3.80,3.70,3.18,5.98,5.98,5.98
82.16,2.09,-3.86,2.09,-3.85,3.85,3.75,3.23,5.94,5.94,5.94
82.98,2.00,-3.90,2.00,-3.90,3.90,3.81,3.27,5.90,5.90,5.90
83.81,1.91,-3.95,1.91,-3.95,3.95,3.87,3.32,5.85,5.85,5.86
84.65,1.82,-3.99,1.82,-3.99,3.99,3.93,3.37,5.81,5.81,5.81
85.50,1.73,-4.04,1.73,-4.04,4.04,3.99,3.43,5.76,5.76,5.76
86.35,1.64,-4.08,1.64,-4.08,4.08,4.04,3.48,5.72,5.72,5.72
87.22,1.55,-4.13,1.55,-4.13,4.13,4.10,3.54,5.68,5.68,5.68
88.09,1.46,-4.17,1.46,-4.17,4.18,4.16,3.60,5.64,5.64,5.63
88.97,1.37,-4.22,1.37,-4.22,4.23,4.22,3.67,5.60,5.60,5.59
89.86,1.28,-4.27,1.28,-4.27,4.28,4.28,3.74,5.56,5.56,5.56
90.76,1.19,-4.33,1.19,-4.33,4.33,4.33,3.81,5.53,5.53,5.52
91.66,1.10,-4.39,1.10,-4.39,4.39,4.39,3.88,5.49,5.49,5.49
92.58,1.01,-4.44,1.01,-4.44,4.44,4.45,3.96,5.46,5.46,5.46
93.51,0.92,-4.50,0.92,-4.50,4.50,4.50,4.04,5.42,5.42,5.42
94.44,0.83,-4.55,0.83,-4.55,4.55,4.56,4.12,5.38,5.38,5.39
95.39,0.74,-4.60,0.74,-4.60,4.60,4.61,4.20,5.35,5.35,5.35
96.34,0.65,-4.65,0.65,-4.65,4.65,4.67,4.29,5.30,5.30,5.31
97.30,0.57,-4.70,0.57,-4.70,4.70,4.72,4.38,5.26,5.26,5.26
98.28,0.48,-4.74,0.48,-4.74,4.74,4.78,4.47,5.22,5.22,5.22
99.26,0.39,-4.78,0.39,-4.78,4.78,4.83,4.56,5.18,5.18,5.17
100.25,0.31,-4.82,0.31,-4.82,4.82,4.88,4.65,5.13,5.13,5.13
101.25,0.22,-4.86,0.22,-4.86,4.86,4.93,4.75,5.08,5.08,5.08
102.27,0.13,-4.90,0.13,-4.90,4.90,4.98,4.85,5.03,5.03,5.03
103.29,0.04,-4.94,0.04,-4.94,4.94,5.03,4.94,4.98,4.98,4.98
104.32,-0.04,-4.98,-0.04,-4.98,4.97,5.07,5.04,4.93,4.93,4.93
105.37,-0.13,-5.01,-0.13,-5.01,5.01,5.12,5.14,4.88,4.88,4.88
106.42,-0.21,-5.04,-0.21,-5.04,5.04,5.17,5.23,4.83,4.83,4.83
107.48,-0.28,-5.07,-0.28,-5.07,5.07,5.21,5.33,4.78,4.78,4.78
108.56,-0.36,-5.09,-0.36,-5.09,5.10,5.25,5.42,4.74,4.74,4.74
109.64,-0.43,-5.12,-0.43,-5.12,5.13,5.29,5.52,4.69,4.69,4.69
110.74,-0.51,-5.15,-0.51,-5.15,5.15,5.33,5.61,4.65,4.65,4.64
111.85,-0.58,-5.18,-0.58,-5.18,5.18,5.37,5.69,4.60,4.60,4.60
112.97,-0.66,-5.21,-0.66,-5.21,5.21,5.40,5.77,4.55,4.55,4.55
114.10,-0.74,-5.23,-0.74,-5.24,5.23,5.44,5.85,4.50,4.50,4.50
115.24,-0.82,-5.26,-0.82,-5.26,5.26,5.47,5.92,4.44,4.44,4.44
116.39,-0.90,-5.29,-0.90,-5.28,5.28,5.50,5.99,4.38,4.38,4.39
117.55,-0.97,-5.30,-0.97,-5.30,5.30,5.52,6.05,4.32,4.33,4.33
118.73,-1.04,-5.32,-1.04,-5.32,5.31,5.55,6.10,4.27,4.27,4.27
119.92,-1.11,-5.32,-1.11,-5.33,5.33,5.57,6.15,4.22,4.22,4.21
121.12,-1.18,-5.34,-1.18,-5.34,5.34,5.60,6.19,4.16,4.16,4.16
122.33,-1.24,-5.35,-1.24,-5.35,5.36,5.61,6.21,4.11,4.11,4.11
123.55,-1.31,-5.37,-1.31,-5.37,5.37,5.63,6.23,4.06,4.06,4.06
124.79,-1.37,-5.38,-1.37,-5.38,5.38,5.65,6.24,4.01,4.01,4.01
126.03,-1.43,-5.39,-1.43,-5.39,5.40,5.66,6.25,3.96,3.96,3.96
127.29,-1.50,-5.41,-1.50,-5.41,5.41,5.67,6.24,3.91,3.91,3.91
128.57,-1.56,-5.42,-1.56,-5.42,5.42,5.68,6.23,3.86,3.86,3.86
129.85,-1.62,-5.44,-1.62,-5.44,5.43,5.68,6.20,3.81,3.81,3.81
131.15,-1.69,-5.45,-1.69,-5.45,5.44,5.69,6.17,3.76,3.76,3.76
132.46,-1.74,-5.46,-1.74,-5.46,5.45,5.69,6.13,3.71,3.71,3.71
133.79,-1.80,-5.46,-1.80,-5.46,5.46,5.69,6.09,3.66,3.66,3.66
135.12,-1.86,-5.46,-1.86,-5.46,5.46,5.68,6.03,3.60,3.60,3.60
136.48,-1.91,-5.46,-1.91,-5.46,5.46,5.67,5.97,3.54,3.54,3.55
137.84,-1.97,-5.46,-1.97,-5.45,5.45,5.67,5.91,3.48,3.48,3.48
139.22,-2.02,-5.45,-2.02,-5.45,5.44,5.65,5.84,3.42,3.42,3.42
140.61,-2.07,-5.44,-2.07,-5.44,5.43,5.64,5.76,3.36,3.36,3.36
142.02,-2.12,-5.42,-2.12,-5.42,5.42,5.63,5.69,3.31,3.31,3.31
143.44,-2.16,-5.41,-2.16,-5.41,5.41,5.61,5.61,3.25,3.25,3.25
144.87,-2.20,-5.39,-2.20,-5.39,5.40,5.59,5.53,3.20,3.20,3.19
146.32,-2.24,-5.38,-2.24,-5.38,5.38,5.56,5.44,3.14,3.14,3.14
147.78,-2.28,-5.37,-2.28,-5.37,5.37,5.54,5.36,3.08,3.08,3.08
149.26,-2.33,-5.35,-2.33,-5.35,5.35,5.51,5.27,3.03,3.03,3.03
150.75,-2.37,-5.34,-2.37,-5.34,5.34,5.49,5.19,2.97,2.97,2.97
152.26,-2.40,-5.32,-2.40,-5.32,5.32,5.46,5.10,2.92,2.92,2.92
153.78,-2.44,-5.31,-2.44,-5.31,5.31,5.42,5.02,2.87,2.87,2.87
155.32,-2.47,-5.29,-2.47,-5.29,5.29,5.39,4.94,2.82,2.82,2.82
156.88,-2.50,-5.27,-2.50,-5.27,5.28,5.35,4.85,2.78,2.78,2.78
158.44,-2.53,-5.26,-2.53,-5.26,5.26,5.32,4.78,2.74,2.74,2.73
160.03,-2.56,-5.24,-2.56,-5.25,5.25,5.28,4.70,2.70,2.70,2.69
161.63,-2.59,-5.24,-2.59,-5.24,5.25,5.24,4.62,2.66,2.66,2.65
163.24,-2.62,-5.23,-2.62,-5.23,5.24,5.20,4.55,2.62,2.62,2.61
164.88,-2.65,-5.23,-2.65,-5.23,5.23,5.15,4.48,2.59,2.59,2.58
166.53,-2.68,-5.22,-2.68,-5.22,5.23,5.11,4.41,2.55,2.55,2.55
168.19,-2.70,-5.22,-2.70,-5.22,5.21,5.06,4.35,2.51,2.51,2.51
169.87,-2.73,-5.20,-2.73,-5.20,5.19,5.02,4.29,2.45,2.46,2.47
171.57,-2.75,-5.17,-2.75,-5.17,5.15,4.97,4.23,2.39,2.39,2.42
173.29,-2.78,-5.12,-2.78,-5.12,5.10,4.92,4.17,2.32,2.32,2.34
175.02,-2.80,-5.06,-2.79,-5.06,5.04,4.87,4.12,2.25,2.25,2.26
176.77,-2.81,-4.98,-2.81,-4.98,4.97,4.82,4.07,2.16,2.16,2.17
178.54,-2.83,-4.89,-2.83,-4.89,4.90,4.77,4.02,2.07,2.07,2.07
180.32,-2.84,-4.81,-2.84,-4.81,4.82,4.72,3.98,1.98,1.98,1.97
182.13,-2.85,-4.73,-2.85,-4.73,4.74,4.66,3.94,1.89,1.89,1.88
183.95,-2.86,-4.66,-2.86,-4.66,4.67,4.61,3.90,1.81,1.81,1.79
185.79,-2.88,-4.60,-2.88,-4.60,4.60,4.56,3.87,1.73,1.73,1.72
187.65,-2.89,-4.54,-2.89,-4.54,4.54,4.50,3.84,1.65,1.65,1.65
189.52,-2.91,-4.49,-2.91,-4.49,4.48,4.45,3.81,1.57,1.58,1.58
191.42,-2.92,-4.43,-2.92,-4.43,4.43,4.39,3.79,1.50,1.50,1.51
193.33,-2.94,-4.38,-2.94,-4.38,4.37,4.34,3.76,1.43,1.43,1.44
195.27,-2.95,-4.32,-2.95,-4.32,4.31,4.28,3.74,1.36,1.36,1.37
197.22,-2.96,-4.26,-2.96,-4.26,4.26,4.23,3.73,1.30,1.30,1.30
199.19,-2.97,-4.20,-2.97,-4.20,4.20,4.17,3.71,1.23,1.23,1.23
201.18,-2.97,-4.14,-2.97,-4.14,4.14,4.12,3.70,1.17,1.17,1.16
203.19,-2.98,-4.08,-2.98,-4.08,4.08,4.06,3.69,1.10,1.10,1.10
205.23,-2.99,-4.02,-2.99,-4.02,4.02,4.01,3.68,1.03,1.03,1.03
207.28,-2.99,-3.96,-2.99,-3.97,3.97,3.95,3.67,0.97,0.97,0.97
209.35,-3.00,-3.91,-3.00,-3.91,3.91,3.90,3.66,0.91,0.91,0.91
211.44,-3.01,-3.86,-3.01,-3.86,3.86,3.84,3.66,0.86,0.86,0.86
213.56,-3.01,-3.81,-3.01,-3.81,3.81,3.79,3.65,0.80,0.80,0.80
215.69,-3.01,-3.76,-3.01,-3.76,3.76,3.73,3.65,0.75,0.75,0.75
217.85,-3.02,-3.72,-3.02,-3.72,3.72,3.68,3.64,0.70,0.70,0.70
220.03,-3.03,-3.67,-3.03,-3.67,3.67,3.62,3.64,0.64,0.64,0.64
222.23,-3.03,-3.62,-3.03,-3.62,3.62,3.57,3.63,0.59,0.59,0.59
224.45,-3.04,-3.58,-3.04,-3.58,3.58,3.51,3.63,0.54,0.54,0.54
226.70,-3.04,-3.53,-3.04,-3.53,3.53,3.46,3.62,0.49,0.49,0.49
228.96,-3.04,-3.48,-3.04,-3.48,3.48,3.41,3.62,0.44,0.44,0.44
231.25,-3.04,-3.43,-3.04,-3.43,3.43,3.35,3.61,0.39,0.39,0.39
233.57,-3.04,-3.38,-3.04,-3.38,3.38,3.30,3.60,0.34,0.34,0.34
235.90,-3.04,-3.32,-3.04,-3.32,3.32,3.25,3.58,0.29,0.29,0.29
238.26,-3.03,-3.27,-3.03,-3.27,3.27,3.20,3.57,0.24,0.24,0.24
240.64,-3.03,-3.21,-3.03,-3.21,3.21,3.15,3.55,0.18,0.18,0.18
243.05,-3.03,-3.16,-3.03,-3.16,3.15,3.09,3.53,0.13,0.13,0.13
245.48,-3.02,-3.10,-3.02,-3.10,3.09,3.04,3.51,0.08,0.07,0.08
247.93,-3.01,-3.04,-3.01,-3.04,3.03,2.99,3.49,0.02,0.02,0.02
250.41,-3.00,-2.97,-3.00,-2.97,2.97,2.95,3.46,-0.03,-0.03,-0.03
252.92,-2.98,-2.90,-2.98,-2.91,2.91,2.90,3.43,-0.08,-0.08,-0.08
255.45,-2.97,-2.84,-2.97,-2.84,2.84,2.85,3.39,-0.13,-0.13,-0.13
258.00,-2.95,-2.78,-2.96,-2.78,2.78,2.80,3.36,-0.18,-0.18,-0.18
260.58,-2.95,-2.71,-2.95,-2.71,2.72,2.75,3.32,-0.23,-0.23,-0.23
263.19,-2.94,-2.65,-2.94,-2.65,2.65,2.71,3.28,-0.28,-0.28,-0.29
265.82,-2.93,-2.60,-2.93,-2.60,2.60,2.66,3.23,-0.34,-0.34,-0.34
268.48,-2.93,-2.54,-2.93,-2.54,2.54,2.61,3.19,-0.39,-0.39,-0.39
271.16,-2.93,-2.49,-2.93,-2.49,2.49,2.57,3.14,-0.44,-0.44,-0.44
273.87,-2.93,-2.44,-2.93,-2.44,2.44,2.52,3.08,-0.49,-0.49,-0.49
276.61,-2.93,-2.39,-2.93,-2.39,2.39,2.48,3.03,-0.54,-0.54,-0.54
279.38,-2.92,-2.34,-2.92,-2.34,2.34,2.44,2.98,-0.59,-0.59,-0.58
282.17,-2.92,-2.29,-2.92,-2.29,2.29,2.39,2.92,-0.63,-0.63,-0.63
284.99,-2.92,-2.25,-2.92,-2.25,2.24,2.35,2.86,-0.68,-0.68,-0.68
287.84,-2.92,-2.20,-2.92,-2.20,2.20,2.31,2.80,-0.72,-0.72,-0.72
290.72,-2.92,-2.15,-2.92,-2.15,2.15,2.27,2.74,-0.77,-0.77,-0.77
293.63,-2.92,-2.11,-2.92,-2.11,2.11,2.23,2.68,-0.81,-0.81,-0.81
296.57,-2.92,-2.06,-2.92,-2.06,2.06,2.18,2.62,-0.85,-0.85,-0.85
299.53,-2.91,-2.02,-2.91,-2.02,2.02,2.14,2.56,-0.89,-0.89,-0.89
302.53,-2.91,-1.98,-2.91,-1.98,1.98,2.11,2.50,-0.93,-0.93,-0.93
305.55,-2.91,-1.94,-2.91,-1.94,1.94,2.07,2.44,-0.97,-0.97,-0.97
308.61,-2.90,-1.90,-2.90,-1.90,1.90,2.03,2.38,-1.01,-1.01,-1.01
311.69,-2.90,-1.86,-2.90,-1.86,1.86,1.99,2.32,-1.04,-1.04,-1.04
314.81,-2.89,-1.82,-2.89,-1.82,1.82,1.95,2.26,-1.07,-1.07,-1.08
317.96,-2.89,-1.78,-2.89,-1.78,1.78,1.92,2.20,-1.11,-1.11,-1.11
321.14,-2.88,-1.75,-2.88,-1.75,1.75,1.88,2.15,-1.14,-1.14,-1.14
324.35,-2.88,-1.71,-2.88,-1.71,1.72,1.84,2.09,-1.17,-1.17,-1.17
327.59,-2.88,-1.68,-2.88,-1.68,1.68,1.81,2.03,-1.20,-1.20,-1.20
330.87,-2.88,-1.65,-2.88,-1.65,1.65,1.77,1.98,-1.23,-1.23,-1.23
334.18,-2.88,-1.62,-2.88,-1.62,1.62,1.74,1.93,-1.26,-1.26,-1.25
337.52,-2.88,-1.59,-2.88,-1.59,1.59,1.71,1.88,-1.28,-1.28,-1.28
340.90,-2.87,-1.56,-2.87,-1.56,1.56,1.67,1.82,-1.31,-1.31,-1.31
344.30,-2.87,-1.53,-2.87,-1.53,1.53,1.64,1.77,-1.34,-1.34,-1.34
347.75,-2.87,-1.50,-2.87,-1.50,1.50,1.61,1.73,-1.37,-1.37,-1.37
351.23,-2.87,-1.47,-2.87,-1.47,1.47,1.58,1.68,-1.40,-1.40,-1.40
354.74,-2.87,-1.44,-2.87,-1.44,1.44,1.55,1.63,-1.42,-1.42,-1.42
358.28,-2.87,-1.42,-2.87,-1.41,1.41,1.51,1.59,-1.45,-1.45,-1.45
361.87,-2.86,-1.39,-2.86,-1.39,1.38,1.48,1.55,-1.48,-1.48,-1.48
365.49,-2.86,-1.36,-2.86,-1.36,1.35,1.45,1.50,-1.50,-1.50,-1.50
369.14,-2.85,-1.33,-2.85,-1.33,1.33,1.43,1.46,-1.53,-1.53,-1.53
372.83,-2.85,-1.30,-2.85,-1.30,1.30,1.40,1.42,-1.55,-1.55,-1.55
376.56,-2.84,-1.27,-2.84,-1.27,1.27,1.37,1.38,-1.57,-1.57,-1.58
380.33,-2.84,-1.24,-2.84,-1.24,1.24,1.34,1.35,-1.60,-1.60,-1.60
384.13,-2.83,-1.21,-2.83,-1.21,1.21,1.31,1.31,-1.62,-1.62,-1.62
387.97,-2.83,-1.19,-2.83,-1.19,1.19,1.28,1.28,-1.64,-1.64,-1.64
391.85,-2.83,-1.16,-2.83,-1.16,1.16,1.26,1.24,-1.67,-1.67,-1.67
395.77,-2.82,-1.14,-2.82,-1.14,1.14,1.23,1.21,-1.69,-1.69,-1.69
399.73,-2.82,-1.12,-2.82,-1.11,1.11,1.21,1.18,-1.71,-1.71,-1.71
403.72,-2.82,-1.09,-2.82,-1.09,1.09,1.18,1.15,-1.73,-1.73,-1.73
407.76,-2.81,-1.07,-2.81,-1.07,1.07,1.16,1.12,-1.75,-1.75,-1.75
411.84,-2.81,-1.04,-2.81,-1.04,1.04,1.13,1.09,-1.76,-1.77,-1.77
415.96,-2.80,-1.02,-2.80,-1.02,1.02,1.11,1.06,-1.78,-1.78,-1.78
420.12,-2.80,-1.00,-2.80,-1.00,1.00,1.08,1.03,-1.80,-1.80,-1.80
424.32,-2.80,-0.98,-2.80,-0.98,0.98,1.06,1.01,-1.82,-1.82,-1.82
428.56,-2.79,-0.96,-2.79,-0.96,0.96,1.04,0.98,-1.83,-1.83,-1.83
432.85,-2.79,-0.94,-2.79,-0.94,0.94,1.01,0.96,-1.84,-1.84,-1.84
437.18,-2.78,-0.93,-2.78,-0.93,0.93,0.99,0.93,-1.86,-1.86,-1.86
441.55,-2.78,-0.91,-2.78,-0.91,0.91,0.97,0.91,-1.87,-1.87,-1.87
445.96,-2.77,-0.90,-2.77,-0.90,0.90,0.95,0.89,-1.87,-1.87,-1.87
450.42,-2.77,-0.88,-2.77,-0.88,0.88,0.93,0.86,-1.88,-1.88,-1.88
454.93,-2.76,-0.87,-2.76,-0.87,0.87,0.91,0.84,-1.89,-1.89,-1.89
459.48,-2.76,-0.86,-2.76,-0.86,0.86,0.89,0.82,-1.90,-1.90,-1.90
464.07,-2.75,-0.85,-2.75,-0.85,0.85,0.87,0.80,-1.91,-1.91,-1.91
468.71,-2.75,-0.83,-2.75,-0.83,0.83,0.85,0.78,-1.91,-1.91,-1.91
473.40,-2.74,-0.82,-2.74,-0.82,0.82,0.83,0.77,-1.92,-1.92,-1.92
478.13,-2.73,-0.81,-2.73,-0.81,0.81,0.81,0.75,-1.92,-1.92,-1.92
482.91,-2.73,-0.80,-2.73,-0.80,0.80,0.79,0.73,-1.93,-1.93,-1.93
487.74,-2.72,-0.79,-2.72,-0.79,0.79,0.77,0.71,-1.93,-1.93,-1.93
492.62,-2.72,-0.78,-2.72,-0.78,0.78,0.75,0.70,-1.94,-1.93,-1.93
497.55,-2.71,-0.77,-2.71,-0.77,0.77,0.74,0.68,-1.94,-1.94,-1.94
502.52,-2.70,-0.76,-2.70,-0.76,0.76,0.72,0.67,-1.94,-1.94,-1.94
507.55,-2.70,-0.75,-2.70,-0.75,0.76,0.70,0.65,-1.94,-1.94,-1.94
512.62,-2.69,-0.75,-2.69,-0.75,0.75,0.69,0.64,-1.94,-1.94,-1.94
517.75,-2.68,-0.74,-2.68,-0.74,0.74,0.67,0.62,-1.94,-1.94,-1.94
