frequency,raw,error,smoothed,error_smoothed,equalization,parametric_eq,fixed_band_eq,equalized_raw,equalized_smoothed,target
20.00,9.03,-2.13,9.03,-2.13,2.12,1.84,1.19,11.15,11.15,11.16
20.20,9.01,-2.15,9.02,-2.14,2.15,1.86,1.22,11.16,11.16,11.16
20.40,9.01,-2.15,9.01,-2.16,2.16,1.88,1.26,11.17,11.18,11.16
20.61,9.01,-2.15,9.02,-2.17,2.18,1.90,1.29,11.19,11.19,11.16
20.81,9.03,-2.20,9.03,-2.19,2.19,1.92,1.33,11.22,11.22,11.23
21.02,9.05,-2.22,9.05,-2.20,2.19,1.94,1.36,11.24,11.24,11.26
21.23,9.06,-2.20,9.06,-2.20,2.19,1.96,1.40,11.26,11.25,11.26
21.44,9.08,-2.18,9.08,-2.19,2.19,1.98,1.44,11.27,11.26,11.26
21.66,9.09,-2.17,9.09,-2.17,2.18,2.00,1.48,11.27,11.27,11.26
21.87,9.10,-2.16,9.10,-2.16,2.16,2.02,1.52,11.26,11.26,11.26
22.09,9.11,-2.15,9.11,-2.15,2.14,2.04,1.57,11.26,11.26,11.26
22.31,9.13,-2.13,9.13,-2.13,2.12,2.06,1.61,11.25,11.25,11.26
22.54,9.15,-2.11,9.15,-2.11,2.10,2.08,1.65,11.25,11.25,11.26
22.76,9.18,-2.08,9.19,-2.07,2.07,2.10,1.70,11.26,11.26,11.26
22.99,9.22,-2.04,9.22,-2.04,2.05,2.12,1.75,11.27,11.27,11.26
23.22,9.27,-2.00,9.27,-2.02,2.02,2.14,1.80,11.29,11.29,11.27
23.45,9.31,-2.03,9.31,-2.01,2.00,2.16,1.84,11.31,11.31,11.34
23.69,9.35,-2.01,9.35,-1.99,1.99,2.18,1.90,11.34,11.34,11.36
23.92,9.39,-1.97,9.39,-1.98,1.98,2.20,1.95,11.37,11.37,11.36
24.16,9.41,-1.95,9.41,-1.98,1.99,2.22,2.00,11.40,11.40,11.36
24.40,9.42,-2.01,9.42,-1.99,2.01,2.24,2.05,11.43,11.43,11.43
24.65,9.42,-2.04,9.42,-2.02,2.04,2.26,2.11,11.46,11.46,11.46
24.89,9.41,-2.05,9.41,-2.08,2.08,2.27,2.16,11.49,11.49,11.46
25.14,9.39,-2.13,9.39,-2.13,2.13,2.29,2.22,11.51,11.51,11.52
25.39,9.36,-2.20,9.36,-2.19,2.18,2.31,2.27,11.54,11.54,11.56
25.65,9.31,-2.25,9.31,-2.25,2.25,2.33,2.33,11.56,11.56,11.56
25.91,9.26,-2.30,9.26,-2.30,2.31,2.35,2.39,11.57,11.57,11.56
26.16,9.21,-2.35,9.21,-2.36,2.37,2.36,2.44,11.57,11.57,11.56
26.43,9.14,-2.42,9.14,-2.42,2.42,2.38,2.50,11.56,11.56,11.56
26.69,9.07,-2.49,9.07,-2.48,2.46,2.40,2.56,11.53,11.53,11.56
26.96,9.00,-2.53,8.99,-2.52,2.49,2.42,2.61,11.49,11.49,11.52
27.23,8.92,-2.53,8.92,-2.53,2.52,2.43,2.67,11.44,11.44,11.45
27.50,8.84,-2.52,8.84,-2.54,2.54,2.45,2.72,11.38,11.38,11.36
27.77,8.76,-2.54,8.76,-2.54,2.56,2.47,2.78,11.32,11.32,11.31
28.05,8.69,-2.56,8.69,-2.55,2.57,2.49,2.83,11.26,11.26,11.25
28.33,8.63,-2.55,8.63,-2.57,2.58,2.50,2.88,11.20,11.20,11.18
28.62,8.57,-2.59,8.57,-2.58,2.58,2.52,2.93,11.16,11.16,11.16
28.90,8.53,-2.61,8.53,-2.59,2.59,2.54,2.98,11.12,11.12,11.14
29.19,8.49,-2.57,8.49,-2.60,2.60,2.56,3.03,11.09,11.08,11.06
29.48,8.46,-2.60,8.46,-2.61,2.60,2.58,3.07,11.06,11.06,11.06
29.78,8.44,-2.62,8.44,-2.61,2.59,2.60,3.12,11.03,11.03,11.06
30.08,8.43,-2.62,8.43,-2.60,2.59,2.61,3.15,11.01,11.01,11.05
30.38,8.42,-2.57,8.42,-2.58,2.58,2.63,3.19,10.99,11.00,10.99
30.68,8.42,-2.55,8.42,-2.55,2.57,2.65,3.23,10.98,10.98,10.96
30.99,8.42,-2.54,8.42,-2.54,2.55,2.67,3.26,10.97,10.97,10.96
31.30,8.42,-2.54,8.42,-2.54,2.54,2.70,3.29,10.96,10.96,10.96
31.61,8.42,-2.54,8.42,-2.54,2.53,2.72,3.32,10.95,10.95,10.96
31.93,8.42,-2.54,8.42,-2.54,2.53,2.74,3.34,10.95,10.95,10.96
32.24,8.41,-2.55,8.41,-2.55,2.55,2.76,3.36,10.96,10.96,10.96
32.57,8.40,-2.56,8.40,-2.55,2.57,2.79,3.38,10.97,10.97,10.96
32.89,8.38,-2.58,8.38,-2.58,2.60,2.81,3.40,10.98,10.98,10.96
33.22,8.36,-2.61,8.36,-2.63,2.64,2.84,3.42,11.00,11.00,10.97
33.55,8.33,-2.70,8.33,-2.69,2.69,2.86,3.43,11.02,11.02,11.03
33.89,8.29,-2.77,8.29,-2.76,2.75,2.89,3.44,11.04,11.04,11.06
34.23,8.24,-2.82,8.24,-2.82,2.82,2.92,3.45,11.06,11.07,11.06
34.57,8.19,-2.87,8.19,-2.89,2.90,2.95,3.46,11.09,11.09,11.06
34.92,8.13,-2.97,8.13,-2.98,2.98,2.98,3.47,11.11,11.11,11.10
35.27,8.07,-3.09,8.07,-3.07,3.06,3.01,3.48,11.13,11.13,11.16
35.62,8.00,-3.16,8.00,-3.16,3.15,3.05,3.49,11.15,11.15,11.16
35.97,7.93,-3.23,7.93,-3.23,3.25,3.08,3.49,11.17,11.17,11.16
36.33,7.85,-3.31,7.85,-3.30,3.34,3.12,3.50,11.19,11.19,11.16
36.70,7.78,-3.38,7.78,-3.40,3.43,3.15,3.51,11.21,11.21,11.16
37.06,7.72,-3.50,7.72,-3.50,3.50,3.19,3.52,11.22,11.22,11.21
37.43,7.65,-3.61,7.65,-3.59,3.56,3.23,3.53,11.21,11.21,11.26
37.81,7.59,-3.67,7.59,-3.65,3.60,3.27,3.54,11.20,11.20,11.26
38.19,7.54,-3.67,7.54,-3.67,3.63,3.31,3.55,11.17,11.17,11.20
38.57,7.49,-3.65,7.49,-3.65,3.64,3.36,3.56,11.12,11.12,11.13
38.95,7.45,-3.62,7.44,-3.62,3.62,3.40,3.58,11.07,11.07,11.07
39.34,7.41,-3.58,7.41,-3.59,3.59,3.45,3.60,10.99,10.99,10.99
39.74,7.37,-3.55,7.38,-3.55,3.54,3.49,3.62,10.91,10.92,10.92
40.14,7.35,-3.51,7.35,-3.51,3.50,3.54,3.64,10.84,10.84,10.85
40.54,7.32,-3.47,7.32,-3.46,3.47,3.59,3.66,10.79,10.79,10.79
40.94,7.29,-3.43,7.29,-3.43,3.46,3.64,3.69,10.75,10.75,10.72
41.35,7.25,-3.41,7.25,-3.42,3.48,3.69,3.72,10.73,10.73,10.66
41.76,7.21,-3.45,7.21,-3.46,3.52,3.74,3.75,10.73,10.73,10.66
42.18,7.17,-3.54,7.17,-3.55,3.58,3.79,3.78,10.74,10.74,10.71
42.60,7.12,-3.66,7.12,-3.66,3.64,3.84,3.82,10.76,10.76,10.78
43.03,7.07,-3.78,7.07,-3.76,3.72,3.89,3.86,10.79,10.79,10.85
43.46,7.01,-3.85,7.01,-3.85,3.80,3.94,3.90,10.82,10.82,10.86
43.90,6.95,-3.91,6.96,-3.92,3.88,4.00,3.95,10.84,10.84,10.86
44.33,6.90,-3.97,6.89,-3.97,3.95,4.05,4.00,10.85,10.85,10.86
44.78,6.83,-4.03,6.83,-4.02,4.02,4.10,4.05,10.85,10.85,10.86
45.23,6.76,-4.07,6.76,-4.06,4.07,4.15,4.10,10.83,10.83,10.83
45.68,6.68,-4.08,6.68,-4.10,4.12,4.21,4.16,10.80,10.80,10.76
46.13,6.61,-4.15,6.61,-4.15,4.17,4.26,4.22,10.78,10.78,10.76
46.60,6.53,-4.23,6.53,-4.22,4.23,4.31,4.29,10.76,10.76,10.76
47.06,6.46,-4.30,6.46,-4.30,4.30,4.36,4.35,10.76,10.76,10.76
47.53,6.39,-4.37,6.39,-4.36,4.37,4.41,4.42,10.76,10.76,10.76
48.01,6.33,-4.43,6.33,-4.44,4.45,4.47,4.49,10.78,10.78,10.76
48.49,6.27,-4.50,6.27,-4.52,4.54,4.52,4.57,10.81,10.81,10.77
48.97,6.21,-4.63,6.21,-4.62,4.62,4.57,4.65,10.83,10.83,10.84
49.46,6.15,-4.71,6.15,-4.71,4.70,4.62,4.72,10.85,10.85,10.86
49.96,6.08,-4.78,6.08,-4.79,4.78,4.66,4.81,10.86,10.86,10.86
50.46,6.01,-4.85,6.01,-4.86,4.85,4.71,4.89,10.86,10.86,10.86
50.96,5.94,-4.92,5.94,-4.91,4.90,4.76,4.97,10.84,10.84,10.86
51.47,5.88,-4.96,5.88,-4.95,4.93,4.81,5.06,10.80,10.80,10.84
51.99,5.81,-4.96,5.81,-4.96,4.94,4.85,5.14,10.75,10.75,10.76
52.51,5.74,-4.96,5.74,-4.97,4.94,4.90,5.23,10.68,10.68,10.70
53.03,5.67,-4.96,5.67,-4.95,4.92,4.94,5.32,10.59,10.59,10.63
53.56,5.61,-4.94,5.61,-4.92,4.90,4.99,5.40,10.51,10.51,10.55
54.10,5.54,-4.87,5.55,-4.87,4.89,5.03,5.49,10.44,10.44,10.41
54.64,5.48,-4.84,5.48,-4.85,4.90,5.07,5.58,10.38,10.38,10.32
55.18,5.42,-4.84,5.41,-4.85,4.92,5.11,5.66,10.34,10.34,10.26
55.74,5.34,-4.92,5.34,-4.91,4.97,5.15,5.74,10.32,10.32,10.26
56.29,5.27,-4.99,5.27,-5.00,5.04,5.19,5.82,10.30,10.30,10.26
56.86,5.18,-5.10,5.18,-5.12,5.11,5.23,5.89,10.30,10.30,10.28
57.42,5.10,-5.25,5.10,-5.24,5.19,5.27,5.96,10.29,10.29,10.35
58.00,5.01,-5.35,5.02,-5.34,5.27,5.30,6.03,10.29,10.29,10.36
58.58,4.93,-5.41,4.93,-5.40,5.34,5.34,6.09,10.27,10.27,10.34
59.16,4.85,-5.41,4.85,-5.42,5.38,5.37,6.15,10.24,10.24,10.27
59.76,4.78,-5.42,4.78,-5.42,5.42,5.40,6.20,10.20,10.20,10.20
60.35,4.71,-5.42,4.71,-5.42,5.44,5.44,6.24,10.15,10.15,10.13
60.96,4.64,-5.42,4.64,-5.42,5.45,5.47,6.28,10.09,10.09,10.07
61.57,4.58,-5.41,4.58,-5.43,5.46,5.50,6.31,10.03,10.03,9.99
62.18,4.51,-5.45,4.51,-5.46,5.47,5.53,6.33,9.98,9.98,9.96
62.80,4.43,-5.52,4.43,-5.49,5.50,5.55,6.35,9.93,9.93,9.95
63.43,4.36,-5.53,4.36,-5.55,5.53,5.58,6.36,9.89,9.89,9.89
64.07,4.28,-5.58,4.28,-5.59,5.58,5.61,6.36,9.86,9.86,9.86
64.71,4.19,-5.66,4.19,-5.63,5.65,5.63,6.36,9.84,9.84,9.85
65.35,4.11,-5.67,4.11,-5.69,5.71,5.66,6.35,9.82,9.82,9.78
66.01,4.02,-5.74,4.02,-5.75,5.78,5.68,6.33,9.80,9.80,9.76
66.67,3.93,-5.84,3.93,-5.83,5.84,5.70,6.31,9.76,9.76,9.76
67.33,3.83,-5.93,3.83,-5.93,5.89,5.72,6.28,9.73,9.73,9.76
68.01,3.74,-6.02,3.74,-6.02,5.94,5.75,6.25,9.68,9.68,9.76
68.69,3.65,-6.11,3.65,-6.12,5.97,5.76,6.22,9.62,9.62,9.76
69.37,3.56,-6.20,3.56,-6.21,6.00,5.78,6.18,9.56,9.56,9.76
70.07,3.47,-6.29,3.47,-6.29,6.01,5.80,6.14,9.48,9.48,9.76
70.77,3.38,-6.35,3.38,-6.34,6.02,5.82,6.09,9.40,9.40,9.73
71.48,3.29,-6.37,3.29,-6.37,6.01,5.83,6.05,9.31,9.31,9.66
72.19,3.21,-6.38,3.21,-6.38,6.01,5.85,6.00,9.22,9.22,9.59
72.91,3.13,-6.39,3.13,-6.39,6.00,5.86,5.95,9.13,9.13,9.52
73.64,3.05,-6.40,3.05,-6.40,6.00,5.88,5.90,9.05,9.05,9.45
74.38,2.97,-6.42,2.97,-6.43,6.00,5.89,5.85,8.97,8.97,9.38
75.12,2.88,-6.48,2.88,-6.47,6.00,5.90,5.80,8.88,8.88,9.36
75.87,2.80,-6.55,2.80,-6.52,6.00,5.91,5.76,8.80,8.80,9.34
76.63,2.71,-6.56,2.71,-6.59,6.00,5.93,5.71,8.71,8.71,9.28
77.40,2.62,-6.64,2.62,-6.64,6.00,5.94,5.67,8.62,8.62,9.26
78.17,2.54,-6.70,2.54,-6.69,6.00,5.94,5.63,8.54,8.54,9.24
78.95,2.45,-6.73,2.45,-6.73,6.00,5.95,5.59,8.45,8.45,9.17
79.74,2.36,-6.74,2.36,-6.75,6.00,5.96,5.55,8.36,8.36,9.10
80.54,2.27,-6.76,2.27,-6.76,6.00,5.97,5.52,8.27,8.27,9.03
81.35,2.18,-6.79,2.18,-6.78,6.00,5.98,5.49,8.18,8.18,8.97
82.16,2.09,-6.81,2.09,-6.81,6.00,5.98,5.46,8.09,8.09,8.90
82.98,2.00,-6.83,2.00,-6.83,6.00,5.99,5.44,8.00,8.00,8.83
83.81,1.91,-6.85,1.91,-6.85,6.00,5.99,5.42,7.91,7.91,8.76
84.65,1.82,-6.87,1.82,-6.87,6.00,6.00,5.41,7.82,7.82,8.69
85.50,1.73,-6.89,1.73,-6.89,6.00,6.00,5.39,7.73,7.73,8.62
86.35,1.64,-6.91,1.64,-6.91,6.00,6.00,5.39,7.64,7.64,8.55
87.22,1.55,-6.93,1.55,-6.95,6.00,6.01,5.38,7.55,7.55,8.48
88.09,1.46,-7.00,1.46,-6.99,6.00,6.01,5.38,7.46,7.46,8.46
88.97,1.37,-7.07,1.37,-7.05,6.00,6.01,5.39,7.37,7.37,8.44
89.86,1.28,-7.09,1.28,-7.11,6.00,6.01,5.40,7.28,7.28,8.37
90.76,1.19,-7.17,1.19,-7.18,6.00,6.01,5.41,7.19,7.19,8.36
91.66,1.10,-7.26,1.10,-7.25,6.00,6.01,5.43,7.10,7.10,8.36
92.58,1.01,-7.35,1.01,-7.33,6.00,6.01,5.45,7.01,7.01,8.36
93.51,0.92,-7.37,0.92,-7.37,6.00,6.01,5.47,6.92,6.92,8.30
94.44,0.83,-7.39,0.83,-7.40,6.00,6.01,5.50,6.83,6.83,8.23
95.39,0.74,-7.42,0.74,-7.44,6.00,6.01,5.53,6.74,6.74,8.16
96.34,0.65,-7.51,0.65,-7.50,6.00,6.01,5.57,6.65,6.65,8.16
97.30,0.57,-7.56,0.57,-7.55,6.00,6.01,5.61,6.57,6.57,8.12
98.28,0.48,-7.58,0.48,-7.58,6.00,6.01,5.65,6.48,6.48,8.06
99.26,0.39,-7.59,0.39,-7.59,6.00,6.01,5.69,6.39,6.39,7.99
100.25,0.31,-7.61,0.31,-7.61,6.00,6.01,5.74,6.31,6.31,7.91
101.25,0.22,-7.63,0.22,-7.63,6.00,6.01,5.79,6.22,6.22,7.85
102.27,0.13,-7.66,0.13,-7.65,6.00,6.01,5.85,6.13,6.13,7.80
103.29,0.04,-7.69,0.04,-7.69,6.00,6.00,5.90,6.04,6.04,7.73
104.32,-0.04,-7.70,-0.04,-7.73,6.00,6.00,5.96,5.96,5.96,7.66
105.37,-0.13,-7.79,-0.13,-7.77,6.00,6.00,6.01,5.87,5.87,7.66
106.42,-0.21,-7.83,-0.21,-7.81,6.00,6.00,6.07,5.79,5.79,7.62
107.48,-0.28,-7.82,-0.28,-7.83,6.00,6.00,6.13,5.72,5.72,7.54
108.56,-0.36,-7.84,-0.36,-7.83,6.00,5.99,6.19,5.64,5.64,7.48
109.64,-0.43,-7.83,-0.43,-7.83,6.00,5.99,6.25,5.57,5.57,7.40
110.74,-0.51,-7.83,-0.51,-7.84,6.00,5.99,6.30,5.49,5.49,7.32
111.85,-0.58,-7.85,-0.58,-7.83,6.00,5.99,6.36,5.42,5.42,7.27
112.97,-0.66,-7.82,-0.66,-7.84,6.00,5.99,6.41,5.34,5.34,7.16
114.10,-0.74,-7.84,-0.74,-7.85,6.00,5.99,6.46,5.26,5.26,7.11
115.24,-0.82,-7.87,-0.82,-7.86,6.00,5.98,6.50,5.18,5.18,7.05
116.39,-0.90,-7.89,-0.90,-7.87,6.00,5.98,6.54,5.10,5.10,6.99
117.55,-0.97,-7.88,-0.97,-7.89,6.00,5.98,6.58,5.03,5.03,6.91
118.73,-1.04,-7.90,-1.04,-7.92,6.00,5.98,6.61,4.96,4.96,6.86
119.92,-1.11,-7.97,-1.11,-7.97,6.00,5.98,6.64,4.89,4.89,6.86
121.12,-1.18,-8.04,-1.18,-8.04,6.00,5.98,6.66,4.82,4.82,6.86
122.33,-1.24,-8.09,-1.24,-8.07,6.00,5.98,6.67,4.76,4.76,6.84
123.55,-1.31,-8.09,-1.31,-8.08,6.00,5.98,6.68,4.69,4.69,6.78
124.79,-1.37,-8.05,-1.37,-8.09,6.00,5.98,6.68,4.63,4.63,6.68
126.03,-1.43,-8.09,-1.43,-8.10,6.00,5.98,6.68,4.57,4.57,6.66
127.29,-1.50,-8.14,-1.50,-8.12,6.00,5.98,6.67,4.50,4.50,6.65
128.57,-1.56,-8.14,-1.56,-8.15,6.00,5.98,6.65,4.44,4.44,6.58
129.85,-1.62,-8.14,-1.62,-8.14,6.00,5.98,6.63,4.38,4.38,6.52
131.15,-1.69,-8.13,-1.69,-8.11,6.00,5.99,6.60,4.31,4.31,6.45
132.46,-1.74,-8.06,-1.74,-8.07,6.00,5.99,6.56,4.26,4.26,6.31
133.79,-1.80,-8.02,-1.80,-8.03,6.00,5.99,6.53,4.20,4.20,6.22
135.12,-1.86,-8.01,-1.86,-8.01,6.00,5.99,6.48,4.14,4.14,6.15
136.48,-1.91,-8.00,-1.91,-8.00,6.00,6.00,6.43,4.09,4.09,6.09
137.84,-1.97,-7.99,-1.97,-7.99,6.00,6.00,6.38,4.03,4.03,6.02
139.22,-2.02,-7.97,-2.02,-7.98,6.00,6.00,6.32,3.98,3.98,5.95
140.61,-2.07,-7.95,-2.07,-7.93,6.00,6.01,6.26,3.93,3.93,5.88
142.02,-2.12,-7.88,-2.12,-7.88,6.00,6.01,6.21,3.88,3.88,5.76
143.44,-2.16,-7.80,-2.16,-7.81,6.00,6.01,6.14,3.84,3.84,5.64
144.87,-2.20,-7.77,-2.20,-7.76,6.00,6.02,6.08,3.80,3.80,5.57
146.32,-2.24,-7.74,-2.24,-7.75,6.00,6.02,6.02,3.76,3.76,5.49
147.78,-2.28,-7.75,-2.28,-7.75,6.00,6.03,5.95,3.72,3.72,5.46
149.26,-2.33,-7.77,-2.33,-7.75,6.00,6.03,5.89,3.67,3.67,5.45
150.75,-2.37,-7.74,-2.37,-7.74,6.00,6.04,5.83,3.63,3.63,5.37
152.26,-2.40,-7.72,-2.40,-7.72,6.00,6.04,5.77,3.60,3.60,5.32
153.78,-2.44,-7.70,-2.44,-7.72,6.00,6.05,5.71,3.56,3.56,5.27
155.32,-2.47,-7.73,-2.47,-7.73,6.00,6.05,5.65,3.53,3.53,5.26
156.88,-2.50,-7.76,-2.50,-7.75,6.00,6.06,5.60,3.50,3.50,5.26
158.44,-2.53,-7.76,-2.53,-7.75,6.00,6.06,5.55,3.47,3.47,5.24
160.03,-2.56,-7.71,-2.56,-7.74,6.00,6.07,5.50,3.44,3.44,5.16
161.63,-2.59,-7.69,-2.59,-7.69,6.00,6.07,5.45,3.41,3.41,5.11
163.24,-2.62,-7.65,-2.62,-7.62,6.00,6.07,5.41,3.38,3.38,5.04
164.88,-2.65,-7.52,-2.65,-7.56,6.00,6.08,5.37,3.35,3.35,4.87
166.53,-2.68,-7.49,-2.68,-7.49,6.00,6.08,5.34,3.32,3.32,4.81
168.19,-2.70,-7.45,-2.70,-7.43,6.00,6.09,5.31,3.30,3.30,4.75
169.87,-2.73,-7.40,-2.73,-7.39,6.00,6.09,5.28,3.27,3.27,4.67
171.57,-2.75,-7.34,-2.75,-7.36,6.00,6.09,5.25,3.25,3.25,4.58
173.29,-2.78,-7.34,-2.78,-7.34,6.00,6.09,5.23,3.22,3.22,4.56
175.02,-2.80,-7.36,-2.79,-7.32,6.00,6.09,5.22,3.20,3.21,4.56
176.77,-2.81,-7.28,-2.81,-7.29,6.00,6.09,5.20,3.19,3.19,4.47
178.54,-2.83,-7.23,-2.83,-7.25,6.00,6.09,5.20,3.17,3.17,4.41
180.32,-2.84,-7.19,-2.84,-7.19,6.00,6.09,5.19,3.16,3.16,4.35
182.13,-2.85,-7.14,-2.85,-7.12,6.00,6.09,5.19,3.15,3.15,4.29
183.95,-2.86,-7.03,-2.86,-7.03,6.00,6.08,5.19,3.14,3.14,4.17
185.79,-2.88,-6.91,-2.88,-6.94,6.00,6.08,5.20,3.12,3.12,4.03
187.65,-2.89,-6.86,-2.89,-6.86,6.00,6.07,5.21,3.11,3.11,3.97
189.52,-2.91,-6.82,-2.91,-6.81,6.00,6.06,5.23,3.09,3.09,3.91
191.42,-2.92,-6.77,-2.92,-6.77,6.00,6.06,5.24,3.08,3.08,3.85
193.33,-2.94,-6.72,-2.94,-6.71,6.00,6.04,5.27,3.06,3.06,3.78
195.27,-2.95,-6.65,-2.95,-6.65,6.00,6.03,5.29,3.05,3.05,3.70
197.22,-2.96,-6.58,-2.96,-6.58,6.00,6.02,5.32,3.04,3.04,3.62
199.19,-2.97,-6.52,-2.97,-6.52,6.00,6.00,5.35,3.03,3.03,3.55
201.18,-2.97,-6.46,-2.97,-6.48,6.00,5.99,5.38,3.03,3.03,3.49
203.19,-2.98,-6.44,-2.98,-6.45,6.00,5.97,5.41,3.02,3.02,3.46
205.23,-2.99,-6.44,-2.99,-6.42,6.00,5.95,5.45,3.01,3.01,3.45
207.28,-2.99,-6.38,-2.99,-6.39,6.00,5.92,5.49,3.01,3.01,3.38
209.35,-3.00,-6.32,-3.00,-6.31,6.01,5.90,5.53,3.01,3.01,3.32
211.44,-3.01,-6.24,-3.01,-6.22,6.01,5.87,5.56,3.00,3.00,3.23
213.56,-3.01,-6.10,-3.01,-6.14,6.00,5.84,5.60,3.00,2.99,3.09
215.69,-3.01,-6.08,-3.01,-6.08,6.00,5.81,5.64,2.98,2.98,3.06
217.85,-3.02,-6.05,-3.02,-6.03,5.99,5.78,5.68,2.97,2.97,3.03
220.03,-3.03,-5.99,-3.03,-5.99,5.98,5.75,5.72,2.95,2.95,2.96
222.23,-3.03,-5.94,-3.03,-5.95,5.95,5.71,5.75,2.92,2.92,2.90
224.45,-3.04,-5.90,-3.04,-5.91,5.92,5.67,5.79,2.88,2.88,2.86
226.70,-3.04,-5.90,-3.04,-5.88,5.88,5.63,5.81,2.84,2.84,2.86
228.96,-3.04,-5.84,-3.04,-5.84,5.82,5.59,5.84,2.78,2.78,2.80
231.25,-3.04,-5.77,-3.04,-5.79,5.76,5.54,5.86,2.71,2.71,2.73
233.57,-3.04,-5.71,-3.04,-5.71,5.69,5.50,5.88,2.65,2.65,2.67
235.90,-3.04,-5.63,-3.04,-5.61,5.62,5.45,5.89,2.58,2.58,2.60
238.26,-3.03,-5.51,-3.03,-5.51,5.55,5.40,5.89,2.52,2.51,2.48
240.64,-3.03,-5.39,-3.03,-5.43,5.47,5.35,5.89,2.44,2.44,2.36
243.05,-3.03,-5.39,-3.03,-5.37,5.39,5.29,5.89,2.36,2.36,2.36
245.48,-3.02,-5.33,-3.02,-5.32,5.30,5.24,5.87,2.28,2.28,2.31
247.93,-3.01,-5.25,-3.01,-5.26,5.21,5.18,5.85,2.20,2.20,2.24
250.41,-3.00,-5.18,-3.00,-5.16,5.12,5.12,5.82,2.12,2.12,2.18
252.92,-2.98,-5.05,-2.98,-5.04,5.03,5.06,5.78,2.04,2.04,2.06
255.45,-2.97,-4.91,-2.97,-4.93,4.94,5.00,5.74,1.97,1.97,1.95
258.00,-2.95,-4.82,-2.96,-4.82,4.85,4.94,5.69,1.90,1.90,1.86
260.58,-2.95,-4.74,-2.95,-4.73,4.77,4.88,5.63,1.83,1.83,1.80
263.19,-2.94,-4.67,-2.94,-4.67,4.70,4.81,5.56,1.76,1.76,1.73
265.82,-2.93,-4.60,-2.93,-4.62,4.63,4.75,5.49,1.70,1.70,1.67
268.48,-2.93,-4.59,-2.93,-4.58,4.58,4.68,5.41,1.65,1.65,1.66
271.16,-2.93,-4.56,-2.93,-4.55,4.53,4.61,5.33,1.60,1.60,1.63
273.87,-2.93,-4.49,-2.93,-4.49,4.47,4.55,5.24,1.55,1.55,1.56
276.61,-2.93,-4.42,-2.93,-4.42,4.41,4.48,5.15,1.49,1.49,1.50
279.38,-2.92,-4.35,-2.92,-4.35,4.34,4.41,5.05,1.42,1.42,1.43
282.17,-2.92,-4.28,-2.92,-4.28,4.26,4.34,4.95,1.34,1.34,1.36
284.99,-2.92,-4.21,-2.92,-4.19,4.18,4.27,4.84,1.26,1.26,1.29
287.84,-2.92,-4.09,-2.92,-4.09,4.09,4.20,4.74,1.17,1.17,1.17
290.72,-2.92,-3.96,-2.92,-3.98,4.00,4.13,4.63,1.08,1.08,1.04
293.63,-2.92,-3.89,-2.92,-3.88,3.91,4.06,4.52,0.99,0.99,0.97
296.57,-2.92,-3.81,-2.92,-3.81,3.82,3.99,4.41,0.91,0.91,0.90
299.53,-2.91,-3.74,-2.91,-3.75,3.74,3.92,4.29,0.83,0.83,0.83
302.53,-2.91,-3.68,-2.91,-3.68,3.67,3.85,4.18,0.76,0.76,0.77
305.55,-2.91,-3.61,-2.91,-3.60,3.61,3.78,4.07,0.70,0.70,0.70
308.61,-2.90,-3.53,-2.90,-3.54,3.55,3.71,3.96,0.65,0.65,0.63
311.69,-2.90,-3.47,-2.90,-3.48,3.49,3.64,3.84,0.60,0.60,0.57
314.81,-2.89,-3.45,-2.89,-3.44,3.44,3.57,3.73,0.55,0.55,0.56
317.96,-2.89,-3.41,-2.89,-3.40,3.38,3.50,3.62,0.49,0.49,0.52
321.14,-2.88,-3.34,-2.88,-3.34,3.32,3.43,3.51,0.43,0.43,0.46
324.35,-2.88,-3.26,-2.88,-3.27,3.26,3.36,3.41,0.37,0.37,0.38
327.59,-2.88,-3.19,-2.88,-3.19,3.19,3.29,3.30,0.31,0.31,0.31
330.87,-2.88,-3.12,-2.88,-3.12,3.12,3.22,3.20,0.24,0.24,0.24
334.18,-2.88,-3.06,-2.88,-3.05,3.06,3.15,3.09,0.18,0.18,0.18
337.52,-2.88,-2.99,-2.88,-2.98,3.00,3.08,2.99,0.12,0.12,0.11
340.90,-2.87,-2.92,-2.87,-2.91,2.94,3.01,2.89,0.06,0.06,0.04
344.30,-2.87,-2.85,-2.87,-2.87,2.87,2.95,2.79,0.00,0.00,-0.03
347.75,-2.87,-2.83,-2.87,-2.83,2.82,2.88,2.70,-0.05,-0.05,-0.04
351.23,-2.87,-2.81,-2.87,-2.79,2.76,2.82,2.61,-0.11,-0.11,-0.06
354.74,-2.87,-2.73,-2.87,-2.74,2.71,2.75,2.51,-0.16,-0.16,-0.13
358.28,-2.87,-2.66,-2.87,-2.66,2.66,2.68,2.42,-0.20,-0.20,-0.20
361.87,-2.86,-2.58,-2.86,-2.58,2.62,2.62,2.34,-0.24,-0.24,-0.28
365.49,-2.86,-2.52,-2.86,-2.54,2.58,2.56,2.25,-0.28,-0.28,-0.34
369.14,-2.85,-2.51,-2.85,-2.51,2.53,2.49,2.17,-0.32,-0.32,-0.34
372.83,-2.85,-2.51,-2.85,-2.50,2.49,2.43,2.08,-0.36,-0.36,-0.34
376.56,-2.84,-2.49,-2.84,-2.48,2.44,2.37,2.00,-0.40,-0.40,-0.35
380.33,-2.84,-2.43,-2.84,-2.43,2.39,2.31,1.93,-0.45,-0.45,-0.41
384.13,-2.83,-2.35,-2.83,-2.36,2.34,2.24,1.85,-0.50,-0.50,-0.48
387.97,-2.83,-2.28,-2.83,-2.28,2.28,2.18,1.77,-0.55,-0.55,-0.56
391.85,-2.83,-2.21,-2.83,-2.20,2.23,2.12,1.70,-0.60,-0.60,-0.62
395.77,-2.82,-2.13,-2.82,-2.14,2.17,2.06,1.63,-0.65,-0.65,-0.69
399.73,-2.82,-2.08,-2.82,-2.09,2.12,2.00,1.56,-0.71,-0.71,-0.74
403.72,-2.82,-2.08,-2.82,-2.05,2.06,1.94,1.49,-0.75,-0.75,-0.74
407.76,-2.81,-2.01,-2.81,-2.02,2.01,1.89,1.42,-0.80,-0.80,-0.80
411.84,-2.81,-1.97,-2.81,-1.99,1.97,1.83,1.36,-0.84,-0.84,-0.84
415.96,-2.80,-1.96,-2.80,-1.94,1.92,1.77,1.29,-0.89,-0.89,-0.84
420.12,-2.80,-1.89,-2.80,-1.89,1.87,1.71,1.23,-0.93,-0.93,-0.91
424.32,-2.80,-1.82,-2.80,-1.82,1.82,1.66,1.16,-0.97,-0.97,-0.98
428.56,-2.79,-1.74,-2.79,-1.74,1.77,1.60,1.10,-1.02,-1.02,-1.05
432.85,-2.79,-1.67,-2.79,-1.69,1.71,1.55,1.04,-1.07,-1.07,-1.12
437.18,-2.78,-1.64,-2.78,-1.65,1.65,1.49,0.99,-1.13,-1.13,-1.14
441.55,-2.78,-1.63,-2.78,-1.60,1.59,1.44,0.93,-1.18,-1.18,-1.15
445.96,-2.77,-1.55,-2.77,-1.55,1.53,1.38,0.87,-1.24,-1.24,-1.22
450.42,-2.77,-1.48,-2.77,-1.48,1.46,1.33,0.82,-1.30,-1.30,-1.29
454.93,-2.76,-1.41,-2.76,-1.40,1.40,1.27,0.76,-1.36,-1.36,-1.35
459.48,-2.76,-1.33,-2.76,-1.33,1.33,1.22,0.71,-1.43,-1.43,-1.43
464.07,-2.75,-1.25,-2.75,-1.25,1.26,1.17,0.66,-1.49,-1.49,-1.50
468.71,-2.75,-1.18,-2.75,-1.18,1.19,1.11,0.61,-1.55,-1.55,-1.56
473.40,-2.74,-1.11,-2.74,-1.10,1.13,1.06,0.56,-1.61,-1.61,-1.63
478.13,-2.73,-1.04,-2.73,-1.05,1.07,1.01,0.51,-1.67,-1.67,-1.70
482.91,-2.73,-0.99,-2.73,-1.00,1.01,0.96,0.46,-1.72,-1.72,-1.74
487.74,-2.72,-0.98,-2.72,-0.96,0.95,0.91,0.41,-1.78,-1.78,-1.74
492.62,-2.72,-0.91,-2.72,-0.91,0.88,0.85,0.37,-1.84,-1.84,-1.81
497.55,-2.71,-0.84,-2.71,-0.84,0.81,0.80,0.32,-1.90,-1.90,-1.88
502.52,-2.70,-0.76,-2.70,-0.76,0.75,0.75,0.28,-1.96,-1.96,-1.95
507.55,-2.70,-0.68,-2.70,-0.68,0.68,0.70,0.23,-2.02,-2.02,-2.02
