frequency,raw,error,smoothed,error_smoothed,equalization,parametric_eq,fixed_band_eq,equalized_raw,equalized_smoothed,target
20.00,8.37,-7.25,8.36,-7.26,6.00,5.71,2.59,14.37,14.36,15.62
20.20,8.55,-7.07,8.56,-7.06,6.00,5.74,2.67,14.55,14.56,15.62
20.40,8.71,-6.90,8.72,-6.89,6.00,5.76,2.74,14.71,14.72,15.61
20.61,8.87,-6.73,8.86,-6.74,6.00,5.79,2.82,14.87,14.86,15.60
20.81,8.98,-6.61,8.98,-6.61,6.00,5.82,2.90,14.98,14.98,15.59
21.02,9.06,-6.51,9.06,-6.51,6.00,5.85,2.99,15.06,15.06,15.57
21.23,9.11,-6.44,9.10,-6.45,6.00,5.87,3.07,15.11,15.10,15.55
21.44,9.11,-6.42,9.11,-6.43,6.00,5.90,3.16,15.11,15.11,15.53
21.66,9.07,-6.44,9.08,-6.44,6.00,5.93,3.25,15.07,15.08,15.51
21.87,9.03,-6.47,9.03,-6.47,6.00,5.95,3.35,15.03,15.03,15.49
22.09,8.96,-6.51,8.96,-6.51,6.00,5.98,3.44,14.96,14.96,15.47
22.31,8.89,-6.56,8.89,-6.56,6.00,6.00,3.54,14.89,14.89,15.45
22.54,8.81,-6.61,8.81,-6.61,6.00,6.03,3.64,14.81,14.81,15.43
22.76,8.74,-6.66,8.74,-6.66,6.00,6.05,3.75,14.74,14.74,15.41
22.99,8.68,-6.70,8.68,-6.71,6.00,6.07,3.85,14.68,14.68,15.38
23.22,8.63,-6.74,8.63,-6.74,6.00,6.09,3.96,14.63,14.63,15.36
23.45,8.59,-6.75,8.59,-6.75,6.00,6.11,4.07,14.59,14.59,15.34
23.69,8.58,-6.74,8.58,-6.74,6.00,6.12,4.19,14.58,14.58,15.32
23.92,8.60,-6.70,8.60,-6.70,6.00,6.13,4.30,14.60,14.60,15.30
24.16,8.66,-6.62,8.66,-6.62,6.00,6.14,4.42,14.66,14.66,15.28
24.40,8.74,-6.51,8.75,-6.51,6.00,6.15,4.54,14.74,14.75,15.25
24.65,8.85,-6.38,8.85,-6.38,6.00,6.15,4.66,14.85,14.85,15.23
24.89,8.96,-6.24,8.96,-6.24,6.00,6.15,4.78,14.96,14.96,15.20
25.14,9.04,-6.14,9.05,-6.13,6.00,6.14,4.91,15.04,15.05,15.18
25.39,9.10,-6.05,9.09,-6.06,6.00,6.14,5.03,15.10,15.09,15.15
25.65,9.08,-6.04,9.08,-6.04,6.00,6.13,5.16,15.08,15.08,15.13
25.91,9.03,-6.07,9.03,-6.08,6.00,6.12,5.29,15.03,15.03,15.10
26.16,8.93,-6.15,8.92,-6.15,6.00,6.10,5.41,14.93,14.92,15.08
26.43,8.80,-6.25,8.80,-6.25,6.00,6.08,5.54,14.80,14.80,15.05
26.69,8.68,-6.35,8.68,-6.35,6.00,6.06,5.66,14.68,14.68,15.03
26.96,8.58,-6.42,8.59,-6.41,6.00,6.03,5.79,14.58,14.59,15.00
27.23,8.53,-6.44,8.54,-6.43,6.00,6.00,5.91,14.53,14.54,14.97
27.50,8.54,-6.41,8.54,-6.41,6.00,5.98,6.02,14.54,14.54,14.95
27.77,8.56,-6.36,8.56,-6.36,6.00,5.94,6.14,14.56,14.56,14.92
28.05,8.58,-6.30,8.58,-6.31,6.00,5.91,6.25,14.58,14.58,14.89
28.33,8.58,-6.27,8.58,-6.28,6.00,5.87,6.35,14.58,14.58,14.86
28.62,8.56,-6.26,8.56,-6.27,6.00,5.84,6.45,14.56,14.56,14.83
28.90,8.51,-6.28,8.51,-6.28,6.00,5.80,6.54,14.51,14.51,14.80
29.19,8.46,-6.31,8.46,-6.31,6.00,5.76,6.62,14.46,14.46,14.77
29.48,8.41,-6.33,8.42,-6.32,6.00,5.72,6.69,14.41,14.42,14.73
29.78,8.40,-6.30,8.40,-6.30,6.01,5.68,6.76,14.41,14.41,14.70
30.08,8.41,-6.27,8.41,-6.26,6.02,5.64,6.81,14.43,14.43,14.67
30.38,8.44,-6.20,8.44,-6.21,6.03,5.60,6.86,14.47,14.47,14.64
30.68,8.47,-6.14,8.46,-6.15,6.02,5.56,6.89,14.49,14.49,14.61
30.99,8.49,-6.08,8.49,-6.09,6.00,5.52,6.91,14.49,14.48,14.57
31.30,8.51,-6.03,8.51,-6.03,5.94,5.48,6.92,14.45,14.45,14.54
31.61,8.55,-5.95,8.56,-5.94,5.86,5.44,6.92,14.41,14.42,14.50
31.93,8.62,-5.84,8.63,-5.83,5.75,5.40,6.91,14.38,14.39,14.46
32.24,8.75,-5.67,8.75,-5.67,5.63,5.36,6.89,14.37,14.38,14.42
32.57,8.89,-5.49,8.89,-5.49,5.49,5.32,6.85,14.38,14.39,14.38
32.89,9.04,-5.30,9.04,-5.31,5.36,5.28,6.81,14.41,14.40,14.34
33.22,9.15,-5.16,9.15,-5.16,5.25,5.24,6.76,14.40,14.40,14.30
33.55,9.22,-5.05,9.21,-5.06,5.15,5.20,6.70,14.37,14.36,14.26
33.89,9.21,-5.01,9.21,-5.02,5.09,5.17,6.63,14.30,14.29,14.22
34.23,9.16,-5.02,9.16,-5.02,5.04,5.13,6.55,14.20,14.20,14.18
34.57,9.10,-5.04,9.10,-5.04,5.01,5.09,6.47,14.11,14.11,14.14
34.92,9.05,-5.05,9.06,-5.04,4.98,5.06,6.38,14.03,14.04,14.10
35.27,9.04,-5.02,9.04,-5.02,4.94,5.02,6.28,13.98,13.98,14.06
35.62,9.06,-4.96,9.06,-4.96,4.89,4.98,6.18,13.95,13.96,14.02
35.97,9.11,-4.87,9.11,-4.87,4.83,4.95,6.08,13.94,13.94,13.98
36.33,9.17,-4.76,9.17,-4.76,4.77,4.92,5.97,13.94,13.94,13.94
36.70,9.23,-4.67,9.23,-4.66,4.70,4.88,5.87,13.93,13.93,13.89
37.06,9.26,-4.59,9.25,-4.59,4.66,4.85,5.76,13.92,13.91,13.85
37.43,9.25,-4.55,9.24,-4.56,4.64,4.81,5.65,13.88,13.87,13.80
37.81,9.18,-4.58,9.18,-4.57,4.64,4.78,5.54,13.81,13.82,13.75
38.19,9.09,-4.61,9.08,-4.62,4.66,4.75,5.43,13.75,13.74,13.70
38.57,8.96,-4.70,8.96,-4.69,4.69,4.72,5.32,13.65,13.65,13.66
38.95,8.85,-4.76,8.85,-4.76,4.72,4.68,5.21,13.57,13.57,13.61
39.34,8.75,-4.81,8.76,-4.80,4.73,4.65,5.11,13.48,13.49,13.56
39.74,8.71,-4.81,8.72,-4.80,4.72,4.62,5.00,13.43,13.44,13.52
40.14,8.73,-4.75,8.73,-4.74,4.68,4.59,4.90,13.41,13.41,13.47
40.54,8.78,-4.64,8.78,-4.65,4.62,4.56,4.80,13.40,13.40,13.42
40.94,8.85,-4.53,8.84,-4.53,4.55,4.53,4.70,13.39,13.39,13.38
41.35,8.90,-4.42,8.90,-4.43,4.46,4.49,4.61,13.36,13.36,13.33
41.76,8.94,-4.34,8.94,-4.34,4.38,4.46,4.52,13.32,13.32,13.28
42.18,8.95,-4.28,8.96,-4.28,4.31,4.43,4.43,13.27,13.27,13.23
42.60,8.95,-4.24,8.95,-4.24,4.27,4.40,4.34,13.22,13.22,13.19
43.03,8.92,-4.22,8.92,-4.22,4.25,4.37,4.26,13.17,13.17,13.14
43.46,8.86,-4.23,8.86,-4.23,4.25,4.34,4.18,13.12,13.12,13.09
43.90,8.79,-4.26,8.79,-4.26,4.26,4.31,4.10,13.05,13.05,13.05
44.33,8.70,-4.30,8.70,-4.30,4.28,4.28,4.03,12.98,12.98,13.00
44.78,8.62,-4.33,8.62,-4.33,4.28,4.25,3.95,12.90,12.90,12.95
45.23,8.55,-4.34,8.56,-4.33,4.28,4.22,3.89,12.83,12.84,12.89
45.68,8.52,-4.32,8.52,-4.31,4.28,4.19,3.82,12.80,12.80,12.84
46.13,8.51,-4.27,8.51,-4.27,4.27,4.16,3.76,12.78,12.78,12.78
46.60,8.51,-4.22,8.51,-4.22,4.25,4.13,3.70,12.77,12.77,12.73
47.06,8.50,-4.17,8.50,-4.18,4.24,4.10,3.64,12.74,12.74,12.68
47.53,8.47,-4.15,8.46,-4.16,4.21,4.07,3.59,12.69,12.68,12.62
48.01,8.40,-4.17,8.40,-4.17,4.18,4.04,3.54,12.59,12.59,12.57
48.49,8.33,-4.18,8.34,-4.18,4.14,4.01,3.49,12.47,12.48,12.52
48.97,8.29,-4.17,8.29,-4.16,4.09,3.98,3.45,12.38,12.38,12.46
49.46,8.28,-4.12,8.30,-4.10,4.03,3.95,3.40,12.31,12.33,12.40
49.96,8.33,-4.00,8.34,-4.00,3.97,3.92,3.36,12.31,12.31,12.34
50.46,8.40,-3.87,8.40,-3.88,3.90,3.89,3.32,12.31,12.31,12.28
50.96,8.46,-3.76,8.45,-3.76,3.83,3.86,3.29,12.29,12.29,12.22
51.47,8.48,-3.67,8.47,-3.69,3.76,3.83,3.25,12.24,12.23,12.16
51.99,8.45,-3.65,8.45,-3.65,3.68,3.80,3.22,12.13,12.13,12.10
52.51,8.42,-3.62,8.42,-3.62,3.60,3.77,3.19,12.02,12.02,12.04
53.03,8.39,-3.59,8.40,-3.58,3.52,3.74,3.16,11.91,11.93,11.98
53.56,8.41,-3.52,8.41,-3.51,3.45,3.71,3.13,11.87,11.87,11.93
54.10,8.45,-3.42,8.45,-3.42,3.39,3.68,3.11,11.84,11.84,11.87
54.64,8.50,-3.31,8.50,-3.32,3.32,3.65,3.08,11.82,11.82,11.81
55.18,8.54,-3.22,8.53,-3.23,3.26,3.61,3.06,11.80,11.79,11.76
55.74,8.53,-3.16,8.53,-3.16,3.20,3.58,3.03,11.74,11.74,11.70
56.29,8.51,-3.13,8.51,-3.13,3.17,3.55,3.01,11.67,11.67,11.63
56.86,8.45,-3.12,8.45,-3.12,3.15,3.52,2.99,11.60,11.60,11.57
57.42,8.37,-3.14,8.37,-3.13,3.15,3.49,2.96,11.53,11.53,11.51
58.00,8.28,-3.16,8.28,-3.16,3.17,3.46,2.94,11.45,11.45,11.44
58.58,8.18,-3.20,8.18,-3.20,3.20,3.43,2.92,11.37,11.38,11.38
59.16,8.08,-3.24,8.08,-3.24,3.22,3.40,2.89,11.30,11.30,11.32
59.76,7.99,-3.26,7.99,-3.26,3.23,3.37,2.87,11.22,11.22,11.25
60.35,7.92,-3.27,7.92,-3.27,3.23,3.33,2.85,11.15,11.15,11.19
60.96,7.87,-3.25,7.88,-3.25,3.21,3.30,2.82,11.09,11.09,11.13
61.57,7.86,-3.20,7.86,-3.20,3.18,3.27,2.80,11.04,11.04,11.06
62.18,7.87,-3.13,7.87,-3.13,3.13,3.24,2.77,11.00,11.00,11.00
62.80,7.88,-3.06,7.88,-3.06,3.07,3.21,2.74,10.95,10.95,10.94
63.43,7.89,-2.99,7.89,-2.99,3.00,3.18,2.72,10.89,10.89,10.88
64.07,7.89,-2.92,7.89,-2.92,2.93,3.14,2.69,10.83,10.83,10.81
64.71,7.88,-2.86,7.89,-2.86,2.87,3.11,2.66,10.75,10.75,10.74
65.35,7.87,-2.80,7.87,-2.80,2.81,3.08,2.63,10.68,10.68,10.67
66.01,7.85,-2.75,7.85,-2.75,2.76,3.05,2.60,10.61,10.61,10.60
66.67,7.82,-2.71,7.81,-2.71,2.72,3.02,2.57,10.54,10.54,10.52
67.33,7.77,-2.68,7.77,-2.68,2.68,2.98,2.53,10.45,10.45,10.45
68.01,7.73,-2.65,7.73,-2.65,2.64,2.95,2.50,10.36,10.37,10.38
68.69,7.68,-2.62,7.69,-2.62,2.60,2.92,2.47,10.28,10.28,10.30
69.37,7.66,-2.57,7.66,-2.57,2.55,2.89,2.44,10.21,10.21,10.23
70.07,7.64,-2.52,7.64,-2.52,2.51,2.86,2.40,10.15,10.15,10.16
70.77,7.63,-2.46,7.63,-2.46,2.46,2.82,2.37,10.09,10.09,10.08
71.48,7.62,-2.40,7.61,-2.40,2.41,2.79,2.34,10.03,10.03,10.01
72.19,7.60,-2.35,7.59,-2.35,2.37,2.76,2.30,9.96,9.96,9.95
72.91,7.57,-2.31,7.57,-2.31,2.32,2.73,2.27,9.89,9.89,9.88
73.64,7.54,-2.28,7.54,-2.27,2.27,2.69,2.24,9.81,9.81,9.82
74.38,7.52,-2.24,7.52,-2.23,2.23,2.66,2.21,9.74,9.74,9.75
75.12,7.50,-2.19,7.50,-2.19,2.18,2.63,2.18,9.68,9.68,9.69
75.87,7.47,-2.15,7.47,-2.15,2.14,2.60,2.15,9.62,9.62,9.62
76.63,7.45,-2.11,7.45,-2.11,2.11,2.56,2.12,9.55,9.55,9.56
77.40,7.42,-2.07,7.42,-2.07,2.07,2.53,2.09,9.49,9.49,9.49
78.17,7.38,-2.03,7.38,-2.03,2.04,2.50,2.06,9.42,9.42,9.41
78.95,7.34,-2.00,7.34,-2.00,2.01,2.47,2.03,9.36,9.35,9.34
79.74,7.28,-1.98,7.28,-1.98,1.99,2.43,2.01,9.28,9.28,9.26
80.54,7.22,-1.97,7.22,-1.97,1.98,2.40,1.98,9.19,9.19,9.18
81.35,7.14,-1.96,7.14,-1.96,1.96,2.37,1.96,9.10,9.10,9.11
82.16,7.07,-1.95,7.07,-1.95,1.94,2.33,1.94,9.01,9.01,9.03
82.98,7.01,-1.94,7.01,-1.94,1.91,2.30,1.92,8.92,8.92,8.94
83.81,6.95,-1.91,6.95,-1.91,1.88,2.27,1.90,8.83,8.83,8.86
84.65,6.90,-1.87,6.91,-1.87,1.85,2.24,1.88,8.76,8.76,8.77
85.50,6.87,-1.82,6.87,-1.82,1.82,2.20,1.87,8.68,8.69,8.69
86.35,6.84,-1.77,6.84,-1.77,1.78,2.17,1.85,8.62,8.62,8.60
87.22,6.80,-1.72,6.80,-1.73,1.75,2.14,1.84,8.55,8.55,8.52
88.09,6.75,-1.70,6.74,-1.70,1.73,2.11,1.83,8.47,8.47,8.44
88.97,6.68,-1.69,6.68,-1.69,1.71,2.07,1.82,8.39,8.39,8.36
89.86,6.60,-1.69,6.60,-1.69,1.69,2.04,1.81,8.30,8.30,8.29
90.76,6.53,-1.69,6.53,-1.69,1.68,2.01,1.80,8.21,8.21,8.22
91.66,6.46,-1.69,6.46,-1.69,1.67,1.97,1.79,8.12,8.12,8.15
92.58,6.39,-1.68,6.40,-1.68,1.65,1.94,1.79,8.04,8.05,8.07
93.51,6.35,-1.65,6.35,-1.65,1.63,1.91,1.78,7.98,7.98,8.00
94.44,6.31,-1.61,6.31,-1.61,1.60,1.88,1.78,7.91,7.91,7.92
95.39,6.28,-1.57,6.28,-1.57,1.57,1.84,1.78,7.85,7.85,7.85
96.34,6.24,-1.53,6.24,-1.53,1.54,1.81,1.78,7.79,7.79,7.77
97.30,6.20,-1.49,6.19,-1.50,1.52,1.78,1.78,7.71,7.71,7.69
98.28,6.13,-1.48,6.13,-1.48,1.50,1.75,1.78,7.62,7.62,7.61
99.26,6.05,-1.48,6.05,-1.48,1.48,1.71,1.78,7.53,7.53,7.53
100.25,5.97,-1.48,5.97,-1.48,1.47,1.68,1.78,7.44,7.44,7.44
101.25,5.88,-1.48,5.88,-1.48,1.47,1.65,1.79,7.35,7.35,7.36
102.27,5.80,-1.48,5.80,-1.48,1.47,1.62,1.79,7.27,7.27,7.27
103.29,5.71,-1.48,5.71,-1.48,1.48,1.58,1.80,7.19,7.19,7.19
104.32,5.63,-1.48,5.62,-1.48,1.49,1.55,1.80,7.11,7.11,7.10
105.37,5.53,-1.49,5.53,-1.49,1.50,1.52,1.80,7.03,7.03,7.02
106.42,5.43,-1.50,5.43,-1.50,1.51,1.49,1.81,6.94,6.94,6.94
107.48,5.33,-1.52,5.33,-1.52,1.52,1.45,1.81,6.85,6.85,6.85
108.56,5.23,-1.54,5.23,-1.54,1.53,1.42,1.82,6.76,6.76,6.77
109.64,5.13,-1.55,5.13,-1.55,1.54,1.39,1.82,6.68,6.68,6.69
110.74,5.04,-1.56,5.04,-1.56,1.55,1.36,1.82,6.59,6.60,6.60
111.85,4.96,-1.56,4.96,-1.56,1.56,1.32,1.82,6.52,6.52,6.52
112.97,4.88,-1.56,4.88,-1.56,1.56,1.29,1.82,6.44,6.44,6.44
114.10,4.80,-1.56,4.80,-1.56,1.56,1.26,1.82,6.36,6.36,6.36
115.24,4.72,-1.55,4.72,-1.55,1.56,1.23,1.82,6.28,6.28,6.27
116.39,4.64,-1.55,4.64,-1.55,1.56,1.20,1.82,6.19,6.19,6.19
117.55,4.56,-1.55,4.56,-1.55,1.55,1.16,1.81,6.11,6.11,6.11
118.73,4.48,-1.55,4.49,-1.55,1.54,1.13,1.80,6.03,6.03,6.03
119.92,4.41,-1.54,4.41,-1.54,1.53,1.10,1.79,5.94,5.94,5.95
121.12,4.33,-1.53,4.33,-1.53,1.53,1.07,1.78,5.86,5.86,5.86
122.33,4.25,-1.51,4.25,-1.52,1.52,1.03,1.76,5.77,5.77,5.77
123.55,4.17,-1.50,4.17,-1.50,1.51,1.00,1.74,5.68,5.68,5.67
124.79,4.08,-1.50,4.08,-1.50,1.50,0.97,1.72,5.58,5.58,5.58
126.03,4.00,-1.49,4.00,-1.49,1.49,0.94,1.70,5.49,5.49,5.49
127.29,3.92,-1.49,3.92,-1.49,1.49,0.91,1.67,5.41,5.41,5.41
128.57,3.84,-1.48,3.84,-1.48,1.48,0.87,1.64,5.33,5.33,5.33
129.85,3.77,-1.48,3.77,-1.48,1.48,0.84,1.61,5.25,5.25,5.25
131.15,3.70,-1.47,3.70,-1.47,1.47,0.81,1.58,5.17,5.17,5.17
132.46,3.62,-1.47,3.62,-1.47,1.46,0.78,1.54,5.08,5.08,5.09
133.79,3.55,-1.46,3.55,-1.45,1.45,0.75,1.50,5.00,5.00,5.00
135.12,3.47,-1.44,3.47,-1.44,1.44,0.71,1.46,4.91,4.91,4.91
136.48,3.40,-1.42,3.40,-1.42,1.42,0.68,1.41,4.82,4.82,4.82
137.84,3.32,-1.40,3.32,-1.40,1.41,0.65,1.37,4.73,4.73,4.73
139.22,3.26,-1.38,3.26,-1.38,1.39,0.62,1.32,4.64,4.64,4.64
140.61,3.19,-1.36,3.19,-1.36,1.36,0.58,1.27,4.55,4.55,4.55
142.02,3.12,-1.34,3.12,-1.34,1.34,0.55,1.22,4.46,4.46,4.46
143.44,3.06,-1.32,3.06,-1.31,1.31,0.52,1.17,4.37,4.37,4.38
144.87,3.01,-1.29,3.01,-1.29,1.28,0.49,1.11,4.29,4.29,4.29
146.32,2.95,-1.25,2.95,-1.26,1.25,0.45,1.06,4.20,4.20,4.21
147.78,2.90,-1.22,2.90,-1.22,1.22,0.42,1.00,4.12,4.12,4.12
149.26,2.86,-1.18,2.86,-1.18,1.19,0.39,0.95,4.04,4.04,4.04
150.75,2.81,-1.15,2.81,-1.15,1.15,0.36,0.89,3.97,3.97,3.96
152.26,2.77,-1.11,2.77,-1.11,1.12,0.32,0.83,3.89,3.89,3.88
153.78,2.72,-1.08,2.72,-1.08,1.08,0.29,0.77,3.81,3.80,3.80
155.32,2.67,-1.05,2.67,-1.05,1.05,0.26,0.71,3.72,3.73,3.73
156.88,2.63,-1.02,2.63,-1.02,1.02,0.22,0.65,3.65,3.65,3.65
158.44,2.59,-0.99,2.59,-0.99,0.99,0.19,0.59,3.58,3.58,3.58
160.03,2.55,-0.95,2.55,-0.95,0.96,0.16,0.53,3.51,3.51,3.50
161.63,2.52,-0.92,2.52,-0.92,0.93,0.12,0.47,3.44,3.44,3.44
163.24,2.49,-0.89,2.49,-0.89,0.89,0.09,0.41,3.38,3.38,3.37
164.88,2.46,-0.85,2.46,-0.85,0.86,0.06,0.35,3.32,3.32,3.31
166.53,2.44,-0.81,2.44,-0.81,0.81,0.02,0.29,3.25,3.25,3.25
168.19,2.43,-0.76,2.43,-0.77,0.76,-0.01,0.23,3.19,3.19,3.19
169.87,2.42,-0.71,2.42,-0.71,0.69,-0.05,0.17,3.11,3.11,3.13
171.57,2.41,-0.64,2.41,-0.64,0.62,-0.08,0.11,3.03,3.03,3.05
173.29,2.40,-0.55,2.40,-0.55,0.53,-0.12,0.05,2.93,2.93,2.95
175.02,2.39,-0.45,2.39,-0.44,0.43,-0.15,-0.01,2.83,2.83,2.84
176.77,2.38,-0.33,2.38,-0.33,0.33,-0.18,-0.07,2.72,2.72,2.72
178.54,2.37,-0.22,2.37,-0.22,0.23,-0.22,-0.14,2.60,2.60,2.59
180.32,2.36,-0.11,2.36,-0.11,0.13,-0.25,-0.20,2.49,2.49,2.47
182.13,2.34,-0.01,2.34,-0.01,0.03,-0.29,-0.26,2.38,2.38,2.35
183.95,2.32,0.07,2.32,0.07,-0.06,-0.33,-0.32,2.27,2.27,2.25
185.79,2.30,0.15,2.30,0.15,-0.14,-0.36,-0.38,2.16,2.16,2.15
187.65,2.27,0.22,2.27,0.22,-0.22,-0.40,-0.44,2.05,2.05,2.05
189.52,2.24,0.29,2.25,0.29,-0.30,-0.43,-0.50,1.95,1.95,1.96
191.42,2.23,0.36,2.23,0.36,-0.38,-0.47,-0.57,1.85,1.85,1.87
193.33,2.21,0.44,2.21,0.44,-0.46,-0.51,-0.63,1.76,1.76,1.77
195.27,2.21,0.53,2.21,0.53,-0.54,-0.54,-0.69,1.67,1.67,1.68
197.22,2.21,0.63,2.21,0.63,-0.63,-0.58,-0.75,1.58,1.58,1.59
199.19,2.22,0.73,2.22,0.72,-0.72,-0.62,-0.81,1.50,1.49,1.49
201.18,2.22,0.82,2.22,0.82,-0.82,-0.66,-0.87,1.40,1.40,1.40
203.19,2.23,0.91,2.23,0.92,-0.91,-0.69,-0.93,1.31,1.32,1.31
205.23,2.23,1.01,2.23,1.01,-1.00,-0.73,-0.99,1.23,1.23,1.23
207.28,2.23,1.09,2.23,1.09,-1.09,-0.77,-1.05,1.14,1.14,1.14
209.35,2.23,1.17,2.23,1.17,-1.17,-0.81,-1.11,1.06,1.06,1.06
211.44,2.23,1.25,2.23,1.25,-1.24,-0.85,-1.17,0.98,0.98,0.98
213.56,2.21,1.31,2.21,1.31,-1.31,-0.89,-1.23,0.90,0.90,0.90
215.69,2.18,1.37,2.19,1.37,-1.36,-0.93,-1.29,0.82,0.82,0.82
217.85,2.15,1.42,2.15,1.42,-1.41,-0.97,-1.35,0.75,0.74,0.74
220.03,2.11,1.46,2.11,1.46,-1.45,-1.01,-1.40,0.66,0.66,0.65
222.23,2.06,1.48,2.06,1.49,-1.48,-1.05,-1.46,0.58,0.58,0.57
224.45,2.00,1.51,2.00,1.51,-1.51,-1.09,-1.51,0.49,0.49,0.49
226.70,1.94,1.53,1.94,1.53,-1.53,-1.13,-1.57,0.41,0.41,0.41
228.96,1.89,1.55,1.89,1.55,-1.56,-1.17,-1.62,0.33,0.33,0.34
231.25,1.84,1.58,1.84,1.58,-1.59,-1.22,-1.67,0.25,0.25,0.26
233.57,1.80,1.61,1.80,1.61,-1.62,-1.26,-1.72,0.18,0.18,0.19
235.90,1.77,1.65,1.77,1.65,-1.66,-1.30,-1.76,0.11,0.11,0.12
238.26,1.74,1.69,1.74,1.69,-1.69,-1.34,-1.81,0.05,0.05,0.05
240.64,1.72,1.74,1.72,1.74,-1.73,-1.39,-1.85,-0.02,-0.02,-0.02
243.05,1.69,1.78,1.69,1.78,-1.78,-1.43,-1.89,-0.09,-0.09,-0.09
245.48,1.65,1.82,1.65,1.82,-1.81,-1.48,-1.93,-0.16,-0.16,-0.17
247.93,1.62,1.86,1.62,1.86,-1.85,-1.52,-1.96,-0.23,-0.23,-0.24
250.41,1.59,1.89,1.59,1.89,-1.89,-1.57,-2.00,-0.30,-0.30,-0.31
252.92,1.55,1.93,1.55,1.93,-1.93,-1.61,-2.03,-0.37,-0.37,-0.37
255.45,1.52,1.96,1.52,1.96,-1.96,-1.66,-2.06,-0.44,-0.44,-0.44
258.00,1.48,1.99,1.48,1.99,-2.00,-1.70,-2.09,-0.51,-0.51,-0.51
260.58,1.45,2.03,1.45,2.03,-2.03,-1.75,-2.12,-0.58,-0.58,-0.57
263.19,1.42,2.07,1.42,2.07,-2.07,-1.80,-2.14,-0.64,-0.64,-0.64
265.82,1.40,2.11,1.40,2.11,-2.10,-1.85,-2.16,-0.71,-0.71,-0.71
268.48,1.37,2.15,1.37,2.15,-2.14,-1.89,-2.19,-0.77,-0.78,-0.78
271.16,1.34,2.18,1.34,2.18,-2.18,-1.94,-2.21,-0.84,-0.84,-0.85
273.87,1.31,2.22,1.31,2.22,-2.22,-1.99,-2.23,-0.91,-0.91,-0.91
276.61,1.28,2.25,1.28,2.25,-2.25,-2.04,-2.25,-0.97,-0.97,-0.97
279.38,1.26,2.29,1.26,2.29,-2.29,-2.09,-2.26,-1.03,-1.03,-1.03
282.17,1.24,2.33,1.24,2.33,-2.33,-2.14,-2.28,-1.09,-1.09,-1.09
284.99,1.22,2.36,1.22,2.36,-2.36,-2.19,-2.30,-1.15,-1.15,-1.15
287.84,1.20,2.40,1.20,2.40,-2.40,-2.24,-2.32,-1.20,-1.20,-1.20
290.72,1.18,2.44,1.18,2.44,-2.44,-2.29,-2.33,-1.26,-1.26,-1.26
293.63,1.17,2.48,1.17,2.48,-2.48,-2.34,-2.35,-1.31,-1.31,-1.31
296.57,1.15,2.52,1.15,2.52,-2.52,-2.39,-2.37,-1.37,-1.37,-1.37
299.53,1.14,2.56,1.14,2.56,-2.56,-2.44,-2.39,-1.42,-1.42,-1.42
302.53,1.13,2.60,1.13,2.60,-2.60,-2.49,-2.41,-1.47,-1.47,-1.47
305.55,1.12,2.64,1.12,2.64,-2.64,-2.55,-2.43,-1.52,-1.52,-1.52
308.61,1.12,2.68,1.12,2.68,-2.68,-2.60,-2.45,-1.57,-1.57,-1.57
311.69,1.11,2.73,1.11,2.73,-2.73,-2.65,-2.47,-1.61,-1.61,-1.61
314.81,1.12,2.77,1.12,2.77,-2.77,-2.70,-2.50,-1.66,-1.66,-1.66
317.96,1.12,2.82,1.12,2.82,-2.82,-2.75,-2.53,-1.70,-1.70,-1.70
321.14,1.13,2.86,1.13,2.86,-2.86,-2.81,-2.55,-1.74,-1.74,-1.74
324.35,1.14,2.91,1.14,2.91,-2.91,-2.86,-2.58,-1.78,-1.77,-1.77
327.59,1.15,2.96,1.15,2.96,-2.96,-2.91,-2.61,-1.81,-1.81,-1.81
330.87,1.16,3.01,1.16,3.01,-3.01,-2.97,-2.65,-1.85,-1.85,-1.85
334.18,1.17,3.06,1.17,3.06,-3.06,-3.02,-2.68,-1.89,-1.89,-1.89
337.52,1.19,3.11,1.19,3.11,-3.11,-3.07,-2.72,-1.92,-1.92,-1.92
340.90,1.20,3.16,1.20,3.16,-3.16,-3.12,-2.76,-1.96,-1.96,-1.96
344.30,1.22,3.21,1.22,3.21,-3.22,-3.18,-2.80,-1.99,-1.99,-1.99
347.75,1.24,3.27,1.24,3.27,-3.27,-3.23,-2.85,-2.03,-2.03,-2.03
351.23,1.26,3.32,1.26,3.32,-3.32,-3.28,-2.89,-2.06,-2.06,-2.06
354.74,1.28,3.37,1.28,3.37,-3.37,-3.33,-2.94,-2.09,-2.09,-2.09
358.28,1.31,3.43,1.31,3.43,-3.43,-3.39,-2.99,-2.12,-2.12,-2.12
361.87,1.33,3.48,1.33,3.48,-3.48,-3.44,-3.05,-2.15,-2.15,-2.15
365.49,1.35,3.53,1.35,3.53,-3.53,-3.49,-3.10,-2.18,-2.18,-2.18
369.14,1.37,3.58,1.37,3.58,-3.58,-3.54,-3.16,-2.21,-2.21,-2.21
372.83,1.40,3.63,1.40,3.63,-3.63,-3.59,-3.22,-2.23,-2.23,-2.23
376.56,1.42,3.68,1.42,3.68,-3.68,-3.64,-3.28,-2.26,-2.26,-2.26
380.33,1.45,3.73,1.45,3.73,-3.73,-3.68,-3.35,-2.28,-2.28,-2.28
384.13,1.47,3.78,1.47,3.78,-3.78,-3.73,-3.42,-2.31,-2.31,-2.31
387.97,1.50,3.83,1.50,3.83,-3.83,-3.78,-3.48,-2.33,-2.33,-2.33
391.85,1.52,3.88,1.52,3.88,-3.88,-3.82,-3.55,-2.35,-2.35,-2.35
395.77,1.55,3.92,1.55,3.92,-3.92,-3.87,-3.63,-2.38,-2.38,-2.38
399.73,1.57,3.97,1.57,3.97,-3.97,-3.91,-3.70,-2.40,-2.40,-2.40
403.72,1.59,4.01,1.59,4.01,-4.01,-3.96,-3.77,-2.42,-2.42,-2.42
407.76,1.62,4.05,1.62,4.05,-4.06,-4.00,-3.85,-2.44,-2.44,-2.44
411.84,1.64,4.10,1.64,4.10,-4.10,-4.04,-3.92,-2.46,-2.46,-2.46
415.96,1.66,4.14,1.66,4.14,-4.13,-4.08,-4.00,-2.48,-2.47,-2.48
420.12,1.68,4.17,1.68,4.17,-4.17,-4.11,-4.07,-2.49,-2.49,-2.49
424.32,1.70,4.21,1.70,4.20,-4.20,-4.15,-4.15,-2.50,-2.50,-2.51
428.56,1.71,4.23,1.71,4.23,-4.23,-4.19,-4.22,-2.52,-2.52,-2.52
432.85,1.73,4.26,1.73,4.26,-4.26,-4.22,-4.30,-2.53,-2.53,-2.53
437.18,1.74,4.28,1.74,4.28,-4.28,-4.25,-4.37,-2.54,-2.54,-2.54
441.55,1.75,4.30,1.75,4.30,-4.31,-4.28,-4.44,-2.55,-2.55,-2.55
445.96,1.76,4.32,1.76,4.32,-4.32,-4.31,-4.50,-2.56,-2.56,-2.56
450.42,1.77,4.34,1.77,4.34,-4.34,-4.33,-4.57,-2.57,-2.57,-2.57
454.93,1.78,4.36,1.78,4.36,-4.36,-4.36,-4.63,-2.58,-2.58,-2.58
459.48,1.79,4.37,1.79,4.37,-4.37,-4.38,-4.68,-2.59,-2.59,-2.59
464.07,1.79,4.38,1.79,4.38,-4.39,-4.40,-4.73,-2.59,-2.59,-2.59
468.71,1.80,4.40,1.80,4.40,-4.40,-4.42,-4.78,-2.60,-2.60,-2.60
473.40,1.80,4.41,1.80,4.41,-4.41,-4.44,-4.82,-2.60,-2.60,-2.60
478.13,1.81,4.41,1.81,4.42,-4.42,-4.45,-4.85,-2.61,-2.61,-2.61
482.91,1.81,4.42,1.81,4.42,-4.42,-4.46,-4.88,-2.61,-2.61,-2.61
487.74,1.81,4.43,1.81,4.43,-4.43,-4.47,-4.90,-2.62,-2.62,-2.62
492.62,1.81,4.43,1.81,4.43,-4.43,-4.48,-4.92,-2.62,-2.62,-2.62
497.55,1.80,4.43,1.80,4.43,-4.43,-4.48,-4.93,-2.62,-2.62,-2.63
502.52,1.80,4.43,1.80,4.43,-4.43,-4.49,-4.93,-2.63,-2.63,-2.63
507.55,1.79,4.42,1.79,4.42,-4.42,-4.49,-4.92,-2.63,-2.63,-2.63
512.62,1.78,4.41,1.78,4.41,-4.41,-4.49,-4.91,-2.63,-2.63,-2.63
