frequency,raw,error,smoothed,error_smoothed,equalization,parametric_eq,fixed_band_eq,equalized_raw,equalized_smoothed,target
20.00,10.71,3.24,10.71,3.24,-3.30,-3.13,-1.68,7.41,7.41,7.47
20.20,10.69,3.22,10.70,3.23,-3.23,-3.15,-1.72,7.46,7.46,7.47
20.40,10.67,3.20,10.67,3.20,-3.18,-3.17,-1.77,7.50,7.50,7.47
20.61,10.65,3.18,10.64,3.18,-3.13,-3.17,-1.83,7.52,7.51,7.47
20.81,10.61,3.14,10.61,3.14,-3.10,-3.16,-1.88,7.51,7.51,7.47
21.02,10.56,3.10,10.56,3.10,-3.07,-3.14,-1.93,7.49,7.49,7.46
21.23,10.52,3.06,10.52,3.06,-3.06,-3.13,-1.99,7.46,7.46,7.46
21.44,10.49,3.04,10.49,3.04,-3.06,-3.12,-2.05,7.43,7.43,7.45
21.66,10.48,3.04,10.48,3.03,-3.06,-3.12,-2.11,7.42,7.42,7.45
21.87,10.49,3.05,10.49,3.05,-3.08,-3.13,-2.17,7.40,7.41,7.44
22.09,10.52,3.09,10.52,3.09,-3.12,-3.14,-2.23,7.41,7.41,7.43
22.31,10.58,3.15,10.57,3.15,-3.16,-3.16,-2.29,7.41,7.41,7.42
22.54,10.63,3.22,10.64,3.22,-3.22,-3.19,-2.36,7.42,7.42,7.41
22.76,10.69,3.30,10.69,3.29,-3.27,-3.23,-2.43,7.42,7.42,7.40
22.99,10.75,3.36,10.74,3.35,-3.32,-3.26,-2.50,7.42,7.42,7.39
23.22,10.78,3.40,10.77,3.40,-3.36,-3.31,-2.57,7.41,7.41,7.38
23.45,10.79,3.42,10.79,3.42,-3.39,-3.35,-2.64,7.40,7.40,7.37
23.69,10.79,3.43,10.79,3.43,-3.42,-3.40,-2.72,7.38,7.37,7.36
23.92,10.79,3.43,10.79,3.43,-3.44,-3.45,-2.79,7.35,7.35,7.36
24.16,10.79,3.44,10.79,3.44,-3.46,-3.50,-2.87,7.33,7.33,7.35
24.40,10.80,3.46,10.80,3.46,-3.48,-3.55,-2.94,7.31,7.31,7.34
24.65,10.82,3.49,10.82,3.49,-3.52,-3.60,-3.02,7.30,7.30,7.33
24.89,10.85,3.54,10.86,3.54,-3.56,-3.64,-3.10,7.29,7.29,7.32
25.14,10.90,3.60,10.90,3.60,-3.62,-3.68,-3.19,7.29,7.29,7.30
25.39,10.96,3.67,10.96,3.67,-3.68,-3.72,-3.27,7.28,7.28,7.29
25.65,11.01,3.74,11.01,3.74,-3.73,-3.75,-3.35,7.28,7.28,7.27
25.91,11.06,3.81,11.06,3.80,-3.79,-3.77,-3.43,7.28,7.28,7.26
26.16,11.09,3.85,11.09,3.85,-3.83,-3.79,-3.51,7.27,7.27,7.24
26.43,11.11,3.88,11.10,3.87,-3.85,-3.80,-3.59,7.26,7.25,7.23
26.69,11.10,3.88,11.10,3.88,-3.86,-3.81,-3.67,7.24,7.24,7.22
26.96,11.08,3.86,11.08,3.86,-3.85,-3.81,-3.75,7.23,7.22,7.21
27.23,11.04,3.84,11.04,3.84,-3.83,-3.81,-3.83,7.21,7.21,7.20
27.50,11.00,3.80,11.00,3.80,-3.81,-3.81,-3.91,7.19,7.19,7.20
27.77,10.95,3.77,10.95,3.77,-3.78,-3.80,-3.98,7.17,7.17,7.18
28.05,10.91,3.73,10.91,3.74,-3.75,-3.79,-4.05,7.16,7.16,7.17
28.33,10.87,3.71,10.87,3.71,-3.73,-3.78,-4.12,7.14,7.14,7.16
28.62,10.84,3.70,10.84,3.70,-3.71,-3.77,-4.19,7.13,7.13,7.14
28.90,10.82,3.69,10.82,3.69,-3.70,-3.76,-4.25,7.12,7.12,7.13
29.19,10.81,3.70,10.81,3.70,-3.70,-3.75,-4.31,7.12,7.11,7.12
29.48,10.81,3.70,10.81,3.70,-3.70,-3.74,-4.36,7.11,7.11,7.11
29.78,10.81,3.71,10.80,3.71,-3.71,-3.73,-4.41,7.10,7.10,7.10
30.08,10.80,3.72,10.80,3.72,-3.72,-3.72,-4.45,7.09,7.09,7.09
30.38,10.80,3.73,10.80,3.73,-3.73,-3.72,-4.49,7.08,7.08,7.08
30.68,10.80,3.74,10.80,3.74,-3.74,-3.71,-4.52,7.07,7.07,7.06
30.99,10.80,3.75,10.80,3.75,-3.74,-3.71,-4.55,7.05,7.05,7.05
31.30,10.78,3.75,10.78,3.75,-3.75,-3.71,-4.57,7.04,7.04,7.03
31.61,10.77,3.75,10.77,3.75,-3.75,-3.71,-4.58,7.02,7.02,7.02
31.93,10.75,3.75,10.75,3.75,-3.74,-3.71,-4.59,7.00,7.00,7.00
32.24,10.72,3.74,10.72,3.74,-3.74,-3.71,-4.60,6.98,6.98,6.98
32.57,10.69,3.73,10.69,3.73,-3.73,-3.72,-4.59,6.96,6.96,6.96
32.89,10.67,3.72,10.67,3.72,-3.72,-3.72,-4.59,6.94,6.94,6.95
33.22,10.64,3.72,10.64,3.71,-3.72,-3.73,-4.58,6.93,6.92,6.93
33.55,10.62,3.71,10.62,3.71,-3.72,-3.74,-4.56,6.90,6.90,6.91
33.89,10.61,3.72,10.61,3.72,-3.73,-3.75,-4.54,6.89,6.89,6.89
34.23,10.60,3.73,10.60,3.73,-3.74,-3.76,-4.52,6.87,6.87,6.88
34.57,10.60,3.74,10.61,3.75,-3.75,-3.77,-4.49,6.85,6.85,6.86
34.92,10.61,3.77,10.61,3.77,-3.77,-3.78,-4.46,6.84,6.84,6.84
35.27,10.63,3.80,10.62,3.80,-3.80,-3.79,-4.43,6.83,6.83,6.83
35.62,10.64,3.83,10.64,3.83,-3.82,-3.80,-4.40,6.82,6.82,6.81
35.97,10.64,3.85,10.64,3.85,-3.84,-3.81,-4.36,6.80,6.80,6.79
36.33,10.64,3.87,10.64,3.87,-3.87,-3.82,-4.32,6.78,6.78,6.77
36.70,10.64,3.89,10.64,3.89,-3.89,-3.84,-4.29,6.75,6.75,6.75
37.06,10.64,3.90,10.64,3.90,-3.90,-3.85,-4.25,6.73,6.73,6.73
37.43,10.63,3.92,10.63,3.92,-3.92,-3.86,-4.21,6.71,6.71,6.72
37.81,10.63,3.93,10.63,3.93,-3.94,-3.87,-4.17,6.70,6.70,6.70
38.19,10.63,3.95,10.63,3.95,-3.95,-3.89,-4.14,6.68,6.68,6.68
38.57,10.62,3.96,10.62,3.96,-3.97,-3.90,-4.10,6.66,6.66,6.66
38.95,10.62,3.98,10.62,3.98,-3.98,-3.91,-4.07,6.64,6.64,6.64
39.34,10.61,3.99,10.61,3.99,-3.99,-3.93,-4.03,6.62,6.62,6.62
39.74,10.60,4.00,10.60,4.00,-4.00,-3.94,-4.00,6.60,6.60,6.60
40.14,10.59,4.02,10.59,4.02,-4.01,-3.95,-3.97,6.58,6.58,6.58
40.54,10.58,4.02,10.58,4.02,-4.02,-3.96,-3.95,6.56,6.56,6.56
40.94,10.56,4.02,10.56,4.02,-4.02,-3.97,-3.92,6.54,6.54,6.54
41.35,10.54,4.02,10.54,4.02,-4.02,-3.98,-3.90,6.52,6.52,6.52
41.76,10.51,4.01,10.51,4.01,-4.01,-3.99,-3.88,6.50,6.50,6.50
42.18,10.49,4.01,10.49,4.01,-4.01,-4.00,-3.87,6.48,6.48,6.48
42.60,10.47,4.00,10.47,4.00,-4.01,-4.01,-3.85,6.46,6.46,6.47
43.03,10.45,4.00,10.45,4.00,-4.00,-4.02,-3.84,6.44,6.44,6.45
43.46,10.43,4.00,10.43,4.00,-4.00,-4.03,-3.83,6.43,6.43,6.43
43.90,10.41,4.00,10.41,4.00,-4.00,-4.04,-3.83,6.41,6.41,6.41
44.33,10.40,4.01,10.40,4.01,-4.01,-4.04,-3.83,6.39,6.39,6.39
44.78,10.38,4.01,10.38,4.01,-4.01,-4.05,-3.83,6.37,6.37,6.37
45.23,10.36,4.02,10.36,4.02,-4.02,-4.05,-3.83,6.35,6.35,6.35
45.68,10.35,4.02,10.35,4.02,-4.02,-4.06,-3.84,6.33,6.33,6.33
46.13,10.34,4.03,10.34,4.03,-4.03,-4.06,-3.85,6.31,6.31,6.31
46.60,10.33,4.03,10.33,4.03,-4.04,-4.07,-3.86,6.29,6.29,6.30
47.06,10.32,4.04,10.32,4.04,-4.04,-4.07,-3.87,6.28,6.28,6.28
47.53,10.30,4.05,10.30,4.05,-4.04,-4.07,-3.89,6.26,6.26,6.26
48.01,10.29,4.05,10.29,4.05,-4.05,-4.07,-3.91,6.24,6.24,6.24
48.49,10.27,4.05,10.27,4.05,-4.04,-4.07,-3.93,6.23,6.22,6.22
48.97,10.24,4.05,10.24,4.05,-4.04,-4.07,-3.96,6.20,6.20,6.20
49.46,10.21,4.04,10.21,4.04,-4.03,-4.07,-3.99,6.18,6.18,6.17
49.96,10.18,4.03,10.18,4.03,-4.03,-4.07,-4.01,6.16,6.16,6.15
50.46,10.16,4.02,10.16,4.02,-4.02,-4.07,-4.05,6.14,6.14,6.14
50.96,10.15,4.01,10.15,4.01,-4.02,-4.07,-4.08,6.13,6.13,6.14
51.47,10.14,4.01,10.14,4.01,-4.03,-4.07,-4.11,6.11,6.11,6.13
51.99,10.13,4.02,10.13,4.02,-4.03,-4.07,-4.15,6.10,6.10,6.11
52.51,10.12,4.04,10.12,4.04,-4.04,-4.06,-4.18,6.08,6.08,6.07
53.03,10.10,4.07,10.10,4.06,-4.05,-4.06,-4.22,6.05,6.05,6.03
53.56,10.08,4.08,10.08,4.08,-4.07,-4.06,-4.26,6.01,6.01,5.99
54.10,10.05,4.09,10.05,4.09,-4.08,-4.05,-4.29,5.97,5.97,5.96
54.64,10.03,4.09,10.03,4.09,-4.09,-4.05,-4.33,5.93,5.93,5.94
55.18,10.01,4.10,10.01,4.10,-4.11,-4.05,-4.36,5.90,5.90,5.91
55.74,10.00,4.11,10.00,4.11,-4.12,-4.05,-4.40,5.88,5.88,5.89
56.29,9.98,4.13,9.98,4.13,-4.13,-4.04,-4.43,5.85,5.85,5.86
56.86,9.97,4.14,9.97,4.14,-4.14,-4.04,-4.46,5.83,5.83,5.83
57.42,9.95,4.15,9.95,4.15,-4.14,-4.04,-4.49,5.81,5.81,5.80
58.00,9.92,4.15,9.92,4.15,-4.14,-4.04,-4.52,5.78,5.78,5.77
58.58,9.90,4.15,9.90,4.15,-4.14,-4.04,-4.54,5.75,5.75,5.75
59.16,9.87,4.14,9.87,4.14,-4.14,-4.04,-4.56,5.73,5.73,5.73
59.76,9.84,4.13,9.84,4.13,-4.13,-4.04,-4.57,5.71,5.71,5.71
60.35,9.80,4.11,9.80,4.11,-4.11,-4.04,-4.59,5.69,5.69,5.69
60.96,9.77,4.09,9.77,4.10,-4.09,-4.04,-4.59,5.68,5.68,5.68
61.57,9.75,4.08,9.75,4.08,-4.08,-4.04,-4.60,5.67,5.67,5.66
62.18,9.72,4.07,9.72,4.06,-4.06,-4.05,-4.60,5.66,5.66,5.66
62.80,9.69,4.05,9.69,4.04,-4.05,-4.05,-4.59,5.64,5.64,5.65
63.43,9.67,4.03,9.67,4.03,-4.05,-4.05,-4.58,5.62,5.62,5.64
64.07,9.64,4.03,9.64,4.03,-4.05,-4.05,-4.57,5.59,5.59,5.61
64.71,9.61,4.04,9.61,4.04,-4.05,-4.06,-4.55,5.56,5.56,5.57
65.35,9.58,4.07,9.58,4.06,-4.06,-4.06,-4.53,5.53,5.53,5.52
66.01,9.55,4.08,9.55,4.08,-4.06,-4.06,-4.50,5.49,5.49,5.48
66.67,9.53,4.08,9.53,4.08,-4.07,-4.06,-4.47,5.45,5.45,5.44
67.33,9.50,4.08,9.50,4.09,-4.08,-4.07,-4.44,5.42,5.42,5.42
68.01,9.48,4.09,9.48,4.09,-4.09,-4.07,-4.40,5.39,5.39,5.39
68.69,9.46,4.09,9.46,4.09,-4.09,-4.07,-4.36,5.37,5.37,5.37
69.37,9.43,4.09,9.43,4.09,-4.09,-4.07,-4.32,5.34,5.34,5.34
70.07,9.40,4.08,9.40,4.09,-4.09,-4.07,-4.28,5.31,5.31,5.31
70.77,9.36,4.08,9.36,4.08,-4.08,-4.08,-4.23,5.28,5.28,5.28
71.48,9.33,4.08,9.33,4.08,-4.08,-4.08,-4.19,5.25,5.25,5.25
72.19,9.30,4.08,9.30,4.08,-4.08,-4.08,-4.14,5.22,5.22,5.22
72.91,9.26,4.07,9.26,4.07,-4.07,-4.08,-4.09,5.19,5.19,5.19
73.64,9.23,4.07,9.23,4.07,-4.07,-4.07,-4.04,5.17,5.17,5.17
74.38,9.20,4.06,9.20,4.06,-4.06,-4.07,-3.99,5.14,5.14,5.14
75.12,9.17,4.05,9.17,4.05,-4.05,-4.07,-3.94,5.12,5.12,5.11
75.87,9.13,4.04,9.13,4.04,-4.04,-4.07,-3.90,5.09,5.09,5.09
76.63,9.10,4.03,9.10,4.03,-4.03,-4.07,-3.85,5.07,5.07,5.07
77.40,9.07,4.01,9.07,4.01,-4.01,-4.06,-3.81,5.05,5.05,5.05
78.17,9.03,4.00,9.03,4.00,-4.00,-4.06,-3.76,5.04,5.04,5.03
78.95,9.00,3.99,9.00,3.99,-3.99,-4.05,-3.72,5.01,5.01,5.01
79.74,8.96,3.98,8.96,3.98,-3.98,-4.05,-3.68,4.98,4.98,4.98
80.54,8.92,3.96,8.92,3.96,-3.97,-4.04,-3.64,4.95,4.95,4.95
81.35,8.88,3.96,8.88,3.96,-3.97,-4.04,-3.60,4.91,4.91,4.92
82.16,8.85,3.96,8.85,3.96,-3.97,-4.03,-3.57,4.88,4.88,4.88
82.98,8.81,3.97,8.81,3.97,-3.97,-4.02,-3.53,4.84,4.84,4.84
83.81,8.78,3.98,8.78,3.98,-3.97,-4.01,-3.50,4.81,4.81,4.80
84.65,8.74,3.98,8.74,3.98,-3.98,-4.00,-3.48,4.77,4.77,4.76
85.50,8.70,3.98,8.71,3.98,-3.98,-4.00,-3.45,4.73,4.73,4.72
86.35,8.67,3.98,8.67,3.98,-3.98,-3.99,-3.43,4.69,4.69,4.69
87.22,8.63,3.98,8.63,3.98,-3.97,-3.98,-3.41,4.66,4.66,4.66
88.09,8.60,3.97,8.60,3.97,-3.97,-3.97,-3.39,4.63,4.63,4.63
88.97,8.56,3.96,8.56,3.96,-3.96,-3.96,-3.38,4.61,4.61,4.60
89.86,8.52,3.95,8.52,3.95,-3.94,-3.95,-3.36,4.58,4.58,4.57
90.76,8.48,3.92,8.48,3.92,-3.93,-3.93,-3.35,4.55,4.55,4.56
91.66,8.44,3.90,8.44,3.91,-3.92,-3.92,-3.35,4.52,4.53,4.54
92.58,8.41,3.89,8.41,3.90,-3.90,-3.91,-3.34,4.50,4.51,4.51
93.51,8.38,3.89,8.38,3.89,-3.89,-3.90,-3.34,4.49,4.49,4.49
94.44,8.34,3.88,8.34,3.88,-3.88,-3.89,-3.34,4.47,4.47,4.46
95.39,8.30,3.87,8.30,3.87,-3.86,-3.87,-3.34,4.44,4.44,4.43
96.34,8.26,3.86,8.26,3.86,-3.85,-3.86,-3.35,4.41,4.41,4.40
97.30,8.21,3.84,8.22,3.84,-3.84,-3.85,-3.35,4.37,4.37,4.37
98.28,8.17,3.83,8.17,3.83,-3.83,-3.83,-3.36,4.34,4.34,4.34
99.26,8.13,3.82,8.13,3.81,-3.82,-3.82,-3.37,4.31,4.31,4.31
100.25,8.08,3.80,8.08,3.80,-3.80,-3.80,-3.39,4.28,4.28,4.28
101.25,8.04,3.79,8.04,3.79,-3.79,-3.79,-3.40,4.24,4.25,4.25
102.27,7.99,3.78,8.00,3.78,-3.78,-3.77,-3.41,4.21,4.21,4.22
103.29,7.95,3.77,7.95,3.77,-3.77,-3.76,-3.43,4.18,4.18,4.18
104.32,7.91,3.77,7.91,3.76,-3.76,-3.74,-3.45,4.15,4.15,4.14
105.37,7.86,3.75,7.86,3.75,-3.75,-3.73,-3.46,4.11,4.11,4.11
106.42,7.81,3.74,7.82,3.74,-3.74,-3.71,-3.48,4.08,4.08,4.08
107.48,7.77,3.72,7.77,3.72,-3.72,-3.69,-3.50,4.04,4.05,4.05
108.56,7.73,3.71,7.73,3.71,-3.71,-3.68,-3.52,4.02,4.02,4.02
109.64,7.69,3.70,7.68,3.70,-3.70,-3.66,-3.54,3.99,3.99,3.99
110.74,7.64,3.68,7.64,3.68,-3.68,-3.64,-3.55,3.96,3.96,3.96
111.85,7.59,3.66,7.59,3.66,-3.66,-3.63,-3.57,3.92,3.93,3.93
112.97,7.54,3.65,7.54,3.65,-3.65,-3.61,-3.59,3.90,3.90,3.89
114.10,7.50,3.64,7.50,3.63,-3.63,-3.59,-3.60,3.87,3.87,3.86
115.24,7.45,3.62,7.45,3.61,-3.61,-3.57,-3.61,3.84,3.84,3.84
116.39,7.40,3.59,7.40,3.59,-3.59,-3.56,-3.62,3.81,3.81,3.81
117.55,7.36,3.56,7.36,3.57,-3.57,-3.54,-3.63,3.78,3.78,3.79
118.73,7.31,3.54,7.31,3.55,-3.56,-3.52,-3.63,3.75,3.75,3.77
119.92,7.27,3.53,7.27,3.53,-3.54,-3.50,-3.63,3.72,3.72,3.74
121.12,7.22,3.53,7.22,3.53,-3.53,-3.48,-3.63,3.70,3.70,3.70
122.33,7.18,3.52,7.18,3.52,-3.51,-3.46,-3.62,3.67,3.67,3.66
123.55,7.13,3.51,7.13,3.51,-3.49,-3.44,-3.62,3.64,3.63,3.62
124.79,7.07,3.48,7.07,3.48,-3.47,-3.42,-3.60,3.60,3.60,3.59
126.03,7.01,3.45,7.01,3.45,-3.46,-3.40,-3.59,3.55,3.56,3.56
127.29,6.96,3.43,6.96,3.43,-3.44,-3.38,-3.57,3.52,3.52,3.53
128.57,6.92,3.41,6.92,3.41,-3.42,-3.36,-3.55,3.50,3.50,3.51
129.85,6.87,3.39,6.87,3.39,-3.40,-3.34,-3.52,3.48,3.48,3.48
131.15,6.83,3.37,6.83,3.37,-3.38,-3.32,-3.49,3.46,3.46,3.46
132.46,6.79,3.36,6.79,3.36,-3.35,-3.30,-3.46,3.44,3.44,3.44
133.79,6.75,3.35,6.75,3.34,-3.33,-3.28,-3.42,3.42,3.42,3.41
135.12,6.70,3.33,6.70,3.32,-3.31,-3.25,-3.39,3.39,3.39,3.38
136.48,6.65,3.30,6.65,3.29,-3.29,-3.23,-3.35,3.36,3.36,3.35
137.84,6.58,3.26,6.58,3.26,-3.27,-3.21,-3.30,3.31,3.31,3.32
139.22,6.52,3.23,6.52,3.23,-3.25,-3.19,-3.26,3.27,3.28,3.29
140.61,6.47,3.21,6.47,3.21,-3.22,-3.16,-3.21,3.24,3.25,3.26
142.02,6.43,3.20,6.43,3.20,-3.20,-3.14,-3.16,3.23,3.23,3.23
143.44,6.38,3.19,6.38,3.18,-3.17,-3.11,-3.11,3.21,3.21,3.20
144.87,6.33,3.16,6.33,3.16,-3.14,-3.09,-3.07,3.19,3.18,3.17
146.32,6.27,3.13,6.27,3.13,-3.12,-3.07,-3.01,3.15,3.15,3.14
147.78,6.20,3.09,6.20,3.09,-3.09,-3.04,-2.96,3.12,3.12,3.12
149.26,6.14,3.05,6.14,3.05,-3.05,-3.02,-2.91,3.09,3.09,3.09
150.75,6.08,3.01,6.08,3.01,-3.02,-2.99,-2.86,3.06,3.06,3.07
152.26,6.03,2.97,6.03,2.98,-2.99,-2.96,-2.81,3.04,3.04,3.05
153.78,5.98,2.95,5.98,2.95,-2.95,-2.94,-2.76,3.03,3.03,3.03
155.32,5.94,2.92,5.94,2.92,-2.92,-2.91,-2.71,3.02,3.02,3.02
156.88,5.89,2.89,5.89,2.89,-2.88,-2.88,-2.66,3.01,3.01,3.00
158.44,5.85,2.85,5.85,2.85,-2.85,-2.86,-2.62,3.00,3.00,2.99
160.03,5.80,2.81,5.79,2.81,-2.80,-2.83,-2.57,2.99,2.99,2.98
161.63,5.74,2.76,5.74,2.76,-2.75,-2.80,-2.52,2.99,2.99,2.98
163.24,5.68,2.71,5.68,2.71,-2.70,-2.77,-2.48,2.99,2.99,2.98
164.88,5.63,2.65,5.62,2.65,-2.64,-2.74,-2.44,2.99,2.98,2.98
166.53,5.57,2.58,5.56,2.58,-2.58,-2.72,-2.40,2.98,2.98,2.98
168.19,5.50,2.52,5.50,2.52,-2.53,-2.69,-2.36,2.97,2.97,2.98
169.87,5.44,2.47,5.45,2.47,-2.49,-2.66,-2.32,2.95,2.96,2.98
171.57,5.39,2.43,5.39,2.43,-2.45,-2.63,-2.28,2.94,2.94,2.96
173.29,5.33,2.41,5.33,2.41,-2.42,-2.60,-2.25,2.91,2.91,2.92
175.02,5.28,2.40,5.28,2.40,-2.41,-2.57,-2.22,2.87,2.87,2.87
176.77,5.21,2.40,5.21,2.40,-2.39,-2.54,-2.18,2.82,2.82,2.82
178.54,5.15,2.39,5.15,2.39,-2.39,-2.51,-2.16,2.76,2.76,2.75
180.32,5.08,2.39,5.08,2.39,-2.38,-2.47,-2.13,2.70,2.70,2.70
182.13,5.02,2.38,5.03,2.38,-2.38,-2.44,-2.10,2.65,2.65,2.64
183.95,4.97,2.37,4.97,2.37,-2.37,-2.41,-2.08,2.60,2.61,2.60
185.79,4.93,2.36,4.93,2.36,-2.36,-2.38,-2.05,2.57,2.57,2.57
187.65,4.88,2.35,4.88,2.35,-2.34,-2.35,-2.03,2.54,2.54,2.53
189.52,4.83,2.33,4.83,2.33,-2.32,-2.31,-2.01,2.51,2.51,2.50
191.42,4.77,2.30,4.77,2.30,-2.30,-2.28,-2.00,2.48,2.48,2.47
193.33,4.71,2.26,4.71,2.27,-2.27,-2.25,-1.98,2.44,2.44,2.44
195.27,4.65,2.23,4.65,2.23,-2.24,-2.21,-1.96,2.41,2.41,2.42
197.22,4.59,2.21,4.59,2.21,-2.21,-2.18,-1.95,2.38,2.38,2.38
199.19,4.53,2.18,4.53,2.17,-2.18,-2.15,-1.94,2.36,2.35,2.35
201.18,4.47,2.14,4.47,2.14,-2.14,-2.11,-1.92,2.33,2.33,2.33
203.19,4.40,2.10,4.40,2.10,-2.10,-2.08,-1.91,2.30,2.30,2.30
205.23,4.34,2.06,4.34,2.06,-2.06,-2.04,-1.90,2.28,2.28,2.27
207.28,4.27,2.02,4.27,2.02,-2.01,-2.01,-1.89,2.26,2.26,2.25
209.35,4.21,1.97,4.21,1.97,-1.97,-1.98,-1.88,2.24,2.24,2.24
211.44,4.14,1.92,4.14,1.92,-1.92,-1.94,-1.87,2.22,2.22,2.22
213.56,4.07,1.87,4.07,1.87,-1.87,-1.91,-1.87,2.20,2.20,2.20
215.69,4.01,1.82,4.01,1.82,-1.83,-1.87,-1.86,2.18,2.18,2.19
217.85,3.94,1.77,3.94,1.77,-1.78,-1.83,-1.85,2.16,2.16,2.17
220.03,3.88,1.73,3.88,1.73,-1.73,-1.80,-1.84,2.15,2.15,2.15
222.23,3.82,1.69,3.82,1.69,-1.68,-1.76,-1.83,2.14,2.14,2.13
224.45,3.76,1.65,3.76,1.65,-1.64,-1.73,-1.82,2.12,2.12,2.11
226.70,3.69,1.60,3.69,1.60,-1.59,-1.69,-1.81,2.10,2.10,2.09
228.96,3.63,1.55,3.63,1.55,-1.55,-1.66,-1.80,2.08,2.08,2.08
231.25,3.57,1.50,3.57,1.50,-1.51,-1.62,-1.79,2.06,2.06,2.06
233.57,3.51,1.47,3.51,1.46,-1.47,-1.58,-1.78,2.04,2.04,2.05
235.90,3.47,1.43,3.47,1.43,-1.45,-1.55,-1.76,2.02,2.02,2.03
238.26,3.44,1.41,3.43,1.41,-1.43,-1.51,-1.75,2.01,2.01,2.02
240.64,3.41,1.40,3.41,1.41,-1.42,-1.47,-1.73,1.99,2.00,2.01
243.05,3.40,1.41,3.40,1.41,-1.41,-1.44,-1.71,1.99,1.99,1.99
245.48,3.39,1.41,3.39,1.41,-1.41,-1.40,-1.69,1.99,1.99,1.98
247.93,3.38,1.42,3.38,1.42,-1.40,-1.36,-1.67,1.98,1.98,1.96
250.41,3.37,1.41,3.36,1.41,-1.40,-1.33,-1.64,1.97,1.96,1.95
252.92,3.34,1.40,3.34,1.40,-1.39,-1.29,-1.61,1.94,1.95,1.94
255.45,3.31,1.38,3.31,1.38,-1.38,-1.25,-1.58,1.93,1.93,1.93
258.00,3.28,1.37,3.28,1.36,-1.37,-1.22,-1.55,1.92,1.92,1.92
260.58,3.25,1.35,3.25,1.35,-1.35,-1.18,-1.52,1.90,1.90,1.90
263.19,3.21,1.33,3.21,1.32,-1.32,-1.14,-1.49,1.89,1.89,1.89
265.82,3.17,1.30,3.17,1.30,-1.29,-1.11,-1.45,1.87,1.87,1.87
268.48,3.12,1.26,3.12,1.27,-1.26,-1.07,-1.41,1.86,1.86,1.86
271.16,3.07,1.23,3.07,1.23,-1.23,-1.03,-1.37,1.84,1.84,1.84
273.87,3.02,1.19,3.02,1.19,-1.19,-0.99,-1.33,1.83,1.83,1.83
276.61,2.97,1.15,2.97,1.15,-1.15,-0.96,-1.29,1.82,1.82,1.82
279.38,2.92,1.11,2.92,1.11,-1.11,-0.92,-1.25,1.81,1.81,1.80
282.17,2.86,1.07,2.86,1.07,-1.07,-0.88,-1.20,1.80,1.80,1.79
284.99,2.80,1.02,2.80,1.02,-1.02,-0.85,-1.16,1.79,1.78,1.78
287.84,2.74,0.97,2.74,0.97,-0.97,-0.81,-1.11,1.77,1.77,1.77
290.72,2.68,0.92,2.68,0.92,-0.92,-0.77,-1.06,1.75,1.75,1.76
293.63,2.62,0.87,2.62,0.87,-0.88,-0.73,-1.01,1.74,1.74,1.75
296.57,2.56,0.82,2.56,0.82,-0.83,-0.70,-0.96,1.73,1.73,1.74
299.53,2.51,0.78,2.51,0.78,-0.78,-0.66,-0.91,1.73,1.73,1.73
302.53,2.45,0.73,2.45,0.73,-0.73,-0.62,-0.86,1.72,1.72,1.72
305.55,2.40,0.69,2.40,0.69,-0.68,-0.58,-0.81,1.72,1.72,1.71
308.61,2.34,0.64,2.34,0.64,-0.63,-0.54,-0.76,1.71,1.71,1.70
311.69,2.28,0.58,2.28,0.58,-0.59,-0.51,-0.71,1.69,1.70,1.70
314.81,2.22,0.53,2.22,0.53,-0.54,-0.47,-0.66,1.69,1.69,1.69
317.96,2.17,0.49,2.17,0.49,-0.49,-0.43,-0.61,1.68,1.68,1.68
321.14,2.12,0.44,2.12,0.44,-0.44,-0.39,-0.55,1.68,1.68,1.68
324.35,2.07,0.39,2.07,0.39,-0.39,-0.36,-0.50,1.68,1.68,1.67
327.59,2.02,0.35,2.02,0.35,-0.35,-0.32,-0.45,1.67,1.67,1.67
330.87,1.96,0.30,1.96,0.30,-0.30,-0.28,-0.40,1.66,1.66,1.66
334.18,1.91,0.25,1.91,0.25,-0.26,-0.24,-0.35,1.66,1.66,1.66
337.52,1.86,0.21,1.86,0.21,-0.21,-0.20,-0.29,1.65,1.65,1.65
340.90,1.81,0.16,1.81,0.16,-0.16,-0.17,-0.24,1.65,1.65,1.65
344.30,1.76,0.12,1.76,0.12,-0.12,-0.13,-0.19,1.64,1.64,1.64
347.75,1.71,0.08,1.71,0.08,-0.07,-0.09,-0.14,1.64,1.63,1.63
351.23,1.66,0.03,1.66,0.03,-0.03,-0.05,-0.09,1.63,1.63,1.63
354.74,1.60,-0.02,1.60,-0.02,0.01,-0.01,-0.03,1.62,1.62,1.62
358.28,1.55,-0.06,1.55,-0.06,0.05,0.03,0.02,1.61,1.61,1.61
361.87,1.51,-0.10,1.51,-0.10,0.10,0.07,0.07,1.61,1.60,1.61
365.49,1.46,-0.14,1.46,-0.14,0.14,0.10,0.12,1.60,1.60,1.60
369.14,1.42,-0.18,1.42,-0.18,0.18,0.14,0.17,1.60,1.60,1.59
372.83,1.37,-0.22,1.37,-0.22,0.22,0.18,0.22,1.59,1.59,1.59
376.56,1.32,-0.26,1.32,-0.26,0.26,0.22,0.28,1.58,1.58,1.58
380.33,1.26,-0.31,1.27,-0.31,0.30,0.26,0.33,1.57,1.57,1.57
384.13,1.21,-0.35,1.22,-0.35,0.35,0.30,0.38,1.56,1.56,1.57
387.97,1.17,-0.39,1.17,-0.39,0.39,0.34,0.43,1.56,1.56,1.56
391.85,1.12,-0.43,1.12,-0.43,0.43,0.38,0.48,1.55,1.55,1.55
395.77,1.07,-0.47,1.07,-0.47,0.47,0.42,0.53,1.55,1.55,1.54
399.73,1.02,-0.51,1.02,-0.51,0.52,0.46,0.58,1.54,1.54,1.53
403.72,0.96,-0.56,0.96,-0.56,0.57,0.50,0.63,1.53,1.53,1.52
407.76,0.90,-0.61,0.90,-0.62,0.62,0.54,0.68,1.52,1.51,1.51
411.84,0.84,-0.67,0.84,-0.67,0.67,0.58,0.74,1.50,1.50,1.51
415.96,0.77,-0.72,0.77,-0.72,0.72,0.62,0.79,1.49,1.50,1.50
420.12,0.71,-0.77,0.72,-0.77,0.77,0.66,0.83,1.49,1.49,1.49
424.32,0.66,-0.82,0.66,-0.83,0.83,0.70,0.88,1.48,1.48,1.48
428.56,0.60,-0.88,0.60,-0.88,0.88,0.74,0.93,1.48,1.48,1.48
432.85,0.55,-0.93,0.55,-0.93,0.93,0.78,0.98,1.47,1.47,1.47
437.18,0.49,-0.98,0.50,-0.98,0.97,0.82,1.03,1.47,1.47,1.47
441.55,0.45,-1.02,0.45,-1.02,1.02,0.86,1.07,1.47,1.47,1.47
445.96,0.41,-1.06,0.41,-1.06,1.06,0.90,1.12,1.47,1.47,1.47
450.42,0.37,-1.10,0.37,-1.10,1.10,0.95,1.16,1.47,1.47,1.47
454.93,0.33,-1.14,0.33,-1.14,1.14,0.99,1.20,1.47,1.47,1.47
459.48,0.29,-1.18,0.29,-1.18,1.17,1.03,1.25,1.47,1.47,1.47
464.07,0.26,-1.21,0.26,-1.21,1.21,1.07,1.29,1.47,1.47,1.47
468.71,0.23,-1.24,0.23,-1.24,1.24,1.11,1.32,1.47,1.47,1.47
473.40,0.19,-1.28,0.19,-1.28,1.28,1.16,1.36,1.47,1.47,1.47
478.13,0.16,-1.31,0.16,-1.31,1.32,1.20,1.40,1.47,1.47,1.47
482.91,0.12,-1.35,0.12,-1.35,1.35,1.24,1.43,1.48,1.47,1.47
487.74,0.09,-1.39,0.09,-1.39,1.39,1.28,1.46,1.48,1.47,1.48
492.62,0.05,-1.43,0.05,-1.43,1.43,1.33,1.49,1.48,1.48,1.48
497.55,0.01,-1.47,0.01,-1.47,1.46,1.37,1.52,1.48,1.48,1.48
502.52,-0.02,-1.50,-0.02,-1.50,1.50,1.41,1.55,1.48,1.48,1.48
507.55,-0.05,-1.54,-0.06,-1.54,1.54,1.45,1.57,1.49,1.49,1.49
512.62,-0.09,-1.58,-0.09,-1.58,1.58,1.50,1.60,1.49,1.49,1.49
517.75,-0.13,-1.62,-0.13,-1.62,1.62,1.54,1.62,1.49,1.49,1.49
522.93,-0.16,-1.66,-0.16,-1.66,1.66,1.58,1.64,1.50,1.50,1.50
528.16,-0.20,-1.70,-0.20,-1.70,1.70,1.63,1.66,1.50,1.50,1.50
