frequency,raw,error,smoothed,error_smoothed,equalization,parametric_eq,fixed_band_eq,equalized_raw,equalized_smoothed,target
20.00,10.22,-5.26,10.22,-5.26,5.28,-0.01,1.72,15.50,15.50,15.48
20.20,10.23,-5.23,10.23,-5.23,5.23,-0.01,1.77,15.46,15.46,15.46
20.40,10.25,-5.19,10.25,-5.19,5.18,-0.01,1.82,15.43,15.43,15.44
20.61,10.27,-5.15,10.27,-5.15,5.13,-0.01,1.88,15.40,15.40,15.42
20.81,10.29,-5.11,10.29,-5.11,5.09,-0.01,1.93,15.38,15.38,15.40
21.02,10.32,-5.06,10.32,-5.06,5.05,-0.01,1.99,15.37,15.37,15.38
21.23,10.35,-5.01,10.35,-5.01,5.01,-0.01,2.05,15.36,15.36,15.36
21.44,10.39,-4.96,10.39,-4.96,4.97,-0.01,2.11,15.36,15.36,15.35
21.66,10.42,-4.92,10.42,-4.92,4.93,-0.01,2.17,15.35,15.35,15.34
21.87,10.45,-4.88,10.44,-4.88,4.89,-0.01,2.24,15.34,15.34,15.33
22.09,10.47,-4.85,10.47,-4.85,4.86,-0.01,2.31,15.33,15.33,15.32
22.31,10.49,-4.83,10.49,-4.83,4.83,-0.01,2.37,15.32,15.32,15.32
22.54,10.51,-4.81,10.51,-4.81,4.80,-0.01,2.44,15.31,15.31,15.31
22.76,10.52,-4.78,10.52,-4.78,4.77,-0.01,2.52,15.30,15.30,15.31
22.99,10.55,-4.75,10.55,-4.75,4.74,-0.01,2.59,15.29,15.29,15.30
23.22,10.57,-4.72,10.57,-4.72,4.71,-0.01,2.67,15.28,15.28,15.29
23.45,10.60,-4.68,10.60,-4.68,4.67,-0.01,2.74,15.27,15.27,15.28
23.69,10.64,-4.63,10.64,-4.63,4.63,-0.01,2.82,15.27,15.27,15.27
23.92,10.67,-4.58,10.67,-4.58,4.59,-0.01,2.90,15.26,15.26,15.25
24.16,10.70,-4.54,10.70,-4.54,4.55,-0.01,2.98,15.25,15.25,15.24
24.40,10.74,-4.50,10.74,-4.50,4.50,-0.01,3.06,15.24,15.24,15.23
24.65,10.77,-4.45,10.77,-4.45,4.46,-0.01,3.15,15.23,15.23,15.23
24.89,10.81,-4.42,10.81,-4.42,4.42,-0.01,3.23,15.23,15.23,15.22
25.14,10.84,-4.38,10.84,-4.38,4.38,-0.01,3.32,15.22,15.22,15.22
25.39,10.88,-4.34,10.88,-4.34,4.33,-0.01,3.40,15.21,15.21,15.21
25.65,10.92,-4.29,10.92,-4.29,4.29,-0.01,3.49,15.20,15.20,15.21
25.91,10.95,-4.25,10.95,-4.25,4.24,-0.02,3.57,15.20,15.20,15.20
26.16,10.99,-4.20,10.99,-4.20,4.19,-0.02,3.66,15.18,15.18,15.19
26.43,11.02,-4.15,11.02,-4.15,4.14,-0.02,3.74,15.17,15.17,15.17
26.69,11.06,-4.09,11.06,-4.09,4.09,-0.02,3.83,15.14,15.15,15.15
26.96,11.09,-4.03,11.09,-4.03,4.03,-0.02,3.91,15.12,15.12,15.12
27.23,11.12,-3.98,11.12,-3.98,3.98,-0.02,3.99,15.10,15.10,15.10
27.50,11.15,-3.92,11.15,-3.92,3.92,-0.02,4.06,15.07,15.07,15.07
27.77,11.18,-3.87,11.18,-3.87,3.87,-0.02,4.14,15.05,15.05,15.04
28.05,11.20,-3.82,11.20,-3.82,3.82,-0.02,4.21,15.03,15.03,15.02
28.33,11.23,-3.77,11.23,-3.77,3.78,-0.02,4.27,15.00,15.00,15.00
28.62,11.25,-3.73,11.25,-3.73,3.73,-0.02,4.34,14.98,14.98,14.98
28.90,11.27,-3.69,11.27,-3.69,3.69,-0.02,4.39,14.96,14.96,14.96
29.19,11.29,-3.65,11.29,-3.65,3.64,-0.02,4.44,14.93,14.93,14.94
29.48,11.31,-3.60,11.31,-3.60,3.59,-0.02,4.49,14.91,14.91,14.91
29.78,11.33,-3.56,11.33,-3.55,3.55,-0.02,4.53,14.88,14.88,14.88
30.08,11.35,-3.51,11.35,-3.51,3.51,-0.02,4.56,14.85,14.85,14.85
30.38,11.36,-3.46,11.36,-3.46,3.46,-0.02,4.58,14.83,14.83,14.82
30.68,11.38,-3.42,11.38,-3.42,3.43,-0.02,4.60,14.80,14.80,14.80
30.99,11.39,-3.38,11.39,-3.38,3.39,-0.02,4.61,14.78,14.78,14.77
31.30,11.40,-3.35,11.40,-3.35,3.36,-0.02,4.61,14.76,14.76,14.75
31.61,11.41,-3.32,11.41,-3.33,3.33,-0.02,4.60,14.74,14.74,14.74
31.93,11.42,-3.30,11.42,-3.30,3.31,-0.02,4.59,14.73,14.73,14.73
32.24,11.43,-3.28,11.43,-3.28,3.28,-0.02,4.57,14.72,14.72,14.72
32.57,11.45,-3.26,11.45,-3.26,3.26,-0.02,4.54,14.70,14.70,14.71
32.89,11.46,-3.24,11.46,-3.24,3.23,-0.02,4.51,14.69,14.69,14.70
33.22,11.48,-3.21,11.48,-3.21,3.20,-0.03,4.46,14.68,14.68,14.68
33.55,11.50,-3.17,11.50,-3.17,3.17,-0.03,4.41,14.66,14.66,14.67
33.89,11.51,-3.13,11.51,-3.13,3.13,-0.03,4.36,14.64,14.64,14.65
34.23,11.53,-3.09,11.53,-3.09,3.09,-0.03,4.30,14.62,14.62,14.62
34.57,11.55,-3.04,11.55,-3.04,3.04,-0.03,4.23,14.59,14.59,14.59
34.92,11.57,-3.00,11.57,-3.00,3.00,-0.03,4.16,14.57,14.57,14.56
35.27,11.59,-2.95,11.59,-2.95,2.96,-0.03,4.09,14.54,14.54,14.54
35.62,11.61,-2.91,11.61,-2.91,2.91,-0.03,4.01,14.52,14.52,14.51
35.97,11.62,-2.87,11.62,-2.87,2.87,-0.03,3.93,14.50,14.50,14.49
36.33,11.64,-2.84,11.64,-2.84,2.84,-0.03,3.85,14.48,14.48,14.48
36.70,11.65,-2.80,11.65,-2.80,2.80,-0.03,3.77,14.46,14.46,14.46
37.06,11.66,-2.77,11.66,-2.77,2.77,-0.03,3.68,14.44,14.44,14.44
37.43,11.67,-2.74,11.67,-2.74,2.74,-0.03,3.60,14.41,14.41,14.41
37.81,11.67,-2.72,11.67,-2.72,2.72,-0.03,3.51,14.39,14.39,14.39
38.19,11.68,-2.69,11.68,-2.69,2.69,-0.03,3.42,14.37,14.37,14.37
38.57,11.68,-2.66,11.68,-2.66,2.66,-0.03,3.33,14.34,14.34,14.34
38.95,11.69,-2.63,11.69,-2.63,2.63,-0.04,3.25,14.32,14.32,14.32
39.34,11.69,-2.60,11.69,-2.60,2.60,-0.04,3.16,14.29,14.29,14.29
39.74,11.70,-2.56,11.70,-2.56,2.56,-0.04,3.07,14.26,14.26,14.26
40.14,11.71,-2.53,11.71,-2.53,2.53,-0.04,2.99,14.23,14.23,14.24
40.54,11.72,-2.49,11.72,-2.49,2.49,-0.04,2.90,14.21,14.21,14.21
40.94,11.72,-2.45,11.72,-2.45,2.45,-0.04,2.82,14.18,14.18,14.18
41.35,11.73,-2.41,11.73,-2.41,2.41,-0.04,2.74,14.14,14.14,14.14
41.76,11.74,-2.37,11.74,-2.37,2.37,-0.04,2.66,14.11,14.11,14.11
42.18,11.75,-2.33,11.75,-2.33,2.33,-0.04,2.58,14.08,14.08,14.08
42.60,11.76,-2.29,11.76,-2.29,2.29,-0.04,2.50,14.05,14.05,14.05
43.03,11.77,-2.25,11.77,-2.25,2.25,-0.04,2.42,14.03,14.02,14.02
43.46,11.78,-2.21,11.78,-2.21,2.21,-0.04,2.35,14.00,14.00,13.99
43.90,11.79,-2.17,11.79,-2.17,2.17,-0.05,2.28,13.96,13.96,13.96
44.33,11.80,-2.14,11.80,-2.14,2.14,-0.05,2.21,13.93,13.93,13.93
44.78,11.80,-2.10,11.80,-2.10,2.10,-0.05,2.14,13.90,13.90,13.90
45.23,11.80,-2.06,11.80,-2.06,2.06,-0.05,2.07,13.86,13.86,13.87
45.68,11.81,-2.02,11.81,-2.02,2.02,-0.05,2.01,13.83,13.83,13.83
46.13,11.81,-1.98,11.81,-1.98,1.98,-0.05,1.94,13.79,13.79,13.79
46.60,11.81,-1.94,11.81,-1.94,1.94,-0.05,1.88,13.75,13.75,13.75
47.06,11.81,-1.90,11.81,-1.90,1.90,-0.05,1.82,13.71,13.71,13.71
47.53,11.82,-1.86,11.82,-1.86,1.86,-0.05,1.76,13.67,13.67,13.67
48.01,11.82,-1.82,11.82,-1.82,1.82,-0.06,1.70,13.63,13.63,13.63
48.49,11.82,-1.78,11.82,-1.78,1.78,-0.06,1.65,13.59,13.59,13.59
48.97,11.81,-1.74,11.81,-1.74,1.74,-0.06,1.60,13.56,13.56,13.55
49.46,11.81,-1.70,11.81,-1.70,1.71,-0.06,1.54,13.52,13.52,13.51
49.96,11.81,-1.67,11.81,-1.67,1.67,-0.06,1.49,13.48,13.48,13.47
50.46,11.80,-1.64,11.80,-1.64,1.64,-0.06,1.44,13.44,13.44,13.44
50.96,11.80,-1.61,11.80,-1.61,1.61,-0.06,1.39,13.41,13.41,13.41
51.47,11.80,-1.58,11.80,-1.58,1.57,-0.06,1.35,13.37,13.37,13.38
51.99,11.81,-1.54,11.81,-1.54,1.53,-0.07,1.30,13.34,13.34,13.35
52.51,11.82,-1.50,11.82,-1.50,1.49,-0.07,1.26,13.31,13.31,13.32
53.03,11.83,-1.45,11.83,-1.45,1.45,-0.07,1.21,13.28,13.28,13.28
53.56,11.84,-1.40,11.84,-1.40,1.41,-0.07,1.17,13.25,13.25,13.24
54.10,11.85,-1.36,11.85,-1.36,1.36,-0.07,1.13,13.21,13.21,13.20
54.64,11.85,-1.31,11.85,-1.31,1.32,-0.07,1.09,13.17,13.17,13.16
55.18,11.85,-1.27,11.85,-1.27,1.28,-0.07,1.05,13.13,13.13,13.12
55.74,11.85,-1.24,11.85,-1.24,1.24,-0.08,1.01,13.09,13.09,13.09
56.29,11.84,-1.20,11.85,-1.20,1.20,-0.08,0.98,13.05,13.05,13.05
56.86,11.84,-1.17,11.84,-1.17,1.17,-0.08,0.94,13.01,13.01,13.01
57.42,11.83,-1.14,11.83,-1.14,1.14,-0.08,0.91,12.97,12.97,12.97
58.00,11.83,-1.10,11.83,-1.10,1.10,-0.08,0.87,12.93,12.93,12.93
58.58,11.82,-1.07,11.82,-1.07,1.07,-0.09,0.84,12.89,12.89,12.89
59.16,11.81,-1.04,11.81,-1.04,1.04,-0.09,0.81,12.84,12.84,12.84
59.76,11.79,-1.01,11.79,-1.01,1.01,-0.09,0.78,12.80,12.80,12.80
60.35,11.78,-0.97,11.78,-0.97,0.97,-0.09,0.75,12.76,12.76,12.75
60.96,11.77,-0.94,11.77,-0.94,0.94,-0.09,0.71,12.71,12.71,12.71
61.57,11.76,-0.91,11.76,-0.91,0.91,-0.10,0.69,12.67,12.67,12.67
62.18,11.74,-0.88,11.74,-0.88,0.88,-0.10,0.66,12.63,12.63,12.62
62.80,11.73,-0.85,11.73,-0.85,0.85,-0.10,0.63,12.58,12.58,12.58
63.43,11.72,-0.82,11.72,-0.82,0.82,-0.10,0.60,12.54,12.54,12.54
64.07,11.71,-0.79,11.71,-0.79,0.79,-0.10,0.57,12.50,12.50,12.50
64.71,11.70,-0.76,11.70,-0.76,0.75,-0.11,0.55,12.45,12.45,12.45
65.35,11.69,-0.72,11.69,-0.72,0.72,-0.11,0.52,12.41,12.41,12.41
66.01,11.68,-0.69,11.68,-0.69,0.69,-0.11,0.50,12.36,12.36,12.36
66.67,11.67,-0.65,11.66,-0.65,0.65,-0.11,0.47,12.32,12.32,12.32
67.33,11.65,-0.62,11.65,-0.62,0.62,-0.12,0.45,12.27,12.27,12.27
68.01,11.64,-0.59,11.64,-0.59,0.59,-0.12,0.42,12.23,12.23,12.23
68.69,11.63,-0.55,11.63,-0.55,0.55,-0.12,0.40,12.18,12.18,12.18
69.37,11.61,-0.52,11.61,-0.52,0.52,-0.13,0.37,12.13,12.13,12.13
70.07,11.60,-0.48,11.60,-0.48,0.48,-0.13,0.35,12.08,12.08,12.08
70.77,11.59,-0.45,11.59,-0.45,0.45,-0.13,0.33,12.03,12.03,12.03
71.48,11.58,-0.41,11.58,-0.41,0.41,-0.13,0.30,11.99,11.99,11.99
72.19,11.56,-0.37,11.56,-0.37,0.38,-0.14,0.28,11.94,11.94,11.94
72.91,11.55,-0.34,11.55,-0.34,0.34,-0.14,0.26,11.89,11.89,11.89
73.64,11.53,-0.30,11.53,-0.31,0.31,-0.14,0.24,11.84,11.84,11.84
74.38,11.52,-0.27,11.52,-0.27,0.27,-0.15,0.22,11.79,11.79,11.79
75.12,11.50,-0.24,11.50,-0.24,0.24,-0.15,0.19,11.74,11.74,11.74
75.87,11.48,-0.21,11.48,-0.21,0.20,-0.15,0.17,11.69,11.69,11.69
76.63,11.47,-0.17,11.47,-0.17,0.17,-0.16,0.15,11.64,11.64,11.64
77.40,11.46,-0.13,11.46,-0.13,0.13,-0.16,0.13,11.59,11.59,11.59
78.17,11.45,-0.09,11.45,-0.09,0.09,-0.17,0.11,11.54,11.54,11.54
78.95,11.44,-0.05,11.44,-0.05,0.05,-0.17,0.09,11.49,11.49,11.48
79.74,11.42,-0.01,11.42,-0.01,0.01,-0.17,0.06,11.44,11.44,11.43
80.54,11.41,0.03,11.41,0.03,-0.03,-0.18,0.04,11.38,11.38,11.38
81.35,11.39,0.06,11.39,0.06,-0.06,-0.18,0.02,11.33,11.33,11.33
82.16,11.38,0.10,11.38,0.10,-0.10,-0.19,-0.00,11.28,11.28,11.28
82.98,11.36,0.13,11.36,0.13,-0.13,-0.19,-0.02,11.23,11.23,11.23
83.81,11.34,0.16,11.34,0.16,-0.17,-0.20,-0.05,11.17,11.17,11.18
84.65,11.32,0.20,11.32,0.20,-0.20,-0.20,-0.07,11.12,11.12,11.12
85.50,11.30,0.23,11.30,0.23,-0.23,-0.21,-0.09,11.07,11.07,11.07
86.35,11.28,0.27,11.28,0.27,-0.26,-0.21,-0.11,11.01,11.01,11.01
87.22,11.25,0.30,11.25,0.30,-0.29,-0.22,-0.14,10.96,10.96,10.95
88.09,11.23,0.33,11.22,0.33,-0.32,-0.22,-0.16,10.90,10.90,10.90
88.97,11.20,0.35,11.20,0.35,-0.35,-0.23,-0.18,10.85,10.85,10.84
89.86,11.17,0.37,11.17,0.37,-0.37,-0.23,-0.20,10.79,10.79,10.79
90.76,11.14,0.40,11.15,0.40,-0.40,-0.24,-0.23,10.74,10.74,10.75
91.66,11.12,0.43,11.12,0.43,-0.43,-0.25,-0.25,10.69,10.70,10.70
92.58,11.11,0.46,11.11,0.46,-0.46,-0.25,-0.28,10.65,10.65,10.65
93.51,11.09,0.49,11.09,0.49,-0.50,-0.26,-0.30,10.59,10.59,10.59
94.44,11.06,0.53,11.06,0.53,-0.54,-0.27,-0.32,10.52,10.52,10.53
95.39,11.03,0.58,11.03,0.58,-0.59,-0.27,-0.35,10.44,10.44,10.45
96.34,10.99,0.62,10.98,0.62,-0.64,-0.28,-0.37,10.35,10.35,10.36
97.30,10.94,0.68,10.94,0.68,-0.69,-0.29,-0.40,10.25,10.25,10.26
98.28,10.89,0.73,10.90,0.74,-0.74,-0.29,-0.42,10.16,10.16,10.16
99.26,10.86,0.79,10.86,0.79,-0.78,-0.30,-0.45,10.08,10.08,10.06
100.25,10.83,0.84,10.83,0.84,-0.82,-0.31,-0.47,10.02,10.02,9.99
101.25,10.82,0.87,10.82,0.86,-0.84,-0.32,-0.50,9.98,9.97,9.95
102.27,10.80,0.87,10.80,0.87,-0.86,-0.33,-0.52,9.94,9.94,9.93
103.29,10.79,0.87,10.79,0.87,-0.87,-0.33,-0.55,9.92,9.92,9.92
104.32,10.77,0.86,10.76,0.86,-0.87,-0.34,-0.57,9.90,9.89,9.90
105.37,10.74,0.85,10.74,0.85,-0.86,-0.35,-0.60,9.87,9.87,9.88
106.42,10.71,0.84,10.71,0.84,-0.85,-0.36,-0.62,9.85,9.85,9.86
107.48,10.67,0.84,10.67,0.84,-0.84,-0.37,-0.64,9.83,9.83,9.84
108.56,10.64,0.83,10.64,0.83,-0.83,-0.38,-0.67,9.81,9.81,9.81
109.64,10.61,0.82,10.61,0.82,-0.82,-0.39,-0.69,9.79,9.79,9.79
110.74,10.58,0.82,10.58,0.82,-0.82,-0.40,-0.71,9.76,9.76,9.76
111.85,10.54,0.81,10.54,0.81,-0.82,-0.41,-0.73,9.73,9.73,9.73
112.97,10.51,0.81,10.51,0.81,-0.82,-0.42,-0.76,9.69,9.69,9.70
114.10,10.48,0.82,10.48,0.82,-0.82,-0.44,-0.78,9.66,9.66,9.66
115.24,10.44,0.82,10.44,0.82,-0.82,-0.45,-0.80,9.62,9.62,9.62
116.39,10.40,0.83,10.40,0.83,-0.83,-0.46,-0.81,9.57,9.57,9.57
117.55,10.36,0.84,10.36,0.84,-0.84,-0.47,-0.83,9.52,9.52,9.52
118.73,10.31,0.85,10.31,0.85,-0.85,-0.49,-0.85,9.46,9.46,9.46
119.92,10.27,0.86,10.27,0.86,-0.87,-0.50,-0.86,9.40,9.40,9.40
121.12,10.22,0.88,10.22,0.88,-0.88,-0.51,-0.88,9.34,9.34,9.35
122.33,10.18,0.90,10.18,0.90,-0.90,-0.53,-0.89,9.28,9.28,9.29
123.55,10.15,0.92,10.15,0.92,-0.92,-0.54,-0.91,9.23,9.23,9.23
124.79,10.11,0.94,10.11,0.94,-0.94,-0.56,-0.92,9.17,9.17,9.17
126.03,10.07,0.96,10.07,0.96,-0.96,-0.57,-0.93,9.11,9.11,9.10
127.29,10.02,0.98,10.02,0.98,-0.97,-0.59,-0.93,9.05,9.05,9.04
128.57,9.97,0.99,9.97,0.99,-0.98,-0.61,-0.94,8.98,8.98,8.98
129.85,9.91,0.99,9.91,0.99,-0.99,-0.62,-0.95,8.92,8.92,8.92
131.15,9.86,1.00,9.86,1.00,-1.00,-0.64,-0.95,8.86,8.86,8.86
132.46,9.80,1.00,9.80,1.00,-1.00,-0.66,-0.96,8.80,8.80,8.80
133.79,9.74,0.99,9.74,0.99,-0.99,-0.68,-0.96,8.75,8.75,8.74
135.12,9.67,0.99,9.67,0.99,-0.98,-0.70,-0.97,8.69,8.69,8.69
136.48,9.60,0.97,9.60,0.97,-0.96,-0.72,-0.97,8.64,8.64,8.63
137.84,9.52,0.96,9.52,0.95,-0.95,-0.74,-0.97,8.58,8.58,8.57
139.22,9.44,0.93,9.44,0.93,-0.92,-0.76,-0.97,8.52,8.52,8.51
140.61,9.36,0.91,9.36,0.91,-0.90,-0.78,-0.97,8.46,8.46,8.45
142.02,9.28,0.89,9.27,0.89,-0.88,-0.80,-0.97,8.39,8.39,8.39
143.44,9.20,0.87,9.20,0.87,-0.88,-0.82,-0.97,8.32,8.32,8.33
144.87,9.13,0.86,9.13,0.86,-0.88,-0.85,-0.97,8.25,8.26,8.27
146.32,9.09,0.88,9.09,0.88,-0.90,-0.87,-0.97,8.19,8.19,8.21
147.78,9.06,0.91,9.07,0.92,-0.94,-0.89,-0.97,8.12,8.13,8.15
149.26,9.07,0.97,9.07,0.97,-1.00,-0.92,-0.97,8.07,8.07,8.09
150.75,9.09,1.05,9.09,1.05,-1.07,-0.94,-0.97,8.02,8.02,8.04
152.26,9.13,1.15,9.13,1.15,-1.16,-0.97,-0.97,7.97,7.97,7.98
153.78,9.18,1.26,9.18,1.26,-1.25,-0.99,-0.97,7.92,7.92,7.92
155.32,9.23,1.36,9.23,1.36,-1.35,-1.02,-0.97,7.88,7.88,7.86
156.88,9.27,1.46,9.27,1.46,-1.44,-1.05,-0.97,7.83,7.83,7.81
158.44,9.30,1.54,9.30,1.54,-1.52,-1.07,-0.97,7.78,7.78,7.75
160.03,9.31,1.61,9.31,1.61,-1.59,-1.10,-0.97,7.72,7.72,7.70
161.63,9.30,1.65,9.30,1.66,-1.64,-1.13,-0.97,7.66,7.66,7.65
163.24,9.29,1.69,9.29,1.69,-1.68,-1.16,-0.98,7.60,7.60,7.60
164.88,9.26,1.71,9.26,1.71,-1.71,-1.19,-0.98,7.55,7.55,7.55
166.53,9.22,1.72,9.22,1.72,-1.72,-1.21,-0.99,7.50,7.50,7.50
168.19,9.18,1.73,9.18,1.73,-1.73,-1.24,-0.99,7.45,7.45,7.46
169.87,9.14,1.73,9.14,1.73,-1.73,-1.27,-1.00,7.41,7.41,7.41
171.57,9.09,1.73,9.09,1.73,-1.73,-1.30,-1.01,7.36,7.36,7.36
173.29,9.04,1.73,9.04,1.73,-1.73,-1.33,-1.01,7.31,7.31,7.31
175.02,8.99,1.73,8.99,1.73,-1.73,-1.36,-1.02,7.26,7.26,7.26
176.77,8.93,1.73,8.93,1.73,-1.73,-1.38,-1.03,7.20,7.20,7.21
178.54,8.88,1.73,8.88,1.73,-1.73,-1.41,-1.04,7.15,7.15,7.15
180.32,8.83,1.73,8.83,1.73,-1.73,-1.44,-1.06,7.10,7.10,7.10
182.13,8.78,1.73,8.78,1.73,-1.73,-1.46,-1.07,7.05,7.05,7.05
183.95,8.72,1.73,8.72,1.73,-1.73,-1.49,-1.08,6.99,6.99,6.99
185.79,8.67,1.73,8.67,1.73,-1.73,-1.51,-1.10,6.94,6.94,6.94
187.65,8.61,1.73,8.61,1.73,-1.74,-1.53,-1.11,6.87,6.88,6.88
189.52,8.55,1.73,8.55,1.73,-1.74,-1.55,-1.13,6.81,6.81,6.82
191.42,8.50,1.74,8.50,1.74,-1.74,-1.57,-1.14,6.75,6.75,6.76
193.33,8.44,1.74,8.44,1.74,-1.75,-1.59,-1.16,6.69,6.70,6.70
195.27,8.39,1.75,8.39,1.75,-1.75,-1.61,-1.18,6.64,6.64,6.64
197.22,8.34,1.76,8.33,1.76,-1.75,-1.62,-1.20,6.59,6.58,6.58
199.19,8.28,1.76,8.28,1.76,-1.75,-1.64,-1.22,6.53,6.53,6.52
201.18,8.22,1.76,8.22,1.76,-1.75,-1.65,-1.24,6.47,6.47,6.46
203.19,8.15,1.75,8.15,1.75,-1.75,-1.66,-1.25,6.40,6.40,6.40
205.23,8.09,1.74,8.09,1.74,-1.75,-1.66,-1.27,6.34,6.34,6.35
207.28,8.02,1.73,8.02,1.73,-1.75,-1.67,-1.29,6.28,6.28,6.29
209.35,7.96,1.73,7.96,1.73,-1.74,-1.67,-1.31,6.22,6.22,6.23
211.44,7.90,1.74,7.90,1.74,-1.74,-1.67,-1.33,6.16,6.16,6.17
213.56,7.85,1.74,7.85,1.74,-1.73,-1.67,-1.35,6.11,6.11,6.11
215.69,7.79,1.73,7.79,1.73,-1.72,-1.66,-1.37,6.07,6.07,6.06
217.85,7.73,1.71,7.73,1.71,-1.70,-1.65,-1.39,6.02,6.02,6.01
220.03,7.66,1.69,7.66,1.69,-1.68,-1.64,-1.40,5.99,5.99,5.97
222.23,7.60,1.65,7.60,1.65,-1.64,-1.63,-1.42,5.96,5.96,5.95
224.45,7.53,1.61,7.53,1.60,-1.60,-1.62,-1.43,5.94,5.94,5.93
226.70,7.47,1.55,7.47,1.55,-1.54,-1.60,-1.45,5.92,5.92,5.91
228.96,7.40,1.49,7.40,1.49,-1.49,-1.58,-1.46,5.92,5.92,5.91
231.25,7.34,1.43,7.34,1.42,-1.43,-1.56,-1.47,5.91,5.91,5.91
233.57,7.27,1.36,7.27,1.36,-1.37,-1.54,-1.48,5.90,5.90,5.91
235.90,7.20,1.31,7.20,1.31,-1.32,-1.51,-1.48,5.88,5.88,5.90
238.26,7.14,1.27,7.14,1.27,-1.28,-1.49,-1.49,5.86,5.86,5.87
240.64,7.08,1.23,7.08,1.23,-1.25,-1.46,-1.49,5.84,5.84,5.85
243.05,7.03,1.21,7.03,1.21,-1.22,-1.43,-1.49,5.81,5.81,5.81
245.48,6.97,1.20,6.97,1.20,-1.20,-1.40,-1.48,5.77,5.77,5.77
247.93,6.92,1.19,6.92,1.19,-1.19,-1.37,-1.48,5.73,5.73,5.73
250.41,6.87,1.19,6.87,1.19,-1.18,-1.33,-1.47,5.69,5.69,5.68
252.92,6.82,1.18,6.82,1.18,-1.17,-1.30,-1.46,5.64,5.64,5.64
255.45,6.76,1.17,6.76,1.17,-1.17,-1.26,-1.44,5.59,5.59,5.59
258.00,6.70,1.16,6.70,1.16,-1.16,-1.23,-1.43,5.54,5.54,5.54
260.58,6.65,1.16,6.65,1.16,-1.16,-1.19,-1.41,5.49,5.49,5.49
263.19,6.59,1.15,6.59,1.15,-1.15,-1.16,-1.39,5.44,5.44,5.44
265.82,6.53,1.14,6.53,1.14,-1.14,-1.12,-1.36,5.39,5.39,5.39
268.48,6.47,1.13,6.47,1.13,-1.13,-1.08,-1.34,5.34,5.34,5.34
271.16,6.42,1.12,6.42,1.12,-1.12,-1.05,-1.31,5.30,5.30,5.29
273.87,6.36,1.11,6.36,1.11,-1.11,-1.01,-1.28,5.25,5.25,5.25
276.61,6.30,1.09,6.30,1.09,-1.09,-0.97,-1.24,5.20,5.20,5.20
279.38,6.23,1.08,6.23,1.08,-1.08,-0.93,-1.21,5.16,5.16,5.16
282.17,6.17,1.06,6.17,1.06,-1.06,-0.90,-1.18,5.11,5.11,5.11
284.99,6.11,1.04,6.11,1.04,-1.04,-0.86,-1.14,5.07,5.07,5.07
287.84,6.04,1.02,6.04,1.02,-1.02,-0.82,-1.10,5.02,5.02,5.03
290.72,5.98,1.00,5.98,1.00,-1.00,-0.78,-1.06,4.98,4.98,4.98
293.63,5.91,0.97,5.91,0.97,-0.97,-0.75,-1.02,4.94,4.94,4.94
296.57,5.85,0.95,5.85,0.95,-0.95,-0.71,-0.98,4.90,4.90,4.90
299.53,5.78,0.92,5.78,0.92,-0.92,-0.68,-0.94,4.86,4.86,4.85
302.53,5.71,0.90,5.71,0.90,-0.89,-0.64,-0.90,4.81,4.81,4.81
305.55,5.63,0.87,5.63,0.87,-0.87,-0.60,-0.85,4.77,4.77,4.77
308.61,5.56,0.83,5.56,0.83,-0.84,-0.57,-0.81,4.73,4.73,4.73
311.69,5.49,0.80,5.49,0.80,-0.80,-0.53,-0.77,4.68,4.68,4.69
314.81,5.42,0.77,5.42,0.77,-0.77,-0.50,-0.72,4.65,4.65,4.65
317.96,5.35,0.74,5.35,0.74,-0.74,-0.47,-0.68,4.61,4.61,4.61
321.14,5.28,0.71,5.28,0.71,-0.70,-0.43,-0.64,4.57,4.57,4.57
324.35,5.20,0.67,5.20,0.67,-0.67,-0.40,-0.59,4.53,4.53,4.53
327.59,5.13,0.64,5.13,0.64,-0.64,-0.37,-0.55,4.49,4.49,4.49
330.87,5.06,0.61,5.06,0.61,-0.61,-0.33,-0.51,4.45,4.45,4.45
334.18,4.99,0.58,4.99,0.58,-0.58,-0.30,-0.46,4.41,4.41,4.42
337.52,4.93,0.55,4.93,0.55,-0.56,-0.27,-0.42,4.37,4.37,4.38
340.90,4.87,0.53,4.87,0.53,-0.53,-0.24,-0.38,4.34,4.34,4.34
344.30,4.81,0.51,4.82,0.51,-0.51,-0.21,-0.34,4.30,4.30,4.31
347.75,4.76,0.49,4.76,0.49,-0.50,-0.18,-0.29,4.27,4.27,4.27
351.23,4.72,0.48,4.72,0.48,-0.48,-0.15,-0.25,4.24,4.24,4.24
354.74,4.67,0.46,4.67,0.46,-0.46,-0.12,-0.21,4.21,4.21,4.20
358.28,4.61,0.44,4.61,0.44,-0.44,-0.09,-0.17,4.17,4.17,4.17
361.87,4.56,0.42,4.56,0.42,-0.41,-0.06,-0.13,4.14,4.14,4.13
365.49,4.49,0.39,4.49,0.39,-0.39,-0.03,-0.08,4.11,4.11,4.10
369.14,4.43,0.36,4.43,0.36,-0.36,0.00,-0.04,4.07,4.07,4.07
372.83,4.36,0.32,4.36,0.32,-0.32,0.03,-0.00,4.04,4.04,4.04
376.56,4.29,0.28,4.29,0.28,-0.28,0.06,0.04,4.00,4.00,4.01
380.33,4.22,0.24,4.22,0.24,-0.25,0.09,0.08,3.97,3.97,3.98
384.13,4.15,0.20,4.15,0.20,-0.20,0.12,0.12,3.94,3.94,3.95
387.97,4.08,0.16,4.08,0.16,-0.16,0.15,0.16,3.91,3.91,3.92
391.85,4.01,0.12,4.01,0.12,-0.12,0.18,0.20,3.89,3.89,3.89
395.77,3.94,0.08,3.94,0.08,-0.08,0.21,0.24,3.86,3.86,3.86
399.73,3.87,0.04,3.87,0.04,-0.04,0.24,0.28,3.83,3.83,3.83
403.72,3.79,-0.00,3.79,-0.00,0.01,0.27,0.32,3.80,3.80,3.80
407.76,3.72,-0.05,3.72,-0.05,0.05,0.29,0.35,3.77,3.77,3.77
411.84,3.65,-0.10,3.65,-0.10,0.09,0.32,0.39,3.74,3.74,3.74
415.96,3.57,-0.14,3.57,-0.14,0.14,0.35,0.43,3.71,3.71,3.71
420.12,3.50,-0.19,3.50,-0.18,0.18,0.38,0.47,3.68,3.68,3.69
424.32,3.43,-0.23,3.43,-0.23,0.22,0.41,0.51,3.66,3.66,3.66
428.56,3.37,-0.26,3.37,-0.27,0.27,0.44,0.54,3.63,3.63,3.63
432.85,3.30,-0.31,3.30,-0.31,0.31,0.47,0.58,3.61,3.61,3.60
437.18,3.23,-0.35,3.23,-0.35,0.35,0.50,0.62,3.58,3.58,3.58
441.55,3.16,-0.39,3.16,-0.39,0.39,0.53,0.65,3.55,3.55,3.55
445.96,3.09,-0.44,3.09,-0.44,0.44,0.56,0.69,3.53,3.53,3.53
450.42,3.02,-0.48,3.02,-0.48,0.48,0.59,0.72,3.50,3.50,3.50
454.93,2.95,-0.53,2.95,-0.53,0.53,0.62,0.75,3.48,3.48,3.48
459.48,2.88,-0.58,2.88,-0.58,0.58,0.65,0.79,3.45,3.45,3.45
464.07,2.81,-0.62,2.81,-0.62,0.62,0.68,0.82,3.43,3.43,3.43
468.71,2.74,-0.67,2.74,-0.67,0.67,0.72,0.85,3.41,3.40,3.41
473.40,2.67,-0.72,2.67,-0.72,0.72,0.75,0.88,3.38,3.38,3.38
478.13,2.60,-0.76,2.60,-0.76,0.76,0.78,0.91,3.36,3.36,3.36
