frequency,raw,error,smoothed,error_smoothed,equalization,parametric_eq,fixed_band_eq,equalized_raw,equalized_smoothed,target
20.00,11.65,6.09,11.68,6.10,-6.08,-6.42,-2.32,5.57,5.60,5.57
20.20,11.51,5.89,11.49,5.88,-5.83,-6.39,-2.38,5.68,5.66,5.62
20.40,11.34,5.67,11.30,5.67,-5.61,-6.36,-2.45,5.72,5.69,5.67
20.61,11.13,5.46,11.13,5.46,-5.43,-6.19,-2.52,5.70,5.70,5.67
20.81,10.93,5.26,10.93,5.25,-5.28,-6.01,-2.59,5.65,5.65,5.67
21.02,10.78,5.07,10.78,5.06,-5.17,-5.80,-2.67,5.61,5.61,5.71
21.23,10.69,4.91,10.71,4.94,-5.09,-5.58,-2.74,5.60,5.62,5.78
21.44,10.72,4.89,10.73,4.91,-5.04,-5.39,-2.82,5.68,5.69,5.83
21.66,10.85,4.98,10.84,4.98,-5.07,-5.20,-2.90,5.78,5.77,5.87
21.87,11.00,5.13,11.00,5.11,-5.13,-5.06,-2.99,5.87,5.87,5.87
22.09,11.18,5.24,11.18,5.26,-5.21,-4.92,-3.07,5.97,5.97,5.93
22.31,11.34,5.37,11.34,5.37,-5.29,-4.83,-3.16,6.06,6.05,5.97
22.54,11.46,5.47,11.45,5.45,-5.34,-4.75,-3.25,6.11,6.11,5.98
22.76,11.51,5.45,11.50,5.47,-5.36,-4.70,-3.34,6.15,6.14,6.06
22.99,11.49,5.42,11.48,5.42,-5.34,-4.66,-3.43,6.16,6.15,6.07
23.22,11.42,5.34,11.42,5.32,-5.29,-4.65,-3.53,6.13,6.14,6.08
23.45,11.33,5.18,11.34,5.18,-5.21,-4.64,-3.63,6.12,6.12,6.15
23.69,11.26,5.03,11.26,5.05,-5.14,-4.66,-3.73,6.12,6.12,6.23
23.92,11.22,4.95,11.22,4.97,-5.08,-4.68,-3.83,6.14,6.15,6.27
24.16,11.23,4.96,11.24,4.94,-5.02,-4.71,-3.94,6.21,6.21,6.27
24.40,11.29,4.95,11.30,4.96,-4.99,-4.75,-4.04,6.31,6.31,6.34
24.65,11.38,4.98,11.38,4.98,-4.96,-4.79,-4.15,6.43,6.42,6.41
24.89,11.47,5.00,11.46,5.00,-4.93,-4.84,-4.26,6.54,6.53,6.47
25.14,11.52,4.99,11.52,4.99,-4.90,-4.89,-4.37,6.62,6.62,6.53
25.39,11.56,4.96,11.54,4.94,-4.87,-4.95,-4.48,6.69,6.68,6.60
25.65,11.53,4.85,11.53,4.85,-4.82,-5.00,-4.60,6.70,6.70,6.68
25.91,11.49,4.74,11.49,4.76,-4.78,-5.05,-4.71,6.71,6.71,6.75
26.16,11.44,4.68,11.45,4.68,-4.74,-5.10,-4.82,6.71,6.71,6.77
26.43,11.43,4.66,11.44,4.64,-4.72,-5.15,-4.93,6.72,6.73,6.78
26.69,11.47,4.63,11.47,4.64,-4.71,-5.19,-5.05,6.76,6.76,6.84
26.96,11.53,4.67,11.54,4.68,-4.73,-5.23,-5.16,6.81,6.81,6.87
27.23,11.63,4.76,11.63,4.75,-4.75,-5.26,-5.26,6.87,6.87,6.87
27.50,11.71,4.85,11.71,4.84,-4.79,-5.29,-5.37,6.93,6.92,6.87
27.77,11.77,4.90,11.77,4.90,-4.82,-5.31,-5.47,6.95,6.95,6.87
28.05,11.80,4.93,11.79,4.92,-4.84,-5.33,-5.58,6.96,6.95,6.87
28.33,11.77,4.90,11.77,4.91,-4.86,-5.34,-5.67,6.92,6.92,6.87
28.62,11.75,4.88,11.75,4.88,-4.87,-5.35,-5.77,6.88,6.88,6.87
28.90,11.71,4.84,11.72,4.85,-4.89,-5.35,-5.85,6.83,6.83,6.87
29.19,11.72,4.85,11.72,4.85,-4.92,-5.34,-5.93,6.80,6.80,6.87
29.48,11.75,4.88,11.76,4.89,-4.97,-5.34,-6.01,6.78,6.79,6.87
29.78,11.85,4.98,11.85,4.98,-5.05,-5.33,-6.08,6.81,6.80,6.87
30.08,11.97,5.10,11.98,5.11,-5.15,-5.31,-6.14,6.83,6.83,6.87
30.38,12.13,5.26,12.13,5.26,-5.26,-5.30,-6.20,6.87,6.87,6.87
30.68,12.28,5.41,12.28,5.41,-5.37,-5.28,-6.24,6.91,6.90,6.87
30.99,12.41,5.54,12.41,5.54,-5.48,-5.27,-6.28,6.93,6.93,6.87
31.30,12.50,5.63,12.50,5.63,-5.57,-5.25,-6.31,6.93,6.93,6.87
31.61,12.54,5.68,12.54,5.67,-5.63,-5.24,-6.34,6.92,6.92,6.87
31.93,12.55,5.68,12.54,5.67,-5.66,-5.22,-6.35,6.89,6.89,6.87
32.24,12.51,5.64,12.51,5.66,-5.66,-5.21,-6.36,6.85,6.85,6.87
32.57,12.45,5.63,12.45,5.63,-5.64,-5.20,-6.36,6.81,6.81,6.82
32.89,12.38,5.61,12.38,5.59,-5.61,-5.19,-6.36,6.77,6.77,6.77
33.22,12.32,5.55,12.32,5.56,-5.57,-5.19,-6.35,6.75,6.75,6.77
33.55,12.27,5.51,12.28,5.52,-5.54,-5.18,-6.33,6.74,6.74,6.77
33.89,12.26,5.49,12.26,5.49,-5.50,-5.18,-6.30,6.76,6.76,6.77
34.23,12.26,5.48,12.26,5.46,-5.47,-5.18,-6.28,6.79,6.79,6.77
34.57,12.27,5.43,12.27,5.45,-5.43,-5.18,-6.24,6.84,6.84,6.84
34.92,12.28,5.42,12.28,5.42,-5.40,-5.19,-6.21,6.88,6.88,6.87
35.27,12.29,5.41,12.29,5.39,-5.38,-5.19,-6.17,6.91,6.91,6.88
35.62,12.30,5.35,12.30,5.37,-5.37,-5.20,-6.13,6.93,6.93,6.95
35.97,12.30,5.33,12.31,5.34,-5.36,-5.22,-6.08,6.95,6.95,6.97
36.33,12.32,5.33,12.32,5.32,-5.35,-5.23,-6.04,6.97,6.97,6.99
36.70,12.36,5.31,12.36,5.33,-5.35,-5.25,-5.99,7.01,7.01,7.05
37.06,12.41,5.34,12.41,5.35,-5.35,-5.26,-5.95,7.06,7.07,7.07
37.43,12.48,5.39,12.48,5.37,-5.34,-5.28,-5.90,7.14,7.14,7.09
37.81,12.53,5.38,12.54,5.38,-5.33,-5.30,-5.86,7.20,7.21,7.15
38.19,12.58,5.36,12.57,5.36,-5.31,-5.33,-5.81,7.27,7.26,7.23
38.57,12.58,5.31,12.58,5.32,-5.29,-5.35,-5.77,7.29,7.29,7.27
38.95,12.56,5.29,12.56,5.29,-5.28,-5.37,-5.73,7.28,7.28,7.27
39.34,12.53,5.26,12.53,5.25,-5.29,-5.40,-5.70,7.24,7.24,7.27
39.74,12.50,5.24,12.51,5.23,-5.31,-5.43,-5.66,7.20,7.20,7.27
40.14,12.50,5.24,12.50,5.25,-5.34,-5.45,-5.63,7.15,7.16,7.26
40.54,12.51,5.32,12.51,5.33,-5.40,-5.48,-5.60,7.12,7.12,7.20
40.94,12.53,5.45,12.53,5.45,-5.45,-5.51,-5.58,7.08,7.08,7.09
41.35,12.56,5.59,12.56,5.56,-5.50,-5.53,-5.56,7.06,7.06,6.97
41.76,12.59,5.62,12.59,5.64,-5.54,-5.56,-5.54,7.05,7.05,6.97
42.18,12.63,5.66,12.63,5.66,-5.57,-5.59,-5.53,7.06,7.06,6.97
42.60,12.67,5.66,12.67,5.63,-5.57,-5.62,-5.52,7.10,7.10,7.00
43.03,12.70,5.56,12.70,5.57,-5.55,-5.64,-5.52,7.15,7.14,7.15
43.46,12.71,5.48,12.71,5.50,-5.53,-5.67,-5.51,7.18,7.18,7.23
43.90,12.71,5.44,12.70,5.44,-5.50,-5.69,-5.52,7.21,7.20,7.27
44.33,12.69,5.42,12.69,5.41,-5.48,-5.72,-5.53,7.20,7.21,7.27
44.78,12.68,5.42,12.69,5.43,-5.49,-5.74,-5.54,7.20,7.20,7.27
45.23,12.70,5.46,12.70,5.48,-5.51,-5.76,-5.55,7.19,7.20,7.24
45.68,12.74,5.57,12.74,5.55,-5.54,-5.78,-5.57,7.20,7.20,7.17
46.13,12.79,5.63,12.79,5.62,-5.59,-5.80,-5.60,7.20,7.20,7.17
46.60,12.85,5.68,12.85,5.68,-5.64,-5.82,-5.63,7.20,7.20,7.17
47.06,12.89,5.72,12.89,5.72,-5.69,-5.84,-5.66,7.19,7.20,7.17
47.53,12.91,5.74,12.91,5.73,-5.72,-5.85,-5.70,7.19,7.18,7.17
48.01,12.91,5.74,12.91,5.75,-5.74,-5.87,-5.73,7.17,7.17,7.17
48.49,12.89,5.73,12.89,5.75,-5.74,-5.88,-5.78,7.15,7.15,7.16
48.97,12.85,5.76,12.85,5.75,-5.72,-5.89,-5.82,7.13,7.13,7.09
49.46,12.81,5.74,12.81,5.73,-5.70,-5.90,-5.87,7.11,7.11,7.07
49.96,12.77,5.70,12.77,5.70,-5.69,-5.91,-5.93,7.08,7.08,7.07
50.46,12.74,5.67,12.74,5.67,-5.69,-5.91,-5.98,7.05,7.05,7.07
50.96,12.73,5.66,12.73,5.66,-5.71,-5.92,-6.04,7.01,7.01,7.07
51.47,12.73,5.68,12.73,5.70,-5.76,-5.93,-6.10,6.97,6.97,7.04
51.99,12.75,5.78,12.75,5.78,-5.83,-5.93,-6.16,6.92,6.92,6.97
52.51,12.80,5.89,12.80,5.89,-5.93,-5.93,-6.22,6.87,6.87,6.91
53.03,12.85,6.02,12.86,6.02,-6.04,-5.93,-6.28,6.81,6.81,6.84
53.56,12.92,6.16,12.92,6.16,-6.15,-5.94,-6.34,6.77,6.77,6.76
54.10,12.98,6.29,12.98,6.30,-6.25,-5.94,-6.40,6.73,6.73,6.69
54.64,13.04,6.42,13.04,6.42,-6.33,-5.94,-6.46,6.71,6.71,6.63
55.18,13.09,6.51,13.08,6.47,-6.39,-5.94,-6.51,6.70,6.70,6.58
55.74,13.11,6.46,13.11,6.46,-6.42,-5.94,-6.57,6.69,6.69,6.65
56.29,13.12,6.40,13.12,6.42,-6.43,-5.95,-6.62,6.69,6.69,6.72
56.86,13.12,6.35,13.11,6.36,-6.42,-5.95,-6.66,6.70,6.70,6.77
57.42,13.10,6.33,13.10,6.33,-6.39,-5.96,-6.70,6.72,6.72,6.77
58.00,13.09,6.32,13.09,6.32,-6.34,-5.97,-6.74,6.75,6.75,6.77
58.58,13.08,6.31,13.08,6.32,-6.29,-5.98,-6.77,6.79,6.79,6.77
59.16,13.08,6.31,13.08,6.29,-6.25,-5.99,-6.79,6.83,6.83,6.77
59.76,13.08,6.25,13.08,6.25,-6.21,-6.01,-6.80,6.87,6.87,6.83
60.35,13.08,6.19,13.08,6.18,-6.18,-6.03,-6.80,6.90,6.90,6.90
60.96,13.08,6.11,13.08,6.13,-6.17,-6.05,-6.80,6.91,6.91,6.96
61.57,13.06,6.10,13.06,6.11,-6.16,-6.08,-6.79,6.90,6.90,6.97
62.18,13.05,6.12,13.05,6.12,-6.17,-6.11,-6.76,6.88,6.88,6.93
62.80,13.03,6.17,13.03,6.16,-6.19,-6.14,-6.73,6.84,6.84,6.86
63.43,13.01,6.22,13.01,6.22,-6.22,-6.18,-6.69,6.79,6.79,6.80
64.07,13.00,6.27,13.00,6.28,-6.26,-6.22,-6.64,6.74,6.74,6.73
64.71,12.99,6.33,12.99,6.33,-6.30,-6.27,-6.57,6.69,6.69,6.66
65.35,12.97,6.39,12.97,6.37,-6.33,-6.31,-6.50,6.64,6.64,6.58
66.01,12.96,6.39,12.96,6.39,-6.35,-6.36,-6.42,6.61,6.61,6.57
66.67,12.93,6.37,12.93,6.37,-6.36,-6.40,-6.34,6.57,6.57,6.57
67.33,12.90,6.34,12.91,6.33,-6.36,-6.43,-6.24,6.54,6.55,6.57
68.01,12.87,6.30,12.87,6.30,-6.35,-6.47,-6.14,6.52,6.52,6.57
68.69,12.82,6.28,12.82,6.29,-6.32,-6.49,-6.03,6.50,6.50,6.54
69.37,12.75,6.28,12.75,6.28,-6.28,-6.50,-5.92,6.48,6.48,6.47
70.07,12.68,6.28,12.68,6.26,-6.23,-6.49,-5.79,6.45,6.45,6.40
70.77,12.59,6.22,12.59,6.21,-6.17,-6.47,-5.67,6.41,6.41,6.37
71.48,12.49,6.12,12.49,6.13,-6.11,-6.42,-5.54,6.38,6.38,6.37
72.19,12.39,6.02,12.39,6.02,-6.04,-6.35,-5.41,6.35,6.35,6.37
72.91,12.29,5.92,12.29,5.93,-5.96,-6.26,-5.28,6.33,6.33,6.37
73.64,12.19,5.83,12.19,5.85,-5.87,-6.16,-5.14,6.32,6.32,6.36
74.38,12.07,5.79,12.07,5.77,-5.76,-6.03,-5.00,6.31,6.31,6.29
75.12,11.95,5.68,11.95,5.67,-5.65,-5.88,-4.86,6.30,6.30,6.27
75.87,11.82,5.55,11.82,5.55,-5.54,-5.72,-4.73,6.28,6.28,6.27
76.63,11.67,5.40,11.67,5.43,-5.42,-5.55,-4.59,6.25,6.25,6.27
77.40,11.52,5.30,11.52,5.29,-5.29,-5.37,-4.45,6.22,6.22,6.21
78.17,11.34,5.18,11.35,5.16,-5.16,-5.18,-4.31,6.18,6.19,6.17
78.95,11.16,5.00,11.16,5.01,-5.02,-4.99,-4.17,6.14,6.14,6.17
79.74,10.97,4.86,10.97,4.86,-4.87,-4.79,-4.03,6.09,6.09,6.11
80.54,10.76,4.72,10.76,4.71,-4.72,-4.60,-3.90,6.04,6.04,6.04
81.35,10.54,4.57,10.54,4.57,-4.57,-4.41,-3.76,5.98,5.98,5.97
82.16,10.33,4.42,10.33,4.43,-4.41,-4.23,-3.63,5.92,5.92,5.91
82.98,10.11,4.27,10.11,4.27,-4.25,-4.05,-3.50,5.86,5.86,5.84
83.81,9.88,4.12,9.88,4.09,-4.09,-3.87,-3.37,5.80,5.80,5.77
84.65,9.66,3.89,9.66,3.91,-3.92,-3.70,-3.24,5.74,5.74,5.77
85.50,9.45,3.72,9.45,3.73,-3.76,-3.54,-3.12,5.68,5.68,5.73
86.35,9.24,3.58,9.24,3.57,-3.60,-3.37,-2.99,5.63,5.63,5.66
87.22,9.03,3.44,9.03,3.44,-3.44,-3.22,-2.87,5.59,5.59,5.59
88.09,8.82,3.30,8.82,3.29,-3.27,-3.07,-2.75,5.55,5.55,5.52
88.97,8.61,3.14,8.61,3.13,-3.11,-2.93,-2.63,5.50,5.50,5.47
89.86,8.40,2.93,8.40,2.96,-2.94,-2.79,-2.51,5.46,5.46,5.47
90.76,8.20,2.79,8.20,2.79,-2.78,-2.66,-2.40,5.42,5.42,5.41
91.66,8.00,2.63,8.00,2.61,-2.61,-2.52,-2.29,5.39,5.39,5.37
92.58,7.80,2.43,7.80,2.43,-2.44,-2.40,-2.17,5.37,5.36,5.37
93.51,7.61,2.24,7.61,2.26,-2.27,-2.28,-2.07,5.34,5.34,5.37
94.44,7.42,2.08,7.42,2.09,-2.10,-2.16,-1.96,5.32,5.32,5.34
95.39,7.24,1.97,7.24,1.94,-1.94,-2.05,-1.85,5.29,5.29,5.27
96.34,7.06,1.79,7.06,1.79,-1.79,-1.94,-1.75,5.27,5.27,5.27
97.30,6.90,1.63,6.90,1.64,-1.66,-1.83,-1.65,5.25,5.25,5.27
98.28,6.75,1.49,6.75,1.51,-1.52,-1.72,-1.55,5.23,5.23,5.26
99.26,6.61,1.42,6.61,1.40,-1.40,-1.62,-1.45,5.21,5.21,5.19
100.25,6.48,1.31,6.47,1.29,-1.28,-1.52,-1.36,5.19,5.19,5.17
101.25,6.34,1.18,6.34,1.18,-1.17,-1.42,-1.26,5.18,5.18,5.17
102.27,6.22,1.05,6.22,1.07,-1.05,-1.33,-1.17,5.16,5.16,5.17
103.29,6.10,0.96,6.10,0.97,-0.95,-1.24,-1.08,5.15,5.15,5.14
104.32,5.99,0.91,5.99,0.87,-0.85,-1.15,-1.00,5.14,5.14,5.08
105.37,5.90,0.76,5.89,0.76,-0.76,-1.06,-0.91,5.13,5.13,5.14
106.42,5.81,0.64,5.81,0.66,-0.69,-0.98,-0.83,5.12,5.12,5.17
107.48,5.72,0.58,5.72,0.58,-0.63,-0.90,-0.75,5.09,5.09,5.14
108.56,5.64,0.55,5.64,0.56,-0.59,-0.82,-0.68,5.05,5.05,5.09
109.64,5.57,0.56,5.57,0.55,-0.56,-0.74,-0.61,5.01,5.01,5.00
110.74,5.49,0.56,5.49,0.55,-0.54,-0.67,-0.54,4.95,4.95,4.93
111.85,5.41,0.54,5.41,0.55,-0.53,-0.60,-0.47,4.88,4.88,4.88
112.97,5.33,0.56,5.33,0.55,-0.53,-0.53,-0.41,4.81,4.81,4.77
114.10,5.25,0.54,5.25,0.54,-0.52,-0.46,-0.35,4.73,4.73,4.71
115.24,5.17,0.51,5.17,0.52,-0.51,-0.40,-0.30,4.66,4.66,4.66
116.39,5.09,0.49,5.09,0.48,-0.49,-0.33,-0.24,4.60,4.60,4.60
117.55,5.01,0.44,5.02,0.45,-0.46,-0.28,-0.20,4.56,4.56,4.57
118.73,4.95,0.41,4.95,0.43,-0.42,-0.22,-0.15,4.52,4.52,4.53
119.92,4.88,0.41,4.88,0.39,-0.39,-0.17,-0.12,4.49,4.49,4.47
121.12,4.82,0.35,4.82,0.34,-0.35,-0.12,-0.08,4.47,4.47,4.47
122.33,4.76,0.29,4.76,0.30,-0.31,-0.07,-0.05,4.45,4.45,4.47
123.55,4.70,0.23,4.70,0.25,-0.26,-0.03,-0.03,4.44,4.44,4.47
124.79,4.63,0.24,4.63,0.22,-0.21,0.01,-0.01,4.42,4.42,4.39
126.03,4.56,0.19,4.56,0.18,-0.16,0.05,0.01,4.40,4.40,4.37
127.29,4.50,0.13,4.50,0.13,-0.11,0.08,0.02,4.38,4.39,4.37
128.57,4.43,0.06,4.43,0.06,-0.07,0.11,0.02,4.37,4.37,4.37
129.85,4.37,0.00,4.37,0.00,-0.02,0.14,0.02,4.35,4.35,4.37
131.15,4.31,-0.05,4.31,-0.04,0.01,0.16,0.02,4.32,4.32,4.36
132.46,4.25,-0.05,4.25,-0.04,0.04,0.18,0.01,4.29,4.29,4.30
133.79,4.19,-0.04,4.19,-0.05,0.05,0.19,0.00,4.24,4.24,4.23
135.12,4.13,-0.04,4.13,-0.06,0.06,0.20,-0.01,4.19,4.19,4.17
136.48,4.07,-0.10,4.07,-0.06,0.05,0.21,-0.03,4.13,4.13,4.17
137.84,4.01,-0.07,4.01,-0.05,0.04,0.21,-0.06,4.06,4.06,4.08
139.22,3.96,-0.00,3.96,-0.02,0.03,0.21,-0.08,3.99,3.99,3.96
140.61,3.91,0.02,3.91,-0.00,0.02,0.21,-0.11,3.93,3.93,3.89
142.02,3.86,-0.01,3.86,0.01,0.02,0.20,-0.14,3.88,3.88,3.87
143.44,3.82,-0.03,3.82,-0.01,0.01,0.18,-0.18,3.83,3.83,3.85
144.87,3.78,0.01,3.79,-0.01,0.01,0.17,-0.22,3.79,3.79,3.78
146.32,3.76,-0.01,3.75,-0.00,0.00,0.15,-0.26,3.76,3.76,3.77
147.78,3.73,-0.00,3.73,0.01,-0.00,0.13,-0.30,3.73,3.73,3.73
149.26,3.70,0.03,3.70,0.01,-0.01,0.10,-0.35,3.69,3.69,3.67
150.75,3.68,0.01,3.68,0.02,-0.03,0.07,-0.39,3.65,3.65,3.67
152.26,3.66,0.04,3.66,0.04,-0.05,0.03,-0.44,3.61,3.61,3.63
153.78,3.64,0.07,3.64,0.07,-0.09,-0.00,-0.49,3.55,3.55,3.58
155.32,3.63,0.12,3.63,0.12,-0.14,-0.05,-0.55,3.49,3.49,3.50
156.88,3.61,0.19,3.61,0.19,-0.20,-0.09,-0.60,3.42,3.42,3.42
158.44,3.60,0.25,3.60,0.25,-0.26,-0.14,-0.65,3.34,3.34,3.35
160.03,3.59,0.32,3.59,0.31,-0.32,-0.18,-0.71,3.26,3.27,3.27
161.63,3.58,0.37,3.58,0.38,-0.37,-0.24,-0.77,3.21,3.21,3.21
163.24,3.58,0.42,3.58,0.43,-0.40,-0.29,-0.83,3.17,3.17,3.16
164.88,3.58,0.50,3.58,0.49,-0.42,-0.35,-0.88,3.16,3.16,3.07
166.53,3.58,0.51,3.58,0.51,-0.43,-0.40,-0.94,3.15,3.15,3.07
168.19,3.58,0.50,3.58,0.48,-0.43,-0.46,-1.01,3.15,3.15,3.08
169.87,3.58,0.42,3.58,0.42,-0.45,-0.52,-1.07,3.14,3.14,3.16
171.57,3.59,0.34,3.59,0.37,-0.47,-0.59,-1.13,3.12,3.12,3.25
173.29,3.60,0.38,3.60,0.39,-0.50,-0.65,-1.20,3.10,3.10,3.23
175.02,3.62,0.45,3.62,0.48,-0.54,-0.72,-1.26,3.08,3.08,3.17
176.77,3.64,0.65,3.64,0.62,-0.60,-0.79,-1.33,3.04,3.04,2.99
178.54,3.67,0.75,3.67,0.74,-0.67,-0.86,-1.40,3.00,3.00,2.92
180.32,3.70,0.83,3.70,0.82,-0.75,-0.93,-1.46,2.94,2.94,2.87
182.13,3.73,0.86,3.73,0.86,-0.84,-1.00,-1.53,2.89,2.89,2.87
183.95,3.76,0.90,3.76,0.91,-0.92,-1.07,-1.60,2.85,2.85,2.87
185.79,3.80,0.96,3.80,0.97,-0.98,-1.14,-1.67,2.82,2.82,2.84
187.65,3.84,1.06,3.84,1.04,-1.04,-1.21,-1.74,2.80,2.80,2.78
189.52,3.88,1.12,3.88,1.11,-1.10,-1.29,-1.81,2.78,2.78,2.77
191.42,3.93,1.16,3.93,1.16,-1.17,-1.36,-1.89,2.76,2.76,2.77
193.33,3.97,1.20,3.97,1.22,-1.25,-1.44,-1.96,2.72,2.72,2.77
195.27,4.02,1.31,4.01,1.31,-1.34,-1.51,-2.03,2.68,2.68,2.71
197.22,4.05,1.43,4.05,1.42,-1.43,-1.59,-2.11,2.62,2.62,2.63
199.19,4.09,1.53,4.09,1.53,-1.53,-1.67,-2.18,2.57,2.57,2.56
201.18,4.13,1.64,4.13,1.64,-1.62,-1.74,-2.26,2.51,2.51,2.50
203.19,4.17,1.74,4.17,1.74,-1.71,-1.82,-2.33,2.46,2.46,2.43
205.23,4.21,1.85,4.21,1.83,-1.81,-1.89,-2.40,2.41,2.41,2.37
207.28,4.26,1.89,4.26,1.91,-1.90,-1.97,-2.48,2.36,2.36,2.37
209.35,4.30,1.98,4.30,1.98,-1.98,-2.05,-2.55,2.32,2.32,2.32
211.44,4.34,2.07,4.34,2.05,-2.06,-2.12,-2.63,2.28,2.28,2.27
213.56,4.38,2.11,4.38,2.13,-2.15,-2.20,-2.70,2.24,2.24,2.27
215.69,4.42,2.21,4.42,2.22,-2.24,-2.28,-2.77,2.19,2.19,2.21
217.85,4.46,2.32,4.46,2.32,-2.33,-2.35,-2.84,2.13,2.13,2.14
220.03,4.50,2.43,4.50,2.42,-2.43,-2.43,-2.91,2.07,2.07,2.07
222.23,4.54,2.53,4.54,2.53,-2.53,-2.50,-2.97,2.01,2.01,2.01
224.45,4.58,2.62,4.58,2.63,-2.63,-2.58,-3.04,1.95,1.95,1.95
226.70,4.62,2.74,4.62,2.74,-2.72,-2.65,-3.10,1.90,1.90,1.88
228.96,4.66,2.85,4.66,2.84,-2.80,-2.72,-3.16,1.85,1.85,1.80
231.25,4.69,2.92,4.69,2.91,-2.89,-2.79,-3.22,1.81,1.81,1.77
233.57,4.73,2.96,4.73,2.96,-2.97,-2.87,-3.27,1.76,1.76,1.77
235.90,4.76,2.99,4.76,3.01,-3.04,-2.94,-3.32,1.72,1.72,1.77
238.26,4.79,3.07,4.79,3.07,-3.11,-3.01,-3.36,1.68,1.68,1.73
240.64,4.82,3.17,4.82,3.16,-3.18,-3.07,-3.41,1.64,1.64,1.65
243.05,4.85,3.26,4.85,3.26,-3.25,-3.14,-3.44,1.60,1.60,1.59
245.48,4.88,3.36,4.88,3.35,-3.32,-3.21,-3.48,1.55,1.55,1.52
247.93,4.90,3.43,4.90,3.41,-3.40,-3.28,-3.51,1.50,1.50,1.47
250.41,4.92,3.46,4.92,3.47,-3.48,-3.34,-3.53,1.45,1.45,1.47
252.92,4.95,3.53,4.95,3.54,-3.56,-3.40,-3.55,1.39,1.39,1.42
255.45,4.97,3.62,4.97,3.62,-3.63,-3.46,-3.57,1.34,1.34,1.35
258.00,5.00,3.73,5.00,3.69,-3.70,-3.52,-3.58,1.30,1.29,1.27
260.58,5.02,3.75,5.02,3.76,-3.76,-3.58,-3.59,1.26,1.26,1.27
263.19,5.03,3.79,5.03,3.82,-3.81,-3.64,-3.60,1.22,1.22,1.24
265.82,5.05,3.88,5.05,3.88,-3.86,-3.69,-3.60,1.19,1.19,1.17
268.48,5.06,3.96,5.06,3.93,-3.90,-3.75,-3.60,1.16,1.16,1.11
271.16,5.08,3.98,5.08,3.95,-3.94,-3.80,-3.59,1.14,1.14,1.10
273.87,5.09,3.92,5.09,3.94,-3.97,-3.85,-3.59,1.12,1.12,1.17
276.61,5.10,3.93,5.10,3.95,-3.99,-3.89,-3.58,1.11,1.11,1.17
279.38,5.11,3.97,5.11,3.98,-3.99,-3.94,-3.57,1.11,1.11,1.13
282.17,5.12,4.05,5.12,4.03,-4.00,-3.98,-3.55,1.12,1.12,1.07
284.99,5.12,4.06,5.12,4.04,-3.99,-4.02,-3.54,1.13,1.13,1.07
287.84,5.13,4.02,5.13,4.02,-3.99,-4.06,-3.52,1.14,1.14,1.11
290.72,5.14,3.97,5.14,3.99,-4.00,-4.09,-3.51,1.14,1.14,1.17
293.63,5.14,3.97,5.14,3.97,-4.00,-4.13,-3.49,1.14,1.14,1.17
296.57,5.14,3.97,5.14,3.98,-4.01,-4.16,-3.47,1.13,1.13,1.17
299.53,5.14,4.00,5.14,4.01,-4.03,-4.18,-3.46,1.12,1.12,1.14
302.53,5.14,4.06,5.14,4.04,-4.05,-4.21,-3.44,1.09,1.09,1.08
305.55,5.14,4.07,5.14,4.07,-4.08,-4.23,-3.43,1.06,1.06,1.07
308.61,5.14,4.10,5.14,4.12,-4.12,-4.26,-3.41,1.02,1.02,1.04
311.69,5.13,4.16,5.13,4.16,-4.15,-4.27,-3.40,0.98,0.98,0.97
314.81,5.13,4.23,5.13,4.22,-4.18,-4.29,-3.39,0.95,0.95,0.90
317.96,5.12,4.26,5.12,4.25,-4.21,-4.30,-3.38,0.92,0.92,0.87
321.14,5.12,4.25,5.12,4.25,-4.23,-4.31,-3.37,0.89,0.89,0.87
324.35,5.11,4.24,5.11,4.24,-4.25,-4.32,-3.37,0.86,0.86,0.87
327.59,5.10,4.24,5.10,4.24,-4.28,-4.33,-3.37,0.82,0.82,0.87
330.87,5.10,4.24,5.10,4.26,-4.31,-4.34,-3.36,0.79,0.79,0.85
334.18,5.09,4.30,5.08,4.30,-4.33,-4.34,-3.37,0.75,0.75,0.78
337.52,5.07,4.35,5.07,4.35,-4.35,-4.34,-3.37,0.72,0.72,0.72
340.90,5.06,4.41,5.06,4.41,-4.37,-4.34,-3.38,0.69,0.69,0.65
344.30,5.04,4.46,5.04,4.45,-4.38,-4.33,-3.39,0.66,0.66,0.58
347.75,5.02,4.45,5.02,4.44,-4.40,-4.33,-3.40,0.62,0.62,0.57
351.23,5.00,4.41,5.00,4.40,-4.41,-4.32,-3.41,0.59,0.59,0.59
354.74,4.98,4.32,4.98,4.36,-4.41,-4.32,-3.43,0.57,0.57,0.66
358.28,4.96,4.36,4.96,4.36,-4.41,-4.31,-3.45,0.55,0.55,0.60
361.87,4.94,4.40,4.94,4.39,-4.40,-4.30,-3.47,0.53,0.53,0.53
365.49,4.91,4.44,4.91,4.42,-4.40,-4.28,-3.50,0.51,0.51,0.47
369.14,4.89,4.42,4.89,4.42,-4.40,-4.27,-3.52,0.49,0.49,0.47
372.83,4.86,4.39,4.86,4.40,-4.40,-4.26,-3.55,0.46,0.46,0.47
376.56,4.84,4.38,4.84,4.40,-4.40,-4.25,-3.59,0.43,0.43,0.46
380.33,4.81,4.42,4.81,4.40,-4.41,-4.23,-3.62,0.41,0.41,0.40
384.13,4.79,4.42,4.79,4.40,-4.41,-4.22,-3.66,0.38,0.38,0.37
387.97,4.76,4.39,4.76,4.39,-4.40,-4.20,-3.70,0.36,0.36,0.37
391.85,4.73,4.36,4.73,4.38,-4.40,-4.19,-3.74,0.33,0.33,0.37
395.77,4.70,4.39,4.70,4.38,-4.39,-4.17,-3.78,0.31,0.31,0.31
399.73,4.67,4.40,4.67,4.38,-4.37,-4.16,-3.83,0.30,0.30,0.27
403.72,4.64,4.37,4.64,4.37,-4.35,-4.14,-3.88,0.29,0.29,0.27
407.76,4.60,4.34,4.60,4.35,-4.32,-4.13,-3.92,0.29,0.29,0.27
411.84,4.57,4.30,4.57,4.30,-4.29,-4.11,-3.97,0.28,0.28,0.27
415.96,4.53,4.27,4.53,4.24,-4.25,-4.10,-4.02,0.28,0.28,0.27
420.12,4.50,4.16,4.50,4.19,-4.21,-4.09,-4.07,0.29,0.29,0.34
424.32,4.46,4.13,4.46,4.15,-4.17,-4.07,-4.12,0.29,0.29,0.33
428.56,4.42,4.15,4.42,4.13,-4.13,-4.06,-4.16,0.29,0.29,0.27
432.85,4.38,4.11,4.38,4.11,-4.09,-4.05,-4.21,0.29,0.29,0.27
437.18,4.34,4.07,4.34,4.07,-4.06,-4.04,-4.26,0.28,0.28,0.27
441.55,4.30,4.03,4.30,4.03,-4.03,-4.03,-4.30,0.27,0.27,0.27
445.96,4.26,3.99,4.26,4.01,-4.02,-4.02,-4.34,0.24,0.24,0.27
450.42,4.22,4.00,4.22,3.99,-4.01,-4.02,-4.38,0.21,0.21,0.22
454.93,4.18,4.01,4.18,3.99,-4.00,-4.01,-4.41,0.18,0.18,0.17
459.48,4.14,3.97,4.14,3.99,-4.01,-4.00,-4.44,0.13,0.13,0.17
464.07,4.10,3.99,4.10,3.99,-4.02,-3.99,-4.47,0.08,0.08,0.11
468.71,4.06,4.02,4.06,4.02,-4.03,-3.98,-4.49,0.04,0.04,0.04
473.40,4.02,4.05,4.02,4.05,-4.04,-3.98,-4.50,-0.01,-0.01,-0.02
478.13,3.98,4.07,3.98,4.07,-4.04,-3.97,-4.51,-0.05,-0.05,-0.09
482.91,3.94,4.07,3.94,4.06,-4.03,-3.96,-4.52,-0.09,-0.09,-0.13
487.74,3.89,4.02,3.89,4.03,-4.01,-3.95,-4.51,-0.11,-0.11,-0.13
492.62,3.84,3.98,3.84,3.98,-3.98,-3.93,-4.50,-0.13,-0.13,-0.13
497.55,3.79,3.92,3.79,3.92,-3.94,-3.92,-4.48,-0.14,-0.14,-0.13
502.52,3.74,3.87,3.74,3.87,-3.89,-3.90,-4.46,-0.14,-0.14,-0.13
507.55,3.69,3.82,3.69,3.82,-3.83,-3.88,-4.43,-0.14,-0.14,-0.13
512.62,3.64,3.77,3.64,3.77,-3.77,-3.86,-4.39,-0.14,-0.14,-0.13
517.75,3.58,3.71,3.58,3.71,-3.72,-3.83,-4.35,-0.13,-0.13,-0.13
