frequency,raw,error,smoothed,error_smoothed,equalization,parametric_eq,fixed_band_eq,equalized_raw,equalized_smoothed,target
20.00,-2.85,-10.96,-2.85,-10.96,6.00,5.52,2.70,3.15,3.15,8.11
20.20,-2.67,-10.82,-2.67,-10.82,6.00,5.62,2.78,3.33,3.33,8.15
20.40,-2.49,-10.69,-2.49,-10.69,6.00,5.72,2.85,3.51,3.51,8.19
20.61,-2.32,-10.56,-2.32,-10.56,6.00,5.81,2.94,3.68,3.68,8.24
20.81,-2.16,-10.45,-2.16,-10.45,6.00,5.89,3.02,3.84,3.84,8.29
21.02,-2.00,-10.34,-2.00,-10.34,6.00,5.97,3.10,4.00,4.00,8.34
21.23,-1.85,-10.24,-1.86,-10.24,6.00,6.05,3.19,4.15,4.14,8.39
21.44,-1.72,-10.15,-1.72,-10.15,6.00,6.11,3.28,4.28,4.28,8.44
21.66,-1.59,-10.07,-1.59,-10.07,6.00,6.17,3.38,4.41,4.41,8.48
21.87,-1.47,-10.00,-1.47,-10.00,6.00,6.21,3.47,4.53,4.53,8.53
22.09,-1.36,-9.93,-1.36,-9.93,6.00,6.25,3.57,4.64,4.64,8.58
22.31,-1.25,-9.88,-1.25,-9.88,6.00,6.27,3.67,4.75,4.75,8.63
22.54,-1.15,-9.83,-1.15,-9.83,6.00,6.29,3.77,4.85,4.85,8.68
22.76,-1.06,-9.79,-1.07,-9.79,6.00,6.30,3.88,4.94,4.93,8.73
22.99,-0.98,-9.76,-0.98,-9.76,6.00,6.30,3.99,5.02,5.02,8.78
23.22,-0.91,-9.73,-0.91,-9.73,6.00,6.30,4.10,5.09,5.09,8.83
23.45,-0.84,-9.71,-0.84,-9.71,6.00,6.29,4.22,5.16,5.16,8.88
23.69,-0.77,-9.70,-0.77,-9.70,6.00,6.27,4.33,5.23,5.23,8.93
23.92,-0.71,-9.69,-0.71,-9.69,6.00,6.25,4.45,5.29,5.29,8.98
24.16,-0.65,-9.69,-0.65,-9.69,6.00,6.22,4.57,5.35,5.35,9.04
24.40,-0.60,-9.69,-0.60,-9.69,6.00,6.19,4.70,5.40,5.40,9.09
24.65,-0.55,-9.69,-0.55,-9.69,6.00,6.16,4.82,5.45,5.45,9.15
24.89,-0.50,-9.70,-0.50,-9.70,6.00,6.13,4.95,5.50,5.50,9.20
25.14,-0.45,-9.70,-0.45,-9.70,6.00,6.10,5.08,5.55,5.55,9.25
25.39,-0.41,-9.70,-0.41,-9.70,6.00,6.07,5.21,5.59,5.59,9.30
25.65,-0.36,-9.70,-0.36,-9.70,6.00,6.03,5.34,5.64,5.64,9.34
25.91,-0.32,-9.69,-0.32,-9.69,6.00,6.00,5.47,5.68,5.68,9.38
26.16,-0.27,-9.68,-0.27,-9.68,6.00,5.98,5.60,5.73,5.73,9.41
26.43,-0.23,-9.67,-0.23,-9.67,6.00,5.95,5.73,5.77,5.77,9.45
26.69,-0.18,-9.67,-0.18,-9.67,6.00,5.92,5.86,5.82,5.82,9.48
26.96,-0.14,-9.66,-0.14,-9.66,6.00,5.90,5.99,5.86,5.86,9.52
27.23,-0.09,-9.66,-0.09,-9.66,6.00,5.88,6.11,5.91,5.91,9.57
27.50,-0.04,-9.66,-0.04,-9.66,6.00,5.86,6.24,5.96,5.96,9.61
27.77,0.00,-9.65,0.00,-9.65,6.00,5.84,6.36,6.00,6.00,9.66
28.05,0.05,-9.65,0.05,-9.65,6.00,5.83,6.48,6.05,6.05,9.70
28.33,0.10,-9.64,0.10,-9.64,6.00,5.81,6.59,6.10,6.10,9.74
28.62,0.15,-9.62,0.15,-9.62,6.00,5.80,6.70,6.15,6.15,9.78
28.90,0.21,-9.60,0.21,-9.60,6.00,5.79,6.79,6.21,6.21,9.81
29.19,0.26,-9.58,0.26,-9.58,6.00,5.78,6.89,6.26,6.26,9.84
29.48,0.31,-9.56,0.31,-9.56,6.00,5.78,6.97,6.31,6.31,9.87
29.78,0.37,-9.53,0.37,-9.53,6.00,5.78,7.05,6.37,6.37,9.90
30.08,0.42,-9.51,0.42,-9.51,6.00,5.77,7.12,6.42,6.42,9.93
30.38,0.47,-9.49,0.47,-9.49,6.00,5.77,7.18,6.47,6.47,9.96
30.68,0.53,-9.46,0.53,-9.46,6.00,5.77,7.23,6.53,6.53,9.99
30.99,0.58,-9.43,0.58,-9.43,6.00,5.78,7.28,6.58,6.58,10.01
31.30,0.63,-9.40,0.63,-9.40,6.00,5.78,7.30,6.63,6.63,10.03
31.61,0.69,-9.37,0.69,-9.37,6.00,5.78,7.33,6.69,6.69,10.06
31.93,0.74,-9.34,0.74,-9.35,6.00,5.79,7.34,6.74,6.74,10.08
32.24,0.79,-9.32,0.79,-9.32,6.00,5.80,7.34,6.79,6.79,10.11
32.57,0.84,-9.30,0.83,-9.30,6.00,5.80,7.33,6.84,6.83,10.13
32.89,0.88,-9.28,0.88,-9.28,6.00,5.81,7.32,6.88,6.88,10.16
33.22,0.93,-9.26,0.93,-9.26,6.00,5.82,7.29,6.93,6.93,10.19
33.55,0.97,-9.24,0.97,-9.24,6.00,5.83,7.26,6.97,6.97,10.22
33.89,1.02,-9.23,1.02,-9.23,6.00,5.84,7.22,7.02,7.02,10.24
34.23,1.06,-9.21,1.06,-9.21,6.00,5.85,7.18,7.06,7.06,10.27
34.57,1.10,-9.20,1.10,-9.20,6.00,5.86,7.13,7.10,7.10,10.30
34.92,1.14,-9.19,1.14,-9.19,6.00,5.87,7.08,7.14,7.14,10.33
35.27,1.19,-9.18,1.19,-9.18,6.00,5.89,7.02,7.19,7.19,10.36
35.62,1.23,-9.17,1.23,-9.17,6.00,5.90,6.96,7.23,7.23,10.40
35.97,1.27,-9.16,1.27,-9.16,6.00,5.91,6.89,7.27,7.27,10.43
36.33,1.31,-9.15,1.31,-9.15,6.00,5.93,6.83,7.31,7.31,10.46
36.70,1.35,-9.13,1.35,-9.13,6.00,5.94,6.76,7.35,7.35,10.48
37.06,1.39,-9.11,1.39,-9.11,6.00,5.95,6.69,7.39,7.39,10.50
37.43,1.43,-9.08,1.43,-9.08,6.00,5.97,6.63,7.43,7.43,10.52
37.81,1.48,-9.05,1.48,-9.05,6.00,5.98,6.56,7.48,7.48,10.53
38.19,1.52,-9.02,1.52,-9.02,6.00,5.99,6.50,7.52,7.52,10.54
38.57,1.56,-8.98,1.56,-8.98,6.00,6.01,6.44,7.56,7.56,10.55
38.95,1.60,-8.95,1.60,-8.95,6.00,6.02,6.38,7.60,7.60,10.56
39.34,1.65,-8.92,1.65,-8.92,6.00,6.03,6.32,7.65,7.65,10.57
39.74,1.69,-8.89,1.69,-8.90,6.00,6.05,6.27,7.69,7.69,10.58
40.14,1.73,-8.88,1.73,-8.88,6.00,6.06,6.21,7.73,7.73,10.61
40.54,1.77,-8.86,1.77,-8.86,6.00,6.07,6.17,7.77,7.77,10.64
40.94,1.81,-8.85,1.81,-8.85,6.00,6.09,6.12,7.81,7.81,10.67
41.35,1.85,-8.84,1.85,-8.84,6.00,6.10,6.08,7.85,7.85,10.69
41.76,1.89,-8.82,1.89,-8.82,6.00,6.11,6.05,7.89,7.89,10.71
42.18,1.92,-8.79,1.92,-8.79,6.00,6.12,6.02,7.92,7.92,10.72
42.60,1.96,-8.76,1.96,-8.76,6.00,6.14,5.99,7.96,7.96,10.72
43.03,1.99,-8.73,1.99,-8.73,6.00,6.15,5.96,7.99,7.99,10.72
43.46,2.02,-8.69,2.02,-8.69,6.00,6.16,5.95,8.02,8.02,10.72
43.90,2.05,-8.66,2.05,-8.66,6.00,6.17,5.93,8.05,8.05,10.72
44.33,2.08,-8.64,2.08,-8.64,6.00,6.18,5.92,8.08,8.08,10.72
44.78,2.11,-8.62,2.11,-8.62,6.00,6.19,5.92,8.11,8.11,10.72
45.23,2.13,-8.60,2.13,-8.60,6.00,6.20,5.92,8.13,8.13,10.73
45.68,2.16,-8.58,2.16,-8.58,6.00,6.21,5.92,8.16,8.16,10.74
46.13,2.18,-8.56,2.18,-8.56,6.00,6.22,5.93,8.18,8.18,10.74
46.60,2.20,-8.55,2.20,-8.55,6.00,6.22,5.94,8.20,8.20,10.75
47.06,2.22,-8.54,2.22,-8.54,6.00,6.23,5.96,8.22,8.22,10.76
47.53,2.24,-8.53,2.24,-8.53,6.00,6.24,5.98,8.24,8.24,10.77
48.01,2.26,-8.52,2.26,-8.52,6.00,6.24,6.00,8.26,8.26,10.78
48.49,2.27,-8.51,2.27,-8.51,6.00,6.25,6.03,8.27,8.27,10.79
48.97,2.29,-8.50,2.29,-8.50,6.00,6.26,6.06,8.29,8.29,10.79
49.46,2.31,-8.49,2.31,-8.49,6.00,6.26,6.10,8.31,8.31,10.80
49.96,2.32,-8.48,2.32,-8.48,6.00,6.26,6.14,8.32,8.32,10.80
50.46,2.34,-8.46,2.34,-8.46,6.00,6.27,6.18,8.34,8.34,10.80
50.96,2.36,-8.44,2.36,-8.44,6.00,6.27,6.22,8.36,8.36,10.80
51.47,2.38,-8.42,2.38,-8.42,6.00,6.27,6.27,8.38,8.38,10.80
51.99,2.39,-8.40,2.39,-8.40,6.00,6.27,6.32,8.39,8.39,10.79
52.51,2.41,-8.37,2.41,-8.37,6.00,6.27,6.37,8.41,8.41,10.78
53.03,2.43,-8.33,2.43,-8.33,6.00,6.27,6.42,8.43,8.43,10.77
53.56,2.46,-8.29,2.46,-8.29,6.00,6.27,6.47,8.46,8.46,10.75
54.10,2.48,-8.25,2.48,-8.25,6.00,6.27,6.51,8.48,8.48,10.73
54.64,2.51,-8.21,2.51,-8.21,6.00,6.27,6.56,8.51,8.51,10.71
55.18,2.53,-8.17,2.53,-8.17,6.00,6.27,6.61,8.53,8.53,10.70
55.74,2.56,-8.13,2.56,-8.13,6.00,6.26,6.66,8.56,8.56,10.69
56.29,2.59,-8.09,2.59,-8.09,6.00,6.26,6.70,8.59,8.59,10.68
56.86,2.62,-8.05,2.62,-8.05,6.00,6.25,6.74,8.62,8.62,10.67
57.42,2.65,-8.01,2.65,-8.01,6.00,6.25,6.77,8.65,8.65,10.66
58.00,2.69,-7.97,2.69,-7.97,6.00,6.24,6.80,8.69,8.69,10.65
58.58,2.72,-7.92,2.72,-7.92,6.00,6.23,6.83,8.72,8.72,10.64
59.16,2.76,-7.88,2.76,-7.88,6.00,6.22,6.85,8.76,8.76,10.63
59.76,2.79,-7.83,2.79,-7.83,6.00,6.21,6.86,8.79,8.79,10.62
60.35,2.82,-7.78,2.82,-7.78,6.00,6.20,6.86,8.82,8.82,10.61
60.96,2.86,-7.73,2.86,-7.73,6.00,6.19,6.86,8.86,8.86,10.59
61.57,2.89,-7.68,2.89,-7.68,6.00,6.18,6.85,8.89,8.89,10.57
62.18,2.92,-7.62,2.92,-7.62,6.00,6.17,6.83,8.92,8.92,10.55
62.80,2.96,-7.57,2.96,-7.57,6.00,6.15,6.81,8.96,8.96,10.53
63.43,2.99,-7.51,2.99,-7.51,6.00,6.14,6.78,8.99,8.99,10.50
64.07,3.02,-7.46,3.02,-7.46,6.00,6.12,6.73,9.02,9.02,10.48
64.71,3.05,-7.40,3.05,-7.40,6.00,6.10,6.68,9.05,9.05,10.45
65.35,3.08,-7.35,3.08,-7.35,6.00,6.09,6.63,9.08,9.08,10.42
66.01,3.10,-7.29,3.10,-7.29,6.00,6.07,6.56,9.10,9.10,10.39
66.67,3.13,-7.24,3.13,-7.24,6.00,6.05,6.49,9.13,9.13,10.37
67.33,3.16,-7.18,3.16,-7.18,6.00,6.03,6.42,9.16,9.16,10.34
68.01,3.19,-7.12,3.19,-7.12,6.00,6.00,6.33,9.19,9.19,10.31
68.69,3.21,-7.06,3.21,-7.06,6.00,5.98,6.24,9.21,9.21,10.28
69.37,3.24,-7.00,3.24,-7.00,6.00,5.96,6.15,9.24,9.24,10.24
70.07,3.26,-6.94,3.26,-6.94,6.00,5.93,6.06,9.26,9.26,10.20
70.77,3.29,-6.88,3.29,-6.88,6.00,5.90,5.96,9.29,9.29,10.17
71.48,3.32,-6.82,3.32,-6.82,6.00,5.88,5.85,9.32,9.32,10.14
72.19,3.34,-6.76,3.34,-6.76,6.00,5.85,5.75,9.34,9.34,10.10
72.91,3.37,-6.70,3.37,-6.69,6.00,5.82,5.64,9.37,9.37,10.06
73.64,3.40,-6.63,3.40,-6.63,6.00,5.79,5.53,9.40,9.40,10.02
74.38,3.42,-6.56,3.42,-6.56,6.00,5.75,5.43,9.42,9.42,9.98
75.12,3.45,-6.49,3.45,-6.49,6.00,5.72,5.32,9.45,9.45,9.94
75.87,3.48,-6.42,3.48,-6.42,6.01,5.69,5.21,9.49,9.49,9.90
76.63,3.51,-6.35,3.51,-6.35,6.02,5.65,5.10,9.52,9.52,9.86
77.40,3.54,-6.28,3.54,-6.28,6.02,5.61,5.00,9.55,9.55,9.82
78.17,3.57,-6.21,3.57,-6.21,6.01,5.58,4.89,9.57,9.57,9.78
78.95,3.59,-6.14,3.59,-6.13,5.99,5.54,4.79,9.58,9.58,9.73
79.74,3.62,-6.05,3.62,-6.05,5.96,5.50,4.69,9.58,9.58,9.68
80.54,3.65,-5.96,3.65,-5.96,5.92,5.45,4.59,9.57,9.57,9.62
81.35,3.68,-5.87,3.68,-5.88,5.86,5.41,4.49,9.55,9.55,9.56
82.16,3.71,-5.79,3.71,-5.79,5.80,5.37,4.40,9.51,9.51,9.50
82.98,3.74,-5.70,3.74,-5.70,5.72,5.32,4.30,9.47,9.47,9.45
83.81,3.77,-5.62,3.77,-5.62,5.64,5.27,4.21,9.41,9.41,9.40
84.65,3.80,-5.55,3.80,-5.55,5.56,5.22,4.13,9.35,9.35,9.34
85.50,3.82,-5.47,3.82,-5.47,5.47,5.17,4.04,9.29,9.29,9.29
86.35,3.84,-5.39,3.84,-5.39,5.39,5.12,3.96,9.23,9.23,9.24
87.22,3.86,-5.31,3.86,-5.31,5.31,5.07,3.88,9.17,9.17,9.18
88.09,3.88,-5.23,3.88,-5.23,5.23,5.02,3.81,9.11,9.11,9.11
88.97,3.89,-5.15,3.90,-5.15,5.16,4.96,3.74,9.05,9.05,9.05
89.86,3.91,-5.07,3.91,-5.07,5.08,4.91,3.66,8.99,8.99,8.98
90.76,3.91,-5.00,3.91,-5.00,5.01,4.85,3.60,8.92,8.92,8.91
91.66,3.92,-4.93,3.92,-4.93,4.93,4.79,3.53,8.85,8.85,8.85
92.58,3.92,-4.86,3.92,-4.86,4.86,4.73,3.47,8.78,8.78,8.78
93.51,3.92,-4.79,3.92,-4.79,4.78,4.66,3.41,8.70,8.70,8.71
94.44,3.92,-4.72,3.92,-4.72,4.70,4.60,3.36,8.62,8.62,8.63
95.39,3.91,-4.64,3.91,-4.64,4.62,4.53,3.30,8.53,8.53,8.55
96.34,3.90,-4.55,3.90,-4.55,4.54,4.47,3.25,8.44,8.44,8.45
97.30,3.89,-4.46,3.89,-4.46,4.46,4.40,3.20,8.35,8.35,8.35
98.28,3.88,-4.37,3.88,-4.37,4.38,4.33,3.16,8.26,8.26,8.24
99.26,3.87,-4.29,3.87,-4.29,4.31,4.26,3.11,8.17,8.17,8.15
100.25,3.85,-4.22,3.85,-4.22,4.23,4.18,3.07,8.08,8.08,8.07
101.25,3.84,-4.16,3.84,-4.16,4.16,4.11,3.03,8.00,8.00,8.00
102.27,3.82,-4.09,3.82,-4.09,4.09,4.03,2.99,7.91,7.91,7.92
103.29,3.81,-4.02,3.81,-4.02,4.02,3.96,2.95,7.83,7.83,7.83
104.32,3.79,-3.94,3.79,-3.94,3.94,3.88,2.92,7.74,7.74,7.73
105.37,3.78,-3.86,3.78,-3.86,3.86,3.80,2.88,7.64,7.64,7.64
106.42,3.77,-3.78,3.77,-3.78,3.77,3.71,2.85,7.54,7.54,7.54
107.48,3.75,-3.69,3.75,-3.69,3.67,3.63,2.81,7.42,7.42,7.44
108.56,3.74,-3.58,3.74,-3.58,3.56,3.54,2.78,7.30,7.30,7.32
109.64,3.73,-3.45,3.73,-3.45,3.44,3.46,2.75,7.17,7.17,7.18
110.74,3.72,-3.32,3.72,-3.32,3.32,3.37,2.72,7.04,7.04,7.04
111.85,3.70,-3.18,3.70,-3.18,3.19,3.28,2.68,6.90,6.90,6.89
112.97,3.69,-3.05,3.69,-3.05,3.06,3.19,2.65,6.76,6.76,6.74
114.10,3.68,-2.91,3.68,-2.92,2.93,3.09,2.62,6.61,6.61,6.60
115.24,3.67,-2.79,3.67,-2.79,2.79,3.00,2.58,6.46,6.47,6.46
116.39,3.66,-2.67,3.66,-2.67,2.65,2.90,2.55,6.32,6.32,6.33
117.55,3.66,-2.54,3.66,-2.53,2.51,2.81,2.52,6.17,6.17,6.19
118.73,3.65,-2.40,3.65,-2.39,2.37,2.71,2.48,6.02,6.02,6.04
119.92,3.64,-2.25,3.64,-2.25,2.24,2.61,2.44,5.88,5.88,5.89
121.12,3.63,-2.11,3.63,-2.11,2.11,2.51,2.40,5.74,5.74,5.74
122.33,3.62,-1.97,3.62,-1.98,2.00,2.40,2.36,5.62,5.62,5.59
123.55,3.61,-1.87,3.61,-1.87,1.91,2.30,2.32,5.52,5.52,5.48
124.79,3.60,-1.78,3.60,-1.79,1.82,2.19,2.27,5.43,5.43,5.38
126.03,3.59,-1.73,3.59,-1.73,1.76,2.08,2.23,5.35,5.35,5.33
127.29,3.58,-1.70,3.58,-1.70,1.70,1.98,2.18,5.28,5.28,5.28
128.57,3.57,-1.67,3.57,-1.67,1.65,1.87,2.13,5.22,5.22,5.24
129.85,3.56,-1.62,3.56,-1.63,1.60,1.75,2.08,5.16,5.16,5.18
131.15,3.55,-1.58,3.55,-1.57,1.54,1.64,2.02,5.09,5.09,5.12
132.46,3.53,-1.50,3.53,-1.50,1.48,1.53,1.97,5.01,5.01,5.04
133.79,3.52,-1.41,3.52,-1.41,1.40,1.42,1.91,4.92,4.92,4.93
135.12,3.51,-1.31,3.51,-1.31,1.31,1.30,1.85,4.82,4.82,4.81
136.48,3.49,-1.20,3.49,-1.20,1.22,1.19,1.79,4.71,4.71,4.70
137.84,3.48,-1.10,3.48,-1.10,1.11,1.07,1.72,4.59,4.59,4.58
139.22,3.46,-1.00,3.46,-1.00,1.00,0.95,1.66,4.47,4.47,4.46
140.61,3.45,-0.89,3.45,-0.89,0.89,0.83,1.59,4.34,4.34,4.34
142.02,3.43,-0.78,3.43,-0.78,0.78,0.72,1.53,4.20,4.20,4.21
143.44,3.41,-0.67,3.41,-0.67,0.66,0.60,1.46,4.07,4.07,4.08
144.87,3.40,-0.54,3.39,-0.54,0.54,0.48,1.39,3.93,3.93,3.94
146.32,3.38,-0.42,3.38,-0.42,0.42,0.36,1.32,3.79,3.79,3.79
147.78,3.36,-0.29,3.36,-0.29,0.29,0.24,1.25,3.66,3.66,3.65
149.26,3.34,-0.16,3.34,-0.16,0.17,0.12,1.18,3.52,3.52,3.50
150.75,3.33,-0.04,3.33,-0.04,0.05,0.00,1.11,3.38,3.38,3.37
152.26,3.31,0.07,3.31,0.07,-0.07,-0.12,1.03,3.24,3.24,3.24
153.78,3.29,0.18,3.29,0.18,-0.19,-0.23,0.96,3.11,3.11,3.11
155.32,3.28,0.29,3.28,0.29,-0.30,-0.35,0.89,2.97,2.97,2.99
156.88,3.26,0.41,3.26,0.41,-0.42,-0.47,0.81,2.84,2.84,2.86
158.44,3.25,0.53,3.25,0.53,-0.54,-0.58,0.74,2.72,2.72,2.72
160.03,3.24,0.66,3.24,0.66,-0.65,-0.70,0.66,2.59,2.59,2.58
161.63,3.23,0.78,3.23,0.78,-0.76,-0.81,0.59,2.47,2.47,2.45
163.24,3.22,0.89,3.22,0.89,-0.88,-0.92,0.52,2.35,2.35,2.33
164.88,3.22,0.99,3.22,0.99,-0.99,-1.03,0.44,2.23,2.23,2.22
166.53,3.21,1.09,3.21,1.09,-1.10,-1.14,0.36,2.11,2.11,2.12
168.19,3.20,1.19,3.20,1.20,-1.21,-1.24,0.29,2.00,2.00,2.01
169.87,3.20,1.30,3.20,1.30,-1.31,-1.35,0.21,1.89,1.89,1.90
171.57,3.20,1.41,3.20,1.41,-1.42,-1.45,0.14,1.78,1.78,1.78
173.29,3.19,1.52,3.19,1.52,-1.52,-1.54,0.06,1.68,1.68,1.67
175.02,3.19,1.63,3.19,1.62,-1.62,-1.64,-0.02,1.57,1.57,1.57
176.77,3.19,1.72,3.19,1.72,-1.72,-1.73,-0.09,1.47,1.47,1.47
178.54,3.19,1.82,3.19,1.82,-1.82,-1.81,-0.17,1.37,1.37,1.37
180.32,3.19,1.91,3.19,1.92,-1.92,-1.90,-0.25,1.27,1.27,1.28
182.13,3.19,2.01,3.19,2.00,-2.00,-1.98,-0.32,1.19,1.19,1.18
183.95,3.18,2.09,3.18,2.09,-2.08,-2.05,-0.40,1.10,1.10,1.10
185.79,3.18,2.16,3.18,2.16,-2.15,-2.12,-0.48,1.03,1.03,1.02
187.65,3.18,2.22,3.18,2.22,-2.22,-2.19,-0.56,0.96,0.96,0.95
189.52,3.17,2.28,3.17,2.28,-2.28,-2.25,-0.63,0.89,0.89,0.89
191.42,3.16,2.33,3.16,2.33,-2.33,-2.30,-0.71,0.83,0.83,0.83
193.33,3.15,2.37,3.15,2.37,-2.38,-2.35,-0.79,0.78,0.78,0.78
195.27,3.14,2.41,3.14,2.41,-2.41,-2.40,-0.87,0.73,0.73,0.73
197.22,3.13,2.45,3.13,2.45,-2.44,-2.43,-0.94,0.68,0.68,0.68
199.19,3.11,2.47,3.11,2.47,-2.47,-2.47,-1.02,0.65,0.65,0.64
201.18,3.09,2.49,3.09,2.49,-2.48,-2.49,-1.10,0.61,0.61,0.61
203.19,3.08,2.49,3.08,2.49,-2.49,-2.51,-1.17,0.58,0.58,0.58
205.23,3.06,2.49,3.06,2.49,-2.50,-2.52,-1.25,0.56,0.56,0.56
207.28,3.03,2.49,3.03,2.49,-2.49,-2.53,-1.32,0.54,0.54,0.54
209.35,3.01,2.48,3.01,2.48,-2.48,-2.53,-1.40,0.53,0.53,0.53
211.44,2.99,2.47,2.99,2.47,-2.47,-2.53,-1.47,0.52,0.52,0.52
213.56,2.96,2.45,2.96,2.45,-2.45,-2.52,-1.54,0.51,0.51,0.52
215.69,2.94,2.43,2.94,2.43,-2.43,-2.51,-1.61,0.51,0.51,0.51
217.85,2.92,2.41,2.92,2.41,-2.41,-2.49,-1.67,0.51,0.51,0.51
220.03,2.89,2.38,2.89,2.38,-2.38,-2.46,-1.74,0.51,0.51,0.51
222.23,2.86,2.35,2.86,2.35,-2.35,-2.43,-1.80,0.51,0.51,0.51
224.45,2.84,2.32,2.84,2.32,-2.32,-2.40,-1.86,0.52,0.52,0.51
226.70,2.81,2.29,2.81,2.29,-2.29,-2.36,-1.91,0.52,0.52,0.52
228.96,2.79,2.25,2.79,2.25,-2.25,-2.32,-1.96,0.53,0.54,0.53
231.25,2.76,2.21,2.76,2.21,-2.21,-2.27,-2.01,0.55,0.55,0.55
233.57,2.73,2.17,2.73,2.17,-2.17,-2.22,-2.05,0.57,0.57,0.57
235.90,2.71,2.12,2.71,2.12,-2.12,-2.17,-2.09,0.59,0.59,0.59
238.26,2.68,2.07,2.68,2.07,-2.07,-2.11,-2.12,0.61,0.61,0.61
240.64,2.65,2.02,2.65,2.02,-2.02,-2.05,-2.15,0.63,0.63,0.63
243.05,2.62,1.97,2.62,1.97,-1.97,-1.99,-2.18,0.65,0.65,0.66
245.48,2.59,1.91,2.59,1.91,-1.91,-1.93,-2.19,0.68,0.68,0.68
247.93,2.56,1.86,2.56,1.86,-1.86,-1.87,-2.21,0.71,0.71,0.71
250.41,2.53,1.80,2.53,1.80,-1.80,-1.81,-2.21,0.73,0.73,0.73
252.92,2.50,1.74,2.50,1.74,-1.74,-1.74,-2.22,0.76,0.76,0.76
255.45,2.47,1.68,2.47,1.68,-1.68,-1.68,-2.21,0.79,0.79,0.79
258.00,2.44,1.62,2.44,1.62,-1.61,-1.61,-2.21,0.82,0.82,0.82
260.58,2.41,1.55,2.41,1.55,-1.55,-1.54,-2.19,0.86,0.86,0.85
263.19,2.37,1.49,2.37,1.49,-1.49,-1.48,-2.17,0.89,0.89,0.89
265.82,2.34,1.42,2.34,1.42,-1.42,-1.41,-2.15,0.92,0.92,0.92
268.48,2.31,1.36,2.31,1.36,-1.36,-1.35,-2.12,0.95,0.95,0.95
271.16,2.28,1.29,2.28,1.29,-1.30,-1.28,-2.09,0.98,0.98,0.98
273.87,2.24,1.24,2.24,1.24,-1.24,-1.22,-2.05,1.00,1.00,1.01
276.61,2.21,1.18,2.21,1.18,-1.19,-1.16,-2.01,1.02,1.02,1.03
279.38,2.18,1.13,2.18,1.13,-1.14,-1.09,-1.97,1.04,1.04,1.04
282.17,2.14,1.09,2.14,1.09,-1.08,-1.03,-1.92,1.06,1.06,1.06
284.99,2.11,1.04,2.11,1.04,-1.03,-0.97,-1.87,1.07,1.07,1.07
287.84,2.07,0.99,2.07,0.99,-0.98,-0.91,-1.82,1.09,1.09,1.08
290.72,2.03,0.93,2.03,0.93,-0.93,-0.85,-1.76,1.10,1.10,1.10
293.63,2.00,0.88,2.00,0.88,-0.88,-0.79,-1.71,1.12,1.12,1.12
296.57,1.96,0.82,1.96,0.83,-0.82,-0.74,-1.65,1.14,1.14,1.14
299.53,1.93,0.77,1.93,0.77,-0.76,-0.68,-1.59,1.16,1.16,1.16
302.53,1.89,0.71,1.89,0.71,-0.70,-0.63,-1.53,1.19,1.19,1.18
305.55,1.85,0.64,1.85,0.64,-0.64,-0.58,-1.47,1.22,1.22,1.21
308.61,1.82,0.57,1.82,0.57,-0.57,-0.52,-1.40,1.25,1.25,1.24
311.69,1.78,0.51,1.78,0.51,-0.51,-0.47,-1.34,1.28,1.28,1.28
314.81,1.75,0.44,1.75,0.44,-0.44,-0.43,-1.28,1.31,1.31,1.31
317.96,1.71,0.37,1.71,0.37,-0.38,-0.38,-1.21,1.34,1.34,1.34
321.14,1.68,0.31,1.68,0.31,-0.32,-0.33,-1.15,1.36,1.36,1.37
324.35,1.65,0.26,1.65,0.26,-0.26,-0.28,-1.09,1.38,1.38,1.39
327.59,1.61,0.21,1.61,0.21,-0.21,-0.24,-1.02,1.40,1.40,1.40
330.87,1.58,0.16,1.58,0.16,-0.16,-0.20,-0.96,1.42,1.42,1.42
334.18,1.54,0.12,1.54,0.12,-0.12,-0.16,-0.90,1.42,1.42,1.42
337.52,1.51,0.08,1.51,0.08,-0.08,-0.11,-0.84,1.43,1.43,1.43
340.90,1.48,0.05,1.48,0.05,-0.05,-0.07,-0.77,1.43,1.43,1.43
344.30,1.44,0.01,1.44,0.01,-0.01,-0.04,-0.71,1.43,1.43,1.43
347.75,1.41,-0.02,1.41,-0.02,0.02,0.00,-0.65,1.43,1.43,1.43
351.23,1.37,-0.05,1.37,-0.05,0.05,0.04,-0.59,1.42,1.42,1.42
354.74,1.34,-0.08,1.34,-0.08,0.08,0.08,-0.53,1.42,1.42,1.42
358.28,1.30,-0.11,1.30,-0.11,0.11,0.11,-0.47,1.41,1.41,1.41
361.87,1.27,-0.14,1.27,-0.14,0.14,0.14,-0.41,1.41,1.41,1.41
365.49,1.24,-0.17,1.24,-0.17,0.17,0.18,-0.35,1.41,1.41,1.41
369.14,1.20,-0.20,1.20,-0.20,0.20,0.21,-0.29,1.40,1.40,1.40
372.83,1.17,-0.23,1.17,-0.23,0.23,0.24,-0.24,1.40,1.40,1.40
376.56,1.13,-0.26,1.13,-0.26,0.27,0.27,-0.18,1.40,1.40,1.40
380.33,1.10,-0.30,1.10,-0.30,0.30,0.30,-0.12,1.39,1.39,1.39
384.13,1.06,-0.33,1.06,-0.33,0.33,0.33,-0.07,1.39,1.39,1.39
387.97,1.02,-0.36,1.02,-0.36,0.36,0.36,-0.01,1.38,1.38,1.39
391.85,0.99,-0.39,0.99,-0.39,0.39,0.39,0.04,1.38,1.38,1.38
395.77,0.95,-0.42,0.95,-0.41,0.41,0.42,0.10,1.37,1.37,1.37
399.73,0.92,-0.44,0.92,-0.44,0.44,0.44,0.15,1.36,1.36,1.36
403.72,0.88,-0.46,0.88,-0.46,0.46,0.47,0.21,1.35,1.35,1.35
407.76,0.85,-0.49,0.85,-0.49,0.49,0.49,0.26,1.34,1.34,1.33
411.84,0.81,-0.51,0.81,-0.51,0.51,0.52,0.31,1.32,1.32,1.32
415.96,0.78,-0.53,0.78,-0.53,0.53,0.54,0.36,1.31,1.31,1.31
420.12,0.74,-0.56,0.74,-0.56,0.56,0.57,0.41,1.30,1.30,1.30
424.32,0.71,-0.58,0.71,-0.58,0.58,0.59,0.46,1.28,1.28,1.28
428.56,0.67,-0.60,0.67,-0.60,0.60,0.61,0.51,1.27,1.27,1.27
432.85,0.63,-0.62,0.63,-0.62,0.62,0.64,0.55,1.26,1.26,1.26
437.18,0.60,-0.64,0.60,-0.64,0.64,0.66,0.60,1.24,1.24,1.24
441.55,0.56,-0.67,0.56,-0.67,0.67,0.68,0.64,1.23,1.23,1.23
445.96,0.53,-0.69,0.53,-0.69,0.69,0.70,0.69,1.22,1.22,1.21
450.42,0.49,-0.71,0.49,-0.71,0.71,0.72,0.73,1.21,1.21,1.20
454.93,0.46,-0.74,0.46,-0.74,0.74,0.74,0.77,1.19,1.19,1.19
459.48,0.42,-0.76,0.42,-0.76,0.76,0.76,0.81,1.18,1.18,1.18
464.07,0.39,-0.79,0.39,-0.79,0.79,0.78,0.84,1.17,1.17,1.17
468.71,0.35,-0.81,0.35,-0.81,0.81,0.80,0.88,1.16,1.16,1.16
473.40,0.32,-0.83,0.32,-0.83,0.83,0.82,0.91,1.15,1.15,1.15
478.13,0.28,-0.86,0.28,-0.86,0.85,0.84,0.94,1.13,1.13,1.14
482.91,0.24,-0.88,0.25,-0.88,0.88,0.86,0.97,1.12,1.12,1.12
487.74,0.21,-0.90,0.21,-0.90,0.90,0.88,1.00,1.11,1.11,1.11
492.62,0.18,-0.92,0.18,-0.92,0.92,0.90,1.03,1.09,1.09,1.09
497.55,0.14,-0.93,0.14,-0.93,0.93,0.92,1.05,1.08,1.08,1.08
502.52,0.11,-0.95,0.11,-0.95,0.95,0.94,1.07,1.06,1.06,1.06
507.55,0.07,-0.97,0.07,-0.97,0.97,0.96,1.09,1.05,1.05,1.05
512.62,0.04,-0.99,0.04,-0.99,0.99,0.98,1.11,1.03,1.03,1.03
517.75,0.01,-1.01,0.01,-1.01,1.01,1.00,1.12,1.02,1.02,1.02
522.93,-0.03,-1.03,-0.03,-1.03,1.03,1.01,1.14,1.00,1.00,1.00
528.16,-0.06,-1.05,-0.06,-1.05,1.05,1.03,1.15,0.99,0.99,0.99
533.44,-0.09,-1.07,-0.09,-1.07,1.07,1.05,1.16,0.98,0.98,0.98
538.77,-0.13,-1.09,-0.12,-1.09,1.09,1.07,1.17,0.96,0.96,0.96
544.16,-0.16,-1.11,-0.16,-1.11,1.11,1.09,1.17,0.95,0.95,0.95
549.60,-0.19,-1.13,-0.19,-1.13,1.12,1.11,1.18,0.94,0.94,0.94
555.10,-0.22,-1.14,-0.22,-1.14,1.14,1.12,1.18,0.92,0.92,0.92
