frequency,raw,error,smoothed,error_smoothed,equalization,parametric_eq,fixed_band_eq,equalized_raw,equalized_smoothed,target
20.00,6.45,-0.89,6.45,-0.89,0.94,-0.69,-0.78,7.40,7.40,7.34
20.20,6.49,-0.71,6.49,-0.71,0.73,-0.71,-0.81,7.22,7.22,7.21
20.40,6.54,-0.54,6.54,-0.54,0.52,-0.72,-0.83,7.06,7.06,7.08
20.61,6.58,-0.36,6.58,-0.36,0.32,-0.74,-0.85,6.91,6.91,6.94
20.81,6.63,-0.18,6.63,-0.18,0.13,-0.75,-0.87,6.76,6.76,6.81
21.02,6.68,0.01,6.68,0.01,-0.05,-0.77,-0.90,6.63,6.63,6.67
21.23,6.73,0.19,6.73,0.19,-0.22,-0.79,-0.92,6.51,6.51,6.54
21.44,6.78,0.38,6.78,0.38,-0.39,-0.81,-0.95,6.39,6.39,6.40
21.66,6.82,0.56,6.82,0.56,-0.56,-0.82,-0.97,6.26,6.26,6.26
21.87,6.87,0.73,6.87,0.73,-0.73,-0.84,-1.00,6.15,6.15,6.14
22.09,6.92,0.88,6.92,0.88,-0.87,-0.86,-1.03,6.05,6.05,6.03
22.31,6.97,1.02,6.97,1.02,-0.99,-0.88,-1.06,5.98,5.98,5.95
22.54,7.02,1.12,7.02,1.12,-1.09,-0.90,-1.09,5.93,5.93,5.90
22.76,7.07,1.19,7.07,1.19,-1.16,-0.92,-1.12,5.91,5.91,5.88
22.99,7.12,1.23,7.12,1.23,-1.21,-0.94,-1.15,5.91,5.91,5.88
23.22,7.17,1.25,7.17,1.25,-1.25,-0.96,-1.18,5.92,5.92,5.92
23.45,7.22,1.26,7.22,1.27,-1.28,-0.99,-1.21,5.94,5.94,5.96
23.69,7.27,1.28,7.27,1.28,-1.31,-1.01,-1.24,5.97,5.97,5.99
23.92,7.32,1.30,7.32,1.30,-1.34,-1.03,-1.28,5.99,5.99,6.02
24.16,7.38,1.34,7.38,1.34,-1.38,-1.06,-1.31,6.00,6.00,6.04
24.40,7.43,1.40,7.43,1.40,-1.42,-1.08,-1.35,6.01,6.01,6.03
24.65,7.49,1.46,7.49,1.46,-1.48,-1.10,-1.38,6.01,6.01,6.02
24.89,7.54,1.53,7.54,1.53,-1.53,-1.13,-1.42,6.01,6.01,6.01
25.14,7.59,1.59,7.59,1.60,-1.58,-1.16,-1.45,6.01,6.01,6.00
25.39,7.64,1.65,7.64,1.64,-1.61,-1.18,-1.49,6.02,6.02,5.99
25.65,7.68,1.67,7.68,1.67,-1.64,-1.21,-1.53,6.04,6.04,6.01
25.91,7.72,1.67,7.72,1.67,-1.64,-1.24,-1.57,6.08,6.08,6.05
26.16,7.75,1.64,7.75,1.64,-1.63,-1.27,-1.60,6.13,6.13,6.11
26.43,7.79,1.61,7.79,1.61,-1.60,-1.30,-1.64,6.19,6.19,6.18
26.69,7.83,1.56,7.83,1.56,-1.56,-1.33,-1.68,6.26,6.26,6.27
26.96,7.86,1.51,7.87,1.51,-1.52,-1.36,-1.72,6.34,6.34,6.36
27.23,7.91,1.46,7.91,1.47,-1.48,-1.39,-1.76,6.43,6.43,6.44
27.50,7.95,1.43,7.95,1.43,-1.45,-1.42,-1.79,6.51,6.51,6.52
27.77,8.00,1.41,8.00,1.41,-1.42,-1.46,-1.83,6.58,6.58,6.59
28.05,8.04,1.40,8.04,1.40,-1.40,-1.49,-1.87,6.64,6.64,6.64
28.33,8.08,1.40,8.08,1.40,-1.39,-1.53,-1.90,6.69,6.69,6.68
28.62,8.12,1.40,8.12,1.40,-1.40,-1.56,-1.94,6.72,6.72,6.72
28.90,8.15,1.41,8.15,1.41,-1.41,-1.60,-1.97,6.75,6.75,6.74
29.19,8.18,1.43,8.18,1.43,-1.42,-1.64,-2.01,6.76,6.76,6.76
29.48,8.21,1.45,8.21,1.45,-1.45,-1.68,-2.04,6.76,6.76,6.76
29.78,8.24,1.48,8.24,1.48,-1.49,-1.71,-2.07,6.75,6.75,6.76
30.08,8.27,1.53,8.27,1.53,-1.53,-1.76,-2.10,6.74,6.74,6.75
30.38,8.30,1.58,8.30,1.58,-1.58,-1.80,-2.13,6.72,6.72,6.72
30.68,8.33,1.64,8.33,1.64,-1.64,-1.84,-2.16,6.69,6.69,6.69
30.99,8.35,1.71,8.35,1.71,-1.71,-1.88,-2.18,6.65,6.65,6.65
31.30,8.38,1.78,8.38,1.78,-1.78,-1.93,-2.21,6.60,6.60,6.60
31.61,8.40,1.86,8.40,1.86,-1.86,-1.97,-2.23,6.54,6.54,6.54
31.93,8.42,1.94,8.42,1.94,-1.94,-2.02,-2.25,6.49,6.49,6.49
32.24,8.45,2.02,8.45,2.02,-2.02,-2.06,-2.28,6.43,6.43,6.43
32.57,8.48,2.11,8.48,2.11,-2.11,-2.11,-2.30,6.37,6.37,6.37
32.89,8.50,2.20,8.50,2.20,-2.20,-2.16,-2.32,6.30,6.30,6.31
33.22,8.53,2.29,8.53,2.29,-2.29,-2.21,-2.33,6.24,6.24,6.24
33.55,8.56,2.38,8.56,2.38,-2.38,-2.26,-2.35,6.18,6.18,6.18
33.89,8.58,2.46,8.58,2.46,-2.47,-2.31,-2.37,6.12,6.12,6.12
34.23,8.61,2.55,8.61,2.55,-2.55,-2.36,-2.39,6.06,6.06,6.06
34.57,8.64,2.63,8.64,2.63,-2.62,-2.42,-2.40,6.02,6.02,6.01
34.92,8.67,2.70,8.67,2.70,-2.69,-2.47,-2.42,5.98,5.98,5.97
35.27,8.71,2.76,8.71,2.76,-2.75,-2.52,-2.43,5.95,5.95,5.95
35.62,8.74,2.81,8.74,2.81,-2.80,-2.58,-2.45,5.94,5.94,5.93
35.97,8.77,2.85,8.77,2.85,-2.84,-2.63,-2.47,5.93,5.93,5.92
36.33,8.80,2.87,8.80,2.87,-2.87,-2.69,-2.48,5.93,5.93,5.92
36.70,8.82,2.89,8.82,2.89,-2.89,-2.74,-2.50,5.93,5.93,5.93
37.06,8.84,2.91,8.84,2.91,-2.91,-2.80,-2.52,5.93,5.93,5.93
37.43,8.86,2.92,8.86,2.92,-2.93,-2.85,-2.54,5.93,5.93,5.94
37.81,8.87,2.94,8.87,2.94,-2.94,-2.91,-2.56,5.93,5.93,5.93
38.19,8.88,2.95,8.88,2.95,-2.95,-2.96,-2.58,5.93,5.93,5.93
38.57,8.89,2.97,8.89,2.97,-2.97,-3.02,-2.61,5.91,5.91,5.92
38.95,8.90,2.99,8.90,2.99,-3.00,-3.07,-2.63,5.90,5.90,5.90
39.34,8.91,3.02,8.91,3.02,-3.03,-3.13,-2.66,5.88,5.88,5.89
39.74,8.92,3.06,8.93,3.06,-3.07,-3.18,-2.69,5.85,5.86,5.87
40.14,8.95,3.11,8.95,3.11,-3.12,-3.23,-2.72,5.83,5.83,5.84
40.54,8.98,3.16,8.98,3.16,-3.17,-3.29,-2.75,5.81,5.81,5.82
40.94,9.01,3.23,9.01,3.23,-3.23,-3.34,-2.79,5.78,5.78,5.78
41.35,9.03,3.29,9.03,3.29,-3.29,-3.39,-2.82,5.75,5.75,5.74
41.76,9.05,3.35,9.05,3.35,-3.35,-3.44,-2.86,5.71,5.70,5.70
42.18,9.06,3.41,9.06,3.41,-3.41,-3.48,-2.90,5.65,5.65,5.65
42.60,9.06,3.47,9.06,3.47,-3.46,-3.53,-2.94,5.60,5.60,5.59
43.03,9.06,3.52,9.06,3.52,-3.52,-3.57,-2.99,5.54,5.54,5.54
43.46,9.06,3.57,9.06,3.57,-3.57,-3.61,-3.04,5.49,5.49,5.49
43.90,9.06,3.61,9.06,3.61,-3.61,-3.65,-3.09,5.45,5.45,5.45
44.33,9.06,3.65,9.06,3.65,-3.64,-3.69,-3.14,5.42,5.42,5.41
44.78,9.07,3.68,9.07,3.68,-3.68,-3.73,-3.20,5.39,5.39,5.38
45.23,9.07,3.71,9.07,3.71,-3.71,-3.77,-3.25,5.37,5.37,5.36
45.68,9.08,3.73,9.08,3.73,-3.73,-3.80,-3.31,5.35,5.35,5.34
46.13,9.08,3.75,9.08,3.75,-3.76,-3.83,-3.38,5.33,5.33,5.33
46.60,9.09,3.77,9.09,3.77,-3.78,-3.86,-3.44,5.31,5.31,5.32
47.06,9.10,3.80,9.10,3.80,-3.81,-3.89,-3.51,5.29,5.29,5.30
47.53,9.11,3.82,9.11,3.82,-3.83,-3.91,-3.58,5.28,5.28,5.29
48.01,9.12,3.85,9.12,3.85,-3.85,-3.94,-3.65,5.26,5.26,5.26
48.49,9.13,3.89,9.13,3.88,-3.88,-3.96,-3.72,5.25,5.25,5.24
48.97,9.14,3.91,9.14,3.91,-3.90,-3.98,-3.80,5.23,5.23,5.22
49.46,9.14,3.93,9.14,3.93,-3.93,-4.00,-3.87,5.21,5.21,5.21
49.96,9.14,3.95,9.14,3.95,-3.95,-4.02,-3.95,5.19,5.19,5.19
50.46,9.14,3.97,9.14,3.97,-3.98,-4.03,-4.03,5.16,5.16,5.17
50.96,9.14,3.99,9.14,4.00,-4.01,-4.05,-4.11,5.13,5.13,5.15
51.47,9.14,4.03,9.14,4.03,-4.04,-4.06,-4.19,5.10,5.10,5.11
51.99,9.13,4.07,9.13,4.07,-4.07,-4.08,-4.27,5.06,5.06,5.07
52.51,9.12,4.10,9.12,4.10,-4.10,-4.09,-4.35,5.03,5.03,5.02
53.03,9.11,4.13,9.11,4.13,-4.12,-4.10,-4.43,4.99,4.99,4.97
53.56,9.09,4.15,9.09,4.15,-4.14,-4.12,-4.51,4.95,4.95,4.94
54.10,9.07,4.17,9.07,4.17,-4.15,-4.13,-4.59,4.92,4.92,4.91
54.64,9.06,4.17,9.06,4.17,-4.16,-4.14,-4.66,4.89,4.89,4.88
55.18,9.04,4.17,9.04,4.17,-4.17,-4.15,-4.73,4.87,4.87,4.87
55.74,9.03,4.16,9.03,4.17,-4.18,-4.16,-4.80,4.85,4.85,4.87
56.29,9.02,4.17,9.02,4.17,-4.18,-4.17,-4.87,4.84,4.84,4.85
56.86,9.01,4.18,9.01,4.18,-4.19,-4.18,-4.93,4.82,4.82,4.84
57.42,9.00,4.20,9.00,4.20,-4.21,-4.20,-4.99,4.80,4.80,4.81
58.00,9.00,4.22,9.00,4.22,-4.22,-4.21,-5.05,4.77,4.77,4.77
58.58,8.99,4.25,8.99,4.25,-4.24,-4.22,-5.09,4.75,4.75,4.74
59.16,8.98,4.27,8.98,4.27,-4.26,-4.23,-5.14,4.72,4.72,4.70
59.76,8.96,4.29,8.96,4.29,-4.28,-4.24,-5.17,4.69,4.69,4.68
60.35,8.95,4.30,8.95,4.30,-4.30,-4.25,-5.20,4.65,4.65,4.65
60.96,8.93,4.30,8.93,4.31,-4.31,-4.27,-5.22,4.62,4.62,4.63
61.57,8.91,4.32,8.91,4.32,-4.33,-4.28,-5.24,4.58,4.58,4.59
62.18,8.89,4.34,8.89,4.34,-4.35,-4.29,-5.24,4.54,4.54,4.55
62.80,8.87,4.36,8.87,4.36,-4.36,-4.30,-5.24,4.51,4.51,4.50
63.43,8.84,4.38,8.84,4.38,-4.38,-4.31,-5.23,4.47,4.47,4.46
64.07,8.82,4.40,8.82,4.40,-4.39,-4.33,-5.22,4.43,4.43,4.42
64.71,8.79,4.41,8.79,4.41,-4.40,-4.34,-5.19,4.39,4.39,4.38
65.35,8.76,4.41,8.76,4.41,-4.41,-4.35,-5.16,4.35,4.35,4.35
66.01,8.74,4.42,8.74,4.42,-4.42,-4.37,-5.12,4.31,4.31,4.32
66.67,8.71,4.43,8.71,4.43,-4.43,-4.38,-5.08,4.28,4.28,4.28
67.33,8.68,4.44,8.68,4.44,-4.44,-4.39,-5.03,4.24,4.24,4.25
68.01,8.65,4.45,8.65,4.45,-4.45,-4.40,-4.97,4.20,4.20,4.20
68.69,8.62,4.46,8.62,4.46,-4.46,-4.41,-4.91,4.16,4.16,4.16
69.37,8.58,4.47,8.58,4.47,-4.47,-4.43,-4.84,4.12,4.12,4.12
70.07,8.55,4.47,8.55,4.47,-4.47,-4.44,-4.77,4.07,4.07,4.07
70.77,8.51,4.48,8.51,4.48,-4.48,-4.45,-4.70,4.03,4.03,4.03
71.48,8.48,4.49,8.48,4.49,-4.48,-4.46,-4.63,3.99,3.99,3.99
72.19,8.44,4.49,8.44,4.49,-4.48,-4.47,-4.55,3.96,3.96,3.95
72.91,8.41,4.49,8.40,4.49,-4.48,-4.48,-4.47,3.93,3.93,3.92
73.64,8.36,4.48,8.36,4.48,-4.48,-4.48,-4.39,3.89,3.89,3.88
74.38,8.32,4.47,8.32,4.47,-4.47,-4.49,-4.30,3.85,3.85,3.85
75.12,8.28,4.46,8.28,4.46,-4.47,-4.50,-4.22,3.81,3.81,3.82
75.87,8.24,4.46,8.24,4.46,-4.47,-4.51,-4.14,3.77,3.77,3.78
76.63,8.20,4.46,8.20,4.46,-4.47,-4.51,-4.05,3.73,3.73,3.74
77.40,8.16,4.46,8.16,4.46,-4.47,-4.52,-3.97,3.69,3.69,3.70
78.17,8.12,4.47,8.12,4.47,-4.47,-4.53,-3.89,3.65,3.65,3.65
78.95,8.07,4.48,8.07,4.47,-4.46,-4.53,-3.81,3.61,3.61,3.60
79.74,8.02,4.47,8.02,4.47,-4.45,-4.54,-3.73,3.57,3.57,3.55
80.54,7.96,4.46,7.96,4.46,-4.44,-4.55,-3.65,3.53,3.53,3.51
81.35,7.90,4.44,7.90,4.43,-4.42,-4.55,-3.57,3.48,3.48,3.47
82.16,7.84,4.41,7.84,4.41,-4.40,-4.56,-3.50,3.44,3.44,3.43
82.98,7.79,4.39,7.79,4.39,-4.39,-4.57,-3.43,3.40,3.40,3.40
83.81,7.74,4.38,7.74,4.38,-4.40,-4.59,-3.36,3.33,3.33,3.36
84.65,7.69,4.39,7.69,4.39,-4.43,-4.61,-3.29,3.25,3.25,3.30
85.50,7.63,4.42,7.63,4.42,-4.49,-4.62,-3.22,3.14,3.14,3.21
86.35,7.58,4.48,7.58,4.49,-4.56,-4.64,-3.16,3.02,3.02,3.10
87.22,7.52,4.58,7.52,4.58,-4.64,-4.66,-3.10,2.88,2.88,2.94
88.09,7.46,4.70,7.46,4.71,-4.70,-4.68,-3.04,2.76,2.76,2.75
88.97,7.39,4.81,7.39,4.81,-4.74,-4.68,-2.98,2.65,2.65,2.58
89.86,7.32,4.89,7.32,4.86,-4.75,-4.68,-2.93,2.57,2.58,2.43
90.76,7.25,4.84,7.26,4.83,-4.73,-4.64,-2.88,2.53,2.53,2.42
91.66,7.19,4.71,7.19,4.71,-4.67,-4.59,-2.83,2.52,2.52,2.48
92.58,7.12,4.53,7.12,4.54,-4.57,-4.50,-2.78,2.55,2.55,2.59
93.51,7.05,4.35,7.05,4.36,-4.43,-4.39,-2.73,2.62,2.62,2.70
94.44,6.98,4.20,6.97,4.20,-4.25,-4.26,-2.69,2.72,2.72,2.78
95.39,6.89,4.06,6.89,4.06,-4.04,-4.12,-2.65,2.85,2.85,2.83
96.34,6.79,3.91,6.79,3.90,-3.81,-3.98,-2.61,2.99,2.98,2.88
97.30,6.69,3.72,6.69,3.70,-3.59,-3.83,-2.57,3.10,3.10,2.96
98.28,6.59,3.46,6.59,3.44,-3.40,-3.69,-2.54,3.18,3.18,3.13
99.26,6.49,3.17,6.50,3.17,-3.25,-3.56,-2.50,3.24,3.24,3.32
100.25,6.41,2.93,6.41,2.96,-3.14,-3.44,-2.47,3.27,3.27,3.48
101.25,6.34,2.84,6.34,2.87,-3.06,-3.32,-2.44,3.28,3.27,3.50
102.27,6.26,2.91,6.26,2.91,-3.02,-3.22,-2.41,3.24,3.24,3.35
103.29,6.17,3.03,6.17,3.02,-3.00,-3.12,-2.39,3.17,3.17,3.14
104.32,6.08,3.15,6.08,3.12,-3.01,-3.04,-2.36,3.07,3.07,2.93
105.37,5.98,3.16,5.99,3.16,-3.02,-2.96,-2.33,2.96,2.96,2.82
106.42,5.89,3.13,5.89,3.13,-3.03,-2.89,-2.31,2.86,2.86,2.75
107.48,5.78,3.04,5.78,3.04,-3.01,-2.83,-2.28,2.78,2.77,2.74
108.56,5.66,2.93,5.66,2.94,-2.95,-2.77,-2.26,2.71,2.71,2.73
109.64,5.52,2.82,5.52,2.82,-2.87,-2.70,-2.24,2.66,2.66,2.70
110.74,5.38,2.72,5.38,2.72,-2.76,-2.64,-2.22,2.62,2.62,2.66
111.85,5.23,2.62,5.23,2.62,-2.64,-2.58,-2.19,2.58,2.59,2.61
112.97,5.08,2.52,5.08,2.52,-2.53,-2.52,-2.17,2.55,2.55,2.56
114.10,4.94,2.43,4.94,2.42,-2.41,-2.46,-2.15,2.53,2.53,2.51
115.24,4.81,2.32,4.81,2.32,-2.30,-2.39,-2.12,2.51,2.51,2.49
116.39,4.67,2.20,4.67,2.20,-2.18,-2.33,-2.10,2.49,2.49,2.47
117.55,4.54,2.08,4.53,2.08,-2.06,-2.26,-2.07,2.48,2.47,2.46
118.73,4.38,1.95,4.38,1.95,-1.94,-2.19,-2.04,2.45,2.45,2.43
119.92,4.23,1.82,4.23,1.82,-1.82,-2.11,-2.02,2.41,2.41,2.41
121.12,4.08,1.70,4.08,1.70,-1.72,-2.04,-1.99,2.36,2.36,2.38
122.33,3.94,1.59,3.94,1.60,-1.63,-1.96,-1.96,2.31,2.31,2.34
123.55,3.82,1.52,3.82,1.52,-1.56,-1.88,-1.92,2.26,2.26,2.30
124.79,3.72,1.46,3.73,1.47,-1.51,-1.80,-1.89,2.22,2.22,2.26
126.03,3.67,1.45,3.67,1.45,-1.47,-1.71,-1.86,2.19,2.19,2.22
127.29,3.63,1.46,3.62,1.45,-1.45,-1.63,-1.82,2.17,2.17,2.17
128.57,3.58,1.46,3.58,1.46,-1.44,-1.54,-1.78,2.14,2.14,2.12
129.85,3.52,1.45,3.53,1.45,-1.42,-1.45,-1.74,2.10,2.11,2.08
131.15,3.47,1.43,3.46,1.43,-1.40,-1.36,-1.70,2.07,2.06,2.03
132.46,3.38,1.39,3.37,1.39,-1.36,-1.27,-1.66,2.02,2.01,1.99
133.79,3.27,1.33,3.27,1.33,-1.32,-1.18,-1.61,1.96,1.96,1.95
135.12,3.16,1.25,3.16,1.25,-1.26,-1.09,-1.56,1.90,1.90,1.90
136.48,3.04,1.17,3.04,1.18,-1.19,-0.99,-1.52,1.85,1.85,1.86
137.84,2.92,1.10,2.92,1.10,-1.11,-0.90,-1.47,1.81,1.81,1.82
139.22,2.80,1.02,2.80,1.02,-1.03,-0.81,-1.42,1.78,1.77,1.78
140.61,2.68,0.94,2.68,0.94,-0.94,-0.71,-1.37,1.74,1.74,1.74
142.02,2.55,0.85,2.55,0.85,-0.85,-0.62,-1.32,1.71,1.71,1.70
143.44,2.42,0.76,2.42,0.76,-0.75,-0.53,-1.26,1.67,1.67,1.66
144.87,2.28,0.66,2.28,0.66,-0.65,-0.43,-1.21,1.63,1.63,1.62
146.32,2.14,0.55,2.14,0.55,-0.54,-0.34,-1.16,1.59,1.59,1.59
147.78,1.99,0.43,1.99,0.43,-0.43,-0.25,-1.10,1.56,1.56,1.56
149.26,1.84,0.31,1.85,0.32,-0.32,-0.15,-1.05,1.52,1.52,1.53
150.75,1.71,0.20,1.71,0.20,-0.22,-0.06,-0.99,1.49,1.49,1.50
152.26,1.58,0.10,1.58,0.10,-0.11,0.03,-0.93,1.47,1.47,1.48
153.78,1.46,0.00,1.46,0.00,-0.00,0.12,-0.88,1.46,1.46,1.46
155.32,1.33,-0.10,1.33,-0.10,0.10,0.20,-0.82,1.44,1.43,1.43
156.88,1.20,-0.19,1.20,-0.19,0.20,0.29,-0.76,1.40,1.40,1.39
158.44,1.06,-0.29,1.06,-0.29,0.30,0.37,-0.71,1.36,1.36,1.36
160.03,0.92,-0.39,0.93,-0.39,0.39,0.45,-0.65,1.31,1.31,1.32
161.63,0.80,-0.48,0.80,-0.48,0.48,0.53,-0.59,1.27,1.27,1.28
163.24,0.68,-0.57,0.68,-0.57,0.56,0.61,-0.53,1.24,1.24,1.25
164.88,0.56,-0.65,0.57,-0.64,0.64,0.69,-0.48,1.21,1.21,1.21
166.53,0.46,-0.72,0.46,-0.72,0.72,0.76,-0.42,1.18,1.18,1.18
168.19,0.35,-0.79,0.35,-0.79,0.80,0.83,-0.36,1.15,1.15,1.14
169.87,0.24,-0.86,0.24,-0.86,0.87,0.90,-0.30,1.11,1.11,1.10
171.57,0.13,-0.94,0.13,-0.94,0.94,0.96,-0.25,1.07,1.07,1.07
173.29,0.01,-1.02,0.02,-1.02,1.02,1.02,-0.19,1.03,1.03,1.03
175.02,-0.09,-1.09,-0.09,-1.09,1.09,1.08,-0.13,1.00,1.00,1.00
176.77,-0.19,-1.15,-0.19,-1.15,1.16,1.14,-0.07,0.97,0.97,0.96
178.54,-0.29,-1.22,-0.29,-1.22,1.22,1.18,-0.02,0.94,0.94,0.93
180.32,-0.38,-1.28,-0.38,-1.28,1.29,1.23,0.04,0.90,0.90,0.90
182.13,-0.48,-1.35,-0.47,-1.35,1.34,1.28,0.10,0.87,0.87,0.87
183.95,-0.56,-1.40,-0.56,-1.40,1.40,1.32,0.16,0.83,0.84,0.84
185.79,-0.64,-1.45,-0.64,-1.45,1.44,1.35,0.22,0.80,0.80,0.81
187.65,-0.71,-1.49,-0.71,-1.49,1.48,1.39,0.27,0.78,0.78,0.78
189.52,-0.77,-1.52,-0.77,-1.52,1.52,1.41,0.33,0.75,0.75,0.75
191.42,-0.82,-1.54,-0.82,-1.54,1.55,1.44,0.39,0.73,0.73,0.72
193.33,-0.88,-1.57,-0.88,-1.57,1.58,1.46,0.45,0.70,0.70,0.69
195.27,-0.93,-1.59,-0.93,-1.59,1.59,1.48,0.50,0.66,0.66,0.66
197.22,-0.98,-1.61,-0.98,-1.61,1.60,1.49,0.56,0.62,0.62,0.63
199.19,-1.02,-1.62,-1.02,-1.61,1.61,1.50,0.62,0.59,0.59,0.60
201.18,-1.05,-1.61,-1.05,-1.61,1.60,1.51,0.67,0.55,0.55,0.56
203.19,-1.08,-1.59,-1.08,-1.59,1.59,1.51,0.73,0.52,0.52,0.52
205.23,-1.10,-1.57,-1.10,-1.57,1.57,1.51,0.78,0.48,0.48,0.47
207.28,-1.11,-1.54,-1.11,-1.54,1.54,1.51,0.84,0.43,0.43,0.43
209.35,-1.13,-1.51,-1.13,-1.51,1.51,1.51,0.89,0.38,0.38,0.38
211.44,-1.14,-1.47,-1.14,-1.47,1.46,1.50,0.94,0.33,0.33,0.33
213.56,-1.14,-1.42,-1.14,-1.42,1.41,1.49,0.99,0.27,0.27,0.28
215.69,-1.15,-1.37,-1.15,-1.37,1.36,1.48,1.04,0.21,0.21,0.22
217.85,-1.15,-1.32,-1.15,-1.32,1.31,1.46,1.09,0.16,0.16,0.17
220.03,-1.15,-1.26,-1.15,-1.26,1.26,1.44,1.14,0.11,0.11,0.11
222.23,-1.15,-1.22,-1.15,-1.22,1.23,1.42,1.18,0.08,0.08,0.07
224.45,-1.14,-1.18,-1.14,-1.18,1.20,1.40,1.23,0.06,0.06,0.04
226.70,-1.14,-1.17,-1.14,-1.17,1.19,1.38,1.27,0.06,0.06,0.03
228.96,-1.13,-1.17,-1.13,-1.17,1.20,1.35,1.30,0.08,0.08,0.05
231.25,-1.11,-1.20,-1.11,-1.20,1.23,1.33,1.34,0.12,0.12,0.09
233.57,-1.09,-1.25,-1.09,-1.25,1.26,1.30,1.37,0.17,0.17,0.16
235.90,-1.07,-1.31,-1.07,-1.31,1.30,1.27,1.40,0.23,0.23,0.24
238.26,-1.05,-1.36,-1.05,-1.36,1.34,1.24,1.43,0.29,0.29,0.31
240.64,-1.03,-1.41,-1.03,-1.40,1.38,1.21,1.45,0.35,0.35,0.38
243.05,-1.00,-1.43,-1.00,-1.42,1.40,1.18,1.47,0.39,0.39,0.42
245.48,-0.98,-1.42,-0.98,-1.42,1.40,1.15,1.48,0.42,0.42,0.44
247.93,-0.95,-1.40,-0.95,-1.40,1.39,1.12,1.49,0.43,0.43,0.44
250.41,-0.93,-1.36,-0.93,-1.36,1.36,1.08,1.50,0.43,0.43,0.43
252.92,-0.90,-1.31,-0.90,-1.31,1.31,1.05,1.50,0.41,0.41,0.41
255.45,-0.87,-1.25,-0.87,-1.25,1.25,1.02,1.50,0.38,0.38,0.38
258.00,-0.84,-1.19,-0.84,-1.19,1.19,0.98,1.50,0.35,0.35,0.35
260.58,-0.80,-1.12,-0.80,-1.12,1.12,0.95,1.49,0.32,0.32,0.32
263.19,-0.77,-1.05,-0.77,-1.05,1.06,0.91,1.49,0.29,0.29,0.28
265.82,-0.74,-0.99,-0.74,-0.99,0.99,0.88,1.47,0.26,0.26,0.25
268.48,-0.70,-0.93,-0.70,-0.92,0.93,0.84,1.46,0.23,0.23,0.22
271.16,-0.68,-0.87,-0.68,-0.87,0.87,0.81,1.43,0.20,0.20,0.19
273.87,-0.65,-0.82,-0.65,-0.82,0.82,0.77,1.41,0.17,0.17,0.16
276.61,-0.63,-0.77,-0.63,-0.77,0.77,0.74,1.39,0.14,0.14,0.14
279.38,-0.62,-0.73,-0.62,-0.73,0.73,0.70,1.36,0.11,0.11,0.11
282.17,-0.60,-0.69,-0.60,-0.69,0.69,0.67,1.33,0.09,0.09,0.09
284.99,-0.59,-0.66,-0.59,-0.65,0.65,0.63,1.30,0.06,0.06,0.06
287.84,-0.57,-0.62,-0.57,-0.62,0.61,0.60,1.27,0.04,0.04,0.04
290.72,-0.56,-0.57,-0.56,-0.58,0.58,0.56,1.23,0.02,0.02,0.02
293.63,-0.54,-0.53,-0.54,-0.54,0.54,0.53,1.20,-0.00,-0.00,-0.00
296.57,-0.52,-0.50,-0.52,-0.50,0.50,0.50,1.16,-0.03,-0.03,-0.03
299.53,-0.50,-0.46,-0.50,-0.45,0.45,0.46,1.12,-0.05,-0.05,-0.05
302.53,-0.48,-0.41,-0.48,-0.41,0.41,0.43,1.08,-0.07,-0.07,-0.06
305.55,-0.45,-0.36,-0.45,-0.36,0.36,0.39,1.04,-0.09,-0.09,-0.08
308.61,-0.41,-0.31,-0.41,-0.31,0.31,0.36,1.00,-0.11,-0.11,-0.10
311.69,-0.38,-0.26,-0.38,-0.26,0.26,0.33,0.96,-0.12,-0.12,-0.12
314.81,-0.35,-0.21,-0.35,-0.21,0.21,0.30,0.92,-0.14,-0.14,-0.14
317.96,-0.32,-0.16,-0.32,-0.16,0.16,0.26,0.88,-0.15,-0.15,-0.16
321.14,-0.29,-0.11,-0.29,-0.11,0.12,0.23,0.84,-0.17,-0.17,-0.18
324.35,-0.27,-0.07,-0.27,-0.07,0.08,0.20,0.80,-0.19,-0.19,-0.20
327.59,-0.25,-0.04,-0.25,-0.04,0.04,0.17,0.76,-0.21,-0.21,-0.21
330.87,-0.24,-0.01,-0.24,-0.01,0.01,0.14,0.72,-0.23,-0.23,-0.23
334.18,-0.23,0.02,-0.23,0.02,-0.01,0.11,0.68,-0.25,-0.25,-0.25
337.52,-0.23,0.04,-0.23,0.04,-0.04,0.08,0.64,-0.27,-0.27,-0.27
340.90,-0.23,0.06,-0.23,0.06,-0.06,0.05,0.60,-0.28,-0.28,-0.28
344.30,-0.23,0.07,-0.23,0.07,-0.07,0.02,0.56,-0.30,-0.30,-0.30
347.75,-0.23,0.08,-0.23,0.08,-0.08,-0.00,0.52,-0.32,-0.32,-0.32
351.23,-0.24,0.10,-0.24,0.10,-0.10,-0.03,0.48,-0.33,-0.33,-0.33
354.74,-0.24,0.11,-0.24,0.11,-0.11,-0.05,0.44,-0.35,-0.35,-0.35
358.28,-0.24,0.12,-0.24,0.12,-0.12,-0.08,0.41,-0.36,-0.36,-0.36
361.87,-0.25,0.13,-0.25,0.13,-0.13,-0.10,0.37,-0.38,-0.38,-0.38
365.49,-0.25,0.14,-0.25,0.14,-0.14,-0.12,0.33,-0.39,-0.40,-0.39
369.14,-0.26,0.15,-0.26,0.15,-0.15,-0.14,0.30,-0.41,-0.41,-0.41
372.83,-0.26,0.16,-0.26,0.16,-0.17,-0.16,0.26,-0.43,-0.43,-0.42
376.56,-0.26,0.18,-0.26,0.18,-0.18,-0.17,0.22,-0.44,-0.44,-0.44
380.33,-0.26,0.19,-0.26,0.19,-0.19,-0.19,0.19,-0.45,-0.45,-0.45
384.13,-0.27,0.20,-0.27,0.20,-0.20,-0.20,0.15,-0.47,-0.47,-0.47
387.97,-0.27,0.21,-0.27,0.21,-0.21,-0.22,0.12,-0.48,-0.48,-0.49
391.85,-0.28,0.22,-0.28,0.22,-0.22,-0.23,0.09,-0.50,-0.50,-0.50
395.77,-0.29,0.23,-0.29,0.22,-0.22,-0.24,0.05,-0.51,-0.51,-0.51
399.73,-0.30,0.23,-0.30,0.23,-0.23,-0.24,0.02,-0.53,-0.53,-0.53
403.72,-0.31,0.23,-0.31,0.23,-0.23,-0.25,-0.01,-0.54,-0.54,-0.54
407.76,-0.32,0.23,-0.32,0.23,-0.23,-0.26,-0.04,-0.56,-0.56,-0.55
411.84,-0.34,0.23,-0.34,0.23,-0.23,-0.26,-0.07,-0.57,-0.57,-0.57
415.96,-0.35,0.23,-0.35,0.23,-0.23,-0.26,-0.10,-0.58,-0.58,-0.58
420.12,-0.36,0.23,-0.36,0.23,-0.23,-0.26,-0.13,-0.59,-0.59,-0.59
424.32,-0.37,0.23,-0.37,0.23,-0.23,-0.27,-0.16,-0.60,-0.60,-0.60
428.56,-0.39,0.23,-0.39,0.23,-0.23,-0.26,-0.19,-0.61,-0.61,-0.62
432.85,-0.40,0.23,-0.40,0.22,-0.22,-0.26,-0.22,-0.63,-0.63,-0.63
437.18,-0.42,0.22,-0.42,0.22,-0.22,-0.26,-0.25,-0.64,-0.64,-0.64
441.55,-0.43,0.22,-0.43,0.22,-0.22,-0.26,-0.27,-0.65,-0.65,-0.65
445.96,-0.44,0.22,-0.44,0.22,-0.22,-0.25,-0.29,-0.67,-0.67,-0.66
450.42,-0.46,0.22,-0.45,0.22,-0.22,-0.25,-0.32,-0.68,-0.68,-0.67
454.93,-0.47,0.22,-0.47,0.22,-0.22,-0.24,-0.34,-0.69,-0.69,-0.69
459.48,-0.47,0.22,-0.48,0.22,-0.22,-0.24,-0.36,-0.70,-0.70,-0.70
464.07,-0.49,0.22,-0.49,0.22,-0.22,-0.23,-0.38,-0.71,-0.71,-0.71
468.71,-0.50,0.22,-0.50,0.22,-0.22,-0.23,-0.40,-0.72,-0.72,-0.72
473.40,-0.51,0.22,-0.51,0.22,-0.22,-0.22,-0.41,-0.73,-0.73,-0.73
478.13,-0.52,0.21,-0.52,0.21,-0.21,-0.21,-0.43,-0.74,-0.74,-0.74
482.91,-0.54,0.21,-0.54,0.21,-0.21,-0.21,-0.44,-0.74,-0.74,-0.74
487.74,-0.55,0.20,-0.55,0.20,-0.20,-0.20,-0.46,-0.75,-0.75,-0.75
492.62,-0.57,0.19,-0.57,0.19,-0.19,-0.19,-0.47,-0.76,-0.76,-0.76
497.55,-0.58,0.19,-0.58,0.19,-0.19,-0.19,-0.47,-0.77,-0.77,-0.77
502.52,-0.60,0.18,-0.60,0.18,-0.18,-0.18,-0.48,-0.78,-0.78,-0.78
507.55,-0.61,0.18,-0.61,0.18,-0.18,-0.17,-0.49,-0.79,-0.79,-0.79
512.62,-0.63,0.17,-0.63,0.17,-0.17,-0.16,-0.49,-0.80,-0.80,-0.80
517.75,-0.64,0.17,-0.64,0.17,-0.17,-0.16,-0.49,-0.81,-0.81,-0.81
