frequency,raw,error,smoothed,error_smoothed,equalization,parametric_eq,fixed_band_eq,equalized_raw,equalized_smoothed,target
20.00,6.47,0.04,6.47,0.04,-0.04,-0.41,-0.42,6.42,6.42,6.43
20.20,6.49,0.07,6.49,0.07,-0.07,-0.42,-0.43,6.43,6.43,6.43
20.40,6.52,0.09,6.52,0.09,-0.09,-0.43,-0.44,6.43,6.43,6.43
20.61,6.54,0.12,6.54,0.12,-0.12,-0.44,-0.45,6.43,6.43,6.42
20.81,6.57,0.14,6.57,0.14,-0.14,-0.45,-0.46,6.42,6.42,6.42
21.02,6.59,0.17,6.59,0.17,-0.17,-0.46,-0.48,6.42,6.42,6.42
21.23,6.61,0.19,6.61,0.19,-0.19,-0.47,-0.49,6.42,6.42,6.42
21.44,6.63,0.22,6.63,0.22,-0.22,-0.48,-0.50,6.41,6.41,6.41
21.66,6.65,0.25,6.65,0.25,-0.25,-0.49,-0.52,6.40,6.40,6.40
21.87,6.67,0.28,6.67,0.28,-0.28,-0.50,-0.53,6.40,6.40,6.40
22.09,6.69,0.31,6.69,0.31,-0.31,-0.51,-0.55,6.39,6.39,6.39
22.31,6.71,0.34,6.71,0.34,-0.34,-0.52,-0.56,6.38,6.38,6.38
22.54,6.74,0.37,6.74,0.37,-0.37,-0.53,-0.58,6.37,6.37,6.37
22.76,6.76,0.40,6.76,0.40,-0.40,-0.54,-0.59,6.36,6.36,6.36
22.99,6.77,0.43,6.77,0.43,-0.42,-0.55,-0.61,6.35,6.35,6.35
23.22,6.79,0.46,6.79,0.46,-0.45,-0.56,-0.62,6.34,6.34,6.34
23.45,6.81,0.48,6.81,0.48,-0.48,-0.58,-0.64,6.33,6.33,6.33
23.69,6.82,0.50,6.82,0.50,-0.50,-0.59,-0.66,6.32,6.32,6.32
23.92,6.84,0.53,6.84,0.53,-0.53,-0.60,-0.68,6.31,6.31,6.31
24.16,6.86,0.55,6.86,0.55,-0.55,-0.61,-0.69,6.30,6.30,6.31
24.40,6.87,0.58,6.87,0.58,-0.58,-0.63,-0.71,6.29,6.29,6.30
24.65,6.89,0.60,6.89,0.60,-0.61,-0.64,-0.73,6.28,6.28,6.29
24.89,6.91,0.64,6.91,0.64,-0.64,-0.65,-0.75,6.27,6.27,6.27
25.14,6.93,0.67,6.93,0.67,-0.67,-0.67,-0.77,6.26,6.26,6.26
25.39,6.95,0.71,6.95,0.71,-0.70,-0.68,-0.79,6.25,6.25,6.24
25.65,6.96,0.74,6.96,0.74,-0.73,-0.70,-0.81,6.23,6.23,6.23
25.91,6.98,0.77,6.98,0.77,-0.76,-0.71,-0.83,6.22,6.22,6.21
26.16,6.99,0.79,6.99,0.79,-0.78,-0.73,-0.85,6.20,6.20,6.20
26.43,7.00,0.81,7.00,0.81,-0.81,-0.74,-0.87,6.19,6.19,6.19
26.69,7.01,0.83,7.01,0.83,-0.83,-0.76,-0.89,6.18,6.18,6.18
26.96,7.01,0.84,7.01,0.84,-0.85,-0.77,-0.91,6.17,6.17,6.17
27.23,7.02,0.86,7.02,0.86,-0.87,-0.79,-0.93,6.16,6.16,6.16
27.50,7.04,0.88,7.04,0.88,-0.89,-0.80,-0.95,6.15,6.15,6.15
27.77,7.05,0.90,7.05,0.90,-0.91,-0.82,-0.97,6.14,6.14,6.14
28.05,7.05,0.93,7.05,0.93,-0.92,-0.84,-0.99,6.13,6.13,6.13
28.33,7.06,0.95,7.06,0.95,-0.94,-0.86,-1.01,6.12,6.12,6.11
28.62,7.06,0.97,7.06,0.96,-0.96,-0.87,-1.03,6.10,6.10,6.10
28.90,7.07,0.98,7.07,0.98,-0.98,-0.89,-1.05,6.09,6.09,6.09
29.19,7.07,1.00,7.07,1.00,-1.00,-0.91,-1.06,6.07,6.07,6.07
29.48,7.07,1.01,7.07,1.01,-1.02,-0.93,-1.08,6.06,6.06,6.06
29.78,7.08,1.03,7.08,1.03,-1.03,-0.95,-1.10,6.05,6.05,6.05
30.08,7.09,1.05,7.09,1.05,-1.05,-0.97,-1.12,6.05,6.05,6.04
30.38,7.10,1.07,7.10,1.07,-1.06,-0.99,-1.14,6.04,6.04,6.03
30.68,7.10,1.08,7.10,1.08,-1.07,-1.01,-1.15,6.03,6.03,6.02
30.99,7.10,1.09,7.10,1.09,-1.09,-1.03,-1.17,6.01,6.01,6.01
31.30,7.09,1.10,7.09,1.10,-1.10,-1.05,-1.18,5.99,5.99,5.99
31.61,7.08,1.11,7.08,1.11,-1.12,-1.07,-1.20,5.96,5.96,5.97
31.93,7.07,1.12,7.08,1.12,-1.14,-1.09,-1.21,5.94,5.94,5.95
32.24,7.08,1.14,7.08,1.14,-1.16,-1.11,-1.23,5.92,5.92,5.94
32.57,7.09,1.17,7.10,1.18,-1.18,-1.14,-1.24,5.91,5.91,5.92
32.89,7.12,1.21,7.12,1.21,-1.21,-1.16,-1.25,5.91,5.91,5.90
33.22,7.13,1.25,7.13,1.25,-1.23,-1.18,-1.27,5.90,5.90,5.89
33.55,7.15,1.28,7.14,1.28,-1.26,-1.21,-1.28,5.89,5.89,5.87
33.89,7.14,1.29,7.14,1.29,-1.28,-1.23,-1.29,5.87,5.87,5.85
34.23,7.13,1.30,7.13,1.30,-1.29,-1.25,-1.31,5.84,5.84,5.83
34.57,7.12,1.30,7.12,1.30,-1.31,-1.28,-1.32,5.81,5.81,5.82
34.92,7.11,1.31,7.11,1.31,-1.32,-1.30,-1.33,5.78,5.79,5.80
35.27,7.11,1.33,7.11,1.33,-1.34,-1.33,-1.35,5.77,5.77,5.78
35.62,7.11,1.35,7.12,1.35,-1.36,-1.35,-1.36,5.75,5.76,5.76
35.97,7.13,1.38,7.13,1.38,-1.38,-1.38,-1.37,5.74,5.74,5.75
36.33,7.14,1.41,7.14,1.41,-1.41,-1.40,-1.39,5.73,5.73,5.73
36.70,7.15,1.44,7.15,1.44,-1.44,-1.43,-1.40,5.71,5.71,5.71
37.06,7.17,1.48,7.17,1.47,-1.47,-1.45,-1.42,5.69,5.69,5.69
37.43,7.18,1.50,7.18,1.51,-1.50,-1.48,-1.43,5.67,5.68,5.67
37.81,7.19,1.53,7.19,1.54,-1.53,-1.51,-1.45,5.66,5.66,5.65
38.19,7.20,1.57,7.20,1.56,-1.56,-1.53,-1.47,5.64,5.64,5.64
38.57,7.21,1.59,7.21,1.59,-1.59,-1.56,-1.48,5.62,5.62,5.62
38.95,7.21,1.62,7.21,1.62,-1.62,-1.58,-1.50,5.59,5.59,5.60
39.34,7.21,1.64,7.21,1.64,-1.65,-1.61,-1.52,5.56,5.57,5.58
39.74,7.22,1.67,7.22,1.67,-1.68,-1.64,-1.55,5.54,5.54,5.55
40.14,7.23,1.70,7.24,1.70,-1.71,-1.67,-1.57,5.52,5.52,5.53
40.54,7.25,1.74,7.25,1.74,-1.74,-1.69,-1.59,5.51,5.51,5.51
40.94,7.27,1.78,7.27,1.78,-1.77,-1.72,-1.62,5.51,5.51,5.49
41.35,7.29,1.81,7.28,1.81,-1.78,-1.75,-1.64,5.50,5.50,5.48
41.76,7.28,1.83,7.28,1.82,-1.80,-1.77,-1.67,5.49,5.48,5.46
42.18,7.26,1.82,7.26,1.82,-1.81,-1.80,-1.70,5.46,5.46,5.44
42.60,7.24,1.82,7.24,1.82,-1.81,-1.83,-1.73,5.43,5.43,5.42
43.03,7.21,1.81,7.21,1.81,-1.82,-1.85,-1.76,5.39,5.39,5.41
43.46,7.19,1.81,7.19,1.81,-1.83,-1.88,-1.79,5.36,5.36,5.39
43.90,7.19,1.82,7.19,1.82,-1.85,-1.90,-1.83,5.34,5.34,5.37
44.33,7.19,1.85,7.19,1.85,-1.87,-1.93,-1.87,5.32,5.32,5.35
44.78,7.22,1.89,7.22,1.89,-1.90,-1.96,-1.90,5.31,5.31,5.32
45.23,7.25,1.95,7.25,1.94,-1.94,-1.98,-1.94,5.31,5.31,5.30
45.68,7.28,2.00,7.28,2.00,-1.98,-2.01,-1.98,5.30,5.30,5.29
46.13,7.31,2.04,7.31,2.04,-2.02,-2.03,-2.02,5.29,5.29,5.27
46.60,7.33,2.08,7.33,2.08,-2.06,-2.05,-2.07,5.27,5.27,5.25
47.06,7.33,2.10,7.33,2.10,-2.09,-2.08,-2.11,5.24,5.24,5.23
47.53,7.33,2.11,7.33,2.11,-2.12,-2.10,-2.16,5.21,5.21,5.21
48.01,7.32,2.13,7.32,2.13,-2.14,-2.12,-2.20,5.18,5.18,5.19
48.49,7.32,2.14,7.32,2.15,-2.15,-2.15,-2.25,5.16,5.16,5.17
48.97,7.32,2.16,7.32,2.17,-2.17,-2.17,-2.30,5.15,5.15,5.15
49.46,7.32,2.19,7.31,2.18,-2.18,-2.19,-2.35,5.14,5.14,5.13
49.96,7.31,2.20,7.31,2.20,-2.19,-2.21,-2.40,5.13,5.13,5.11
50.46,7.31,2.21,7.31,2.21,-2.20,-2.23,-2.45,5.11,5.11,5.10
50.96,7.30,2.21,7.30,2.21,-2.21,-2.25,-2.50,5.09,5.09,5.10
51.47,7.30,2.21,7.30,2.21,-2.23,-2.27,-2.56,5.07,5.07,5.09
51.99,7.29,2.22,7.29,2.23,-2.25,-2.29,-2.61,5.05,5.05,5.07
52.51,7.29,2.25,7.29,2.25,-2.26,-2.31,-2.66,5.02,5.02,5.03
53.03,7.28,2.29,7.28,2.29,-2.28,-2.33,-2.71,5.00,5.00,4.99
53.56,7.27,2.32,7.27,2.32,-2.30,-2.35,-2.76,4.97,4.97,4.95
54.10,7.26,2.34,7.26,2.34,-2.32,-2.37,-2.81,4.93,4.93,4.92
54.64,7.25,2.35,7.25,2.35,-2.35,-2.38,-2.86,4.90,4.90,4.89
55.18,7.24,2.37,7.24,2.37,-2.37,-2.40,-2.91,4.87,4.87,4.87
55.74,7.22,2.38,7.22,2.38,-2.39,-2.42,-2.96,4.83,4.83,4.84
56.29,7.22,2.40,7.22,2.40,-2.41,-2.43,-3.00,4.80,4.80,4.81
56.86,7.21,2.43,7.21,2.43,-2.44,-2.45,-3.04,4.78,4.78,4.79
57.42,7.21,2.46,7.22,2.46,-2.46,-2.47,-3.08,4.75,4.75,4.76
58.00,7.22,2.49,7.22,2.49,-2.48,-2.48,-3.12,4.73,4.73,4.73
58.58,7.22,2.51,7.22,2.51,-2.51,-2.50,-3.15,4.71,4.71,4.71
59.16,7.22,2.53,7.22,2.53,-2.52,-2.51,-3.18,4.69,4.69,4.68
59.76,7.21,2.55,7.21,2.55,-2.54,-2.52,-3.21,4.67,4.67,4.67
60.35,7.20,2.55,7.20,2.55,-2.55,-2.54,-3.23,4.66,4.66,4.65
60.96,7.19,2.56,7.19,2.56,-2.55,-2.55,-3.25,4.64,4.64,4.63
61.57,7.18,2.56,7.18,2.56,-2.55,-2.57,-3.26,4.63,4.63,4.62
62.18,7.17,2.56,7.17,2.56,-2.56,-2.58,-3.27,4.61,4.61,4.61
62.80,7.16,2.56,7.16,2.55,-2.57,-2.59,-3.28,4.59,4.59,4.60
63.43,7.15,2.55,7.15,2.56,-2.58,-2.61,-3.28,4.57,4.57,4.60
64.07,7.14,2.57,7.14,2.58,-2.60,-2.62,-3.28,4.55,4.55,4.57
64.71,7.13,2.61,7.13,2.61,-2.62,-2.64,-3.27,4.52,4.52,4.53
65.35,7.12,2.65,7.12,2.65,-2.64,-2.65,-3.26,4.49,4.49,4.47
66.01,7.11,2.68,7.11,2.68,-2.66,-2.66,-3.25,4.45,4.45,4.43
66.67,7.10,2.70,7.10,2.70,-2.69,-2.68,-3.23,4.42,4.42,4.40
67.33,7.09,2.72,7.09,2.72,-2.71,-2.69,-3.21,4.38,4.38,4.38
68.01,7.08,2.73,7.08,2.73,-2.73,-2.70,-3.19,4.35,4.35,4.35
68.69,7.07,2.74,7.07,2.74,-2.75,-2.72,-3.16,4.31,4.32,4.32
69.37,7.06,2.76,7.06,2.76,-2.77,-2.73,-3.13,4.29,4.29,4.30
70.07,7.05,2.78,7.05,2.78,-2.78,-2.74,-3.10,4.26,4.26,4.27
70.77,7.04,2.80,7.04,2.80,-2.80,-2.76,-3.07,4.24,4.24,4.24
71.48,7.03,2.82,7.03,2.82,-2.82,-2.77,-3.04,4.21,4.21,4.21
72.19,7.01,2.84,7.01,2.84,-2.83,-2.78,-3.00,4.18,4.18,4.18
72.91,7.00,2.85,7.00,2.85,-2.85,-2.80,-2.96,4.15,4.15,4.15
73.64,6.98,2.86,6.98,2.86,-2.86,-2.81,-2.93,4.12,4.12,4.12
74.38,6.96,2.87,6.96,2.87,-2.87,-2.82,-2.89,4.09,4.09,4.09
75.12,6.95,2.88,6.95,2.88,-2.87,-2.84,-2.85,4.07,4.07,4.07
75.87,6.93,2.88,6.93,2.88,-2.88,-2.85,-2.82,4.05,4.05,4.05
76.63,6.92,2.89,6.92,2.89,-2.88,-2.86,-2.78,4.03,4.03,4.03
77.40,6.90,2.89,6.90,2.89,-2.89,-2.88,-2.74,4.01,4.01,4.01
78.17,6.88,2.89,6.88,2.89,-2.89,-2.89,-2.71,3.99,3.99,3.99
78.95,6.86,2.89,6.86,2.89,-2.90,-2.90,-2.67,3.97,3.97,3.97
79.74,6.84,2.90,6.84,2.90,-2.90,-2.91,-2.64,3.94,3.94,3.94
80.54,6.82,2.91,6.82,2.91,-2.91,-2.93,-2.61,3.91,3.91,3.91
81.35,6.80,2.92,6.80,2.92,-2.93,-2.94,-2.58,3.87,3.87,3.88
82.16,6.78,2.94,6.78,2.94,-2.94,-2.95,-2.55,3.84,3.84,3.84
82.98,6.76,2.96,6.76,2.96,-2.96,-2.96,-2.52,3.80,3.80,3.80
83.81,6.74,2.98,6.74,2.98,-2.98,-2.97,-2.50,3.76,3.76,3.76
84.65,6.73,3.01,6.73,3.01,-3.01,-2.98,-2.47,3.72,3.72,3.72
85.50,6.71,3.03,6.71,3.03,-3.03,-2.99,-2.45,3.68,3.68,3.68
86.35,6.69,3.05,6.69,3.05,-3.05,-3.00,-2.43,3.64,3.64,3.64
87.22,6.68,3.07,6.68,3.07,-3.07,-3.01,-2.41,3.61,3.61,3.61
88.09,6.66,3.08,6.66,3.08,-3.08,-3.01,-2.40,3.59,3.59,3.58
88.97,6.65,3.09,6.65,3.09,-3.08,-3.02,-2.38,3.57,3.57,3.56
89.86,6.63,3.10,6.62,3.09,-3.08,-3.03,-2.37,3.55,3.55,3.53
90.76,6.59,3.08,6.59,3.08,-3.07,-3.03,-2.36,3.53,3.53,3.51
91.66,6.55,3.06,6.55,3.06,-3.05,-3.04,-2.35,3.50,3.50,3.49
92.58,6.50,3.03,6.50,3.03,-3.03,-3.04,-2.34,3.47,3.47,3.47
93.51,6.45,3.00,6.45,3.00,-3.01,-3.04,-2.34,3.43,3.43,3.44
94.44,6.40,2.98,6.40,2.98,-3.00,-3.04,-2.33,3.40,3.40,3.42
95.39,6.36,2.97,6.36,2.97,-2.98,-3.04,-2.33,3.38,3.38,3.39
96.34,6.32,2.96,6.32,2.96,-2.97,-3.04,-2.33,3.36,3.36,3.36
97.30,6.29,2.96,6.29,2.96,-2.96,-3.04,-2.33,3.33,3.33,3.33
98.28,6.26,2.96,6.26,2.96,-2.96,-3.03,-2.34,3.30,3.30,3.30
99.26,6.23,2.96,6.23,2.96,-2.96,-3.03,-2.34,3.27,3.27,3.27
100.25,6.19,2.96,6.19,2.96,-2.95,-3.02,-2.34,3.24,3.24,3.24
101.25,6.16,2.95,6.16,2.95,-2.95,-3.01,-2.35,3.21,3.21,3.21
102.27,6.12,2.95,6.12,2.95,-2.95,-3.00,-2.36,3.18,3.18,3.17
103.29,6.08,2.94,6.08,2.94,-2.94,-2.99,-2.36,3.14,3.14,3.14
104.32,6.03,2.93,6.03,2.93,-2.93,-2.98,-2.37,3.11,3.11,3.10
105.37,5.98,2.92,5.98,2.92,-2.91,-2.96,-2.38,3.07,3.07,3.06
106.42,5.93,2.90,5.93,2.90,-2.90,-2.94,-2.39,3.03,3.03,3.03
107.48,5.89,2.88,5.89,2.88,-2.88,-2.93,-2.39,3.00,3.00,3.00
108.56,5.84,2.86,5.84,2.86,-2.87,-2.90,-2.40,2.97,2.97,2.98
109.64,5.79,2.84,5.79,2.84,-2.85,-2.88,-2.41,2.93,2.93,2.95
110.74,5.74,2.82,5.74,2.82,-2.83,-2.86,-2.41,2.90,2.90,2.91
111.85,5.69,2.81,5.69,2.81,-2.81,-2.83,-2.42,2.88,2.88,2.88
112.97,5.64,2.79,5.64,2.79,-2.78,-2.80,-2.42,2.86,2.86,2.85
114.10,5.59,2.77,5.59,2.77,-2.74,-2.77,-2.42,2.85,2.85,2.82
115.24,5.53,2.74,5.52,2.73,-2.70,-2.73,-2.42,2.83,2.82,2.79
116.39,5.44,2.68,5.44,2.67,-2.66,-2.70,-2.42,2.78,2.78,2.77
117.55,5.36,2.61,5.36,2.61,-2.62,-2.66,-2.42,2.74,2.74,2.75
118.73,5.27,2.55,5.27,2.55,-2.58,-2.62,-2.41,2.69,2.69,2.72
119.92,5.20,2.51,5.20,2.51,-2.55,-2.58,-2.40,2.65,2.65,2.69
121.12,5.14,2.49,5.15,2.49,-2.52,-2.53,-2.39,2.62,2.62,2.65
122.33,5.10,2.49,5.11,2.49,-2.50,-2.48,-2.37,2.61,2.61,2.61
123.55,5.07,2.49,5.07,2.49,-2.48,-2.44,-2.35,2.59,2.59,2.58
124.79,5.03,2.49,5.03,2.48,-2.46,-2.38,-2.33,2.57,2.57,2.55
126.03,4.98,2.46,4.98,2.46,-2.44,-2.33,-2.30,2.54,2.54,2.52
127.29,4.91,2.42,4.91,2.42,-2.41,-2.27,-2.27,2.50,2.50,2.49
128.57,4.83,2.37,4.83,2.37,-2.37,-2.21,-2.24,2.47,2.47,2.46
129.85,4.75,2.31,4.75,2.31,-2.32,-2.15,-2.21,2.43,2.43,2.44
131.15,4.66,2.24,4.66,2.24,-2.25,-2.09,-2.17,2.41,2.41,2.42
132.46,4.57,2.18,4.57,2.18,-2.18,-2.02,-2.13,2.39,2.39,2.39
133.79,4.47,2.11,4.47,2.11,-2.11,-1.95,-2.08,2.36,2.36,2.36
135.12,4.36,2.03,4.36,2.03,-2.03,-1.88,-2.03,2.34,2.34,2.34
136.48,4.25,1.94,4.25,1.94,-1.94,-1.81,-1.98,2.31,2.31,2.31
137.84,4.12,1.84,4.12,1.84,-1.84,-1.73,-1.93,2.28,2.28,2.28
139.22,3.98,1.73,3.98,1.73,-1.73,-1.65,-1.88,2.25,2.25,2.25
140.61,3.84,1.62,3.84,1.62,-1.61,-1.57,-1.82,2.23,2.23,2.22
142.02,3.68,1.49,3.68,1.49,-1.47,-1.49,-1.76,2.20,2.20,2.18
143.44,3.51,1.36,3.51,1.36,-1.33,-1.40,-1.70,2.19,2.18,2.15
144.87,3.33,1.20,3.32,1.20,-1.17,-1.32,-1.64,2.16,2.15,2.12
146.32,3.13,1.03,3.13,1.03,-1.02,-1.23,-1.57,2.11,2.11,2.10
147.78,2.94,0.86,2.94,0.86,-0.87,-1.14,-1.51,2.06,2.07,2.07
149.26,2.76,0.71,2.76,0.71,-0.74,-1.05,-1.44,2.02,2.02,2.05
150.75,2.61,0.58,2.61,0.58,-0.63,-0.95,-1.38,1.98,1.98,2.03
152.26,2.50,0.49,2.50,0.49,-0.54,-0.86,-1.31,1.95,1.96,2.01
153.78,2.44,0.45,2.44,0.45,-0.48,-0.76,-1.24,1.95,1.95,1.99
155.32,2.40,0.42,2.40,0.43,-0.45,-0.66,-1.17,1.95,1.95,1.97
156.88,2.39,0.43,2.39,0.43,-0.43,-0.56,-1.11,1.96,1.96,1.96
158.44,2.38,0.43,2.38,0.43,-0.41,-0.46,-1.04,1.97,1.97,1.95
160.03,2.37,0.43,2.36,0.42,-0.39,-0.36,-0.97,1.97,1.97,1.94
161.63,2.33,0.40,2.33,0.40,-0.36,-0.25,-0.90,1.97,1.97,1.93
163.24,2.28,0.35,2.28,0.35,-0.31,-0.15,-0.83,1.97,1.97,1.93
164.88,2.20,0.27,2.20,0.26,-0.23,-0.05,-0.76,1.97,1.96,1.93
166.53,2.10,0.16,2.10,0.16,-0.14,0.06,-0.69,1.95,1.95,1.94
168.19,1.97,0.04,1.98,0.04,-0.04,0.16,-0.62,1.94,1.94,1.94
169.87,1.84,-0.09,1.84,-0.09,0.08,0.26,-0.56,1.92,1.92,1.93
171.57,1.69,-0.22,1.69,-0.22,0.20,0.36,-0.49,1.89,1.89,1.91
173.29,1.54,-0.34,1.54,-0.34,0.31,0.46,-0.42,1.85,1.85,1.88
175.02,1.38,-0.45,1.38,-0.45,0.43,0.56,-0.35,1.81,1.81,1.83
176.77,1.23,-0.54,1.23,-0.54,0.54,0.66,-0.28,1.77,1.77,1.77
178.54,1.07,-0.64,1.07,-0.64,0.65,0.75,-0.21,1.72,1.72,1.71
180.32,0.92,-0.74,0.92,-0.74,0.75,0.84,-0.15,1.67,1.67,1.65
182.13,0.76,-0.84,0.76,-0.84,0.85,0.93,-0.08,1.61,1.61,1.60
183.95,0.62,-0.94,0.62,-0.94,0.95,1.01,-0.01,1.57,1.57,1.56
185.79,0.47,-1.05,0.47,-1.05,1.05,1.09,0.05,1.52,1.52,1.52
187.65,0.34,-1.15,0.34,-1.15,1.15,1.16,0.12,1.49,1.49,1.49
189.52,0.21,-1.25,0.21,-1.25,1.25,1.23,0.19,1.46,1.46,1.46
191.42,0.09,-1.34,0.09,-1.34,1.34,1.29,0.25,1.43,1.43,1.43
193.33,-0.02,-1.43,-0.03,-1.43,1.43,1.35,0.32,1.41,1.40,1.40
195.27,-0.14,-1.51,-0.14,-1.51,1.51,1.40,0.38,1.37,1.37,1.37
197.22,-0.24,-1.58,-0.24,-1.58,1.58,1.45,0.45,1.34,1.34,1.34
199.19,-0.33,-1.64,-0.33,-1.64,1.63,1.49,0.51,1.30,1.30,1.31
201.18,-0.40,-1.68,-0.40,-1.69,1.68,1.52,0.58,1.27,1.27,1.28
203.19,-0.46,-1.72,-0.46,-1.72,1.71,1.55,0.64,1.25,1.25,1.26
205.23,-0.50,-1.73,-0.50,-1.73,1.73,1.57,0.70,1.23,1.23,1.23
207.28,-0.53,-1.74,-0.53,-1.74,1.74,1.59,0.76,1.21,1.21,1.21
209.35,-0.54,-1.73,-0.54,-1.73,1.73,1.60,0.82,1.19,1.19,1.19
211.44,-0.54,-1.72,-0.54,-1.72,1.72,1.60,0.88,1.18,1.18,1.18
213.56,-0.54,-1.70,-0.54,-1.70,1.70,1.60,0.94,1.16,1.16,1.16
215.69,-0.52,-1.67,-0.52,-1.67,1.67,1.60,1.00,1.14,1.14,1.14
217.85,-0.51,-1.63,-0.51,-1.63,1.63,1.59,1.05,1.12,1.12,1.13
220.03,-0.48,-1.59,-0.48,-1.59,1.59,1.57,1.10,1.11,1.11,1.11
222.23,-0.46,-1.54,-0.46,-1.54,1.55,1.55,1.15,1.09,1.09,1.09
224.45,-0.43,-1.50,-0.43,-1.50,1.50,1.53,1.20,1.07,1.07,1.07
226.70,-0.40,-1.45,-0.40,-1.45,1.45,1.51,1.25,1.06,1.06,1.05
228.96,-0.37,-1.40,-0.37,-1.40,1.41,1.48,1.29,1.04,1.04,1.04
231.25,-0.34,-1.36,-0.34,-1.36,1.36,1.45,1.33,1.02,1.02,1.02
233.57,-0.31,-1.31,-0.31,-1.31,1.31,1.42,1.37,1.00,1.00,1.00
235.90,-0.28,-1.27,-0.28,-1.27,1.27,1.38,1.40,0.99,0.99,0.99
238.26,-0.25,-1.22,-0.25,-1.22,1.22,1.35,1.43,0.97,0.98,0.98
240.64,-0.22,-1.18,-0.22,-1.18,1.18,1.31,1.46,0.96,0.96,0.96
243.05,-0.19,-1.14,-0.19,-1.14,1.14,1.27,1.48,0.95,0.95,0.95
245.48,-0.16,-1.09,-0.16,-1.09,1.10,1.24,1.50,0.94,0.94,0.94
247.93,-0.14,-1.06,-0.14,-1.06,1.06,1.20,1.52,0.93,0.93,0.92
250.41,-0.12,-1.02,-0.12,-1.03,1.03,1.16,1.53,0.91,0.91,0.91
252.92,-0.10,-1.00,-0.10,-1.00,1.00,1.12,1.54,0.90,0.90,0.90
255.45,-0.09,-0.97,-0.09,-0.97,0.97,1.09,1.54,0.88,0.88,0.89
258.00,-0.07,-0.95,-0.07,-0.95,0.94,1.05,1.54,0.87,0.87,0.88
260.58,-0.06,-0.92,-0.06,-0.92,0.91,1.01,1.54,0.85,0.85,0.86
263.19,-0.04,-0.89,-0.04,-0.89,0.88,0.98,1.53,0.84,0.84,0.85
265.82,-0.03,-0.86,-0.03,-0.86,0.86,0.94,1.52,0.83,0.83,0.83
268.48,-0.02,-0.83,-0.02,-0.83,0.84,0.91,1.51,0.82,0.82,0.81
271.16,-0.01,-0.81,-0.01,-0.81,0.82,0.88,1.49,0.81,0.81,0.80
273.87,-0.01,-0.79,-0.01,-0.79,0.80,0.85,1.47,0.79,0.79,0.79
276.61,-0.01,-0.78,-0.01,-0.78,0.78,0.82,1.45,0.77,0.77,0.77
279.38,-0.01,-0.77,-0.01,-0.77,0.76,0.79,1.43,0.75,0.76,0.76
282.17,-0.01,-0.76,-0.01,-0.76,0.75,0.76,1.40,0.74,0.74,0.75
284.99,-0.00,-0.74,-0.00,-0.74,0.73,0.73,1.37,0.73,0.73,0.74
287.84,0.01,-0.72,0.01,-0.72,0.72,0.70,1.34,0.73,0.73,0.73
290.72,0.01,-0.70,0.01,-0.70,0.71,0.68,1.31,0.72,0.72,0.72
293.63,0.02,-0.69,0.02,-0.69,0.69,0.65,1.28,0.71,0.71,0.70
296.57,0.02,-0.68,0.02,-0.68,0.68,0.63,1.25,0.70,0.70,0.69
299.53,0.02,-0.67,0.02,-0.67,0.67,0.61,1.21,0.69,0.69,0.68
302.53,0.02,-0.66,0.02,-0.66,0.66,0.59,1.18,0.68,0.68,0.68
305.55,0.02,-0.65,0.02,-0.65,0.65,0.57,1.14,0.67,0.67,0.67
308.61,0.02,-0.64,0.02,-0.64,0.64,0.55,1.10,0.66,0.66,0.66
311.69,0.02,-0.64,0.02,-0.64,0.63,0.53,1.07,0.65,0.65,0.65
314.81,0.02,-0.63,0.02,-0.63,0.63,0.52,1.03,0.65,0.65,0.65
317.96,0.02,-0.62,0.02,-0.62,0.62,0.50,0.99,0.64,0.64,0.64
321.14,0.02,-0.61,0.02,-0.61,0.62,0.48,0.95,0.64,0.64,0.64
324.35,0.02,-0.61,0.02,-0.61,0.61,0.47,0.92,0.63,0.63,0.63
327.59,0.02,-0.60,0.02,-0.60,0.60,0.46,0.88,0.63,0.63,0.63
330.87,0.02,-0.60,0.02,-0.60,0.60,0.45,0.84,0.62,0.62,0.62
334.18,0.02,-0.59,0.02,-0.59,0.59,0.43,0.81,0.61,0.61,0.62
337.52,0.03,-0.58,0.03,-0.58,0.57,0.42,0.77,0.60,0.60,0.61
340.90,0.04,-0.57,0.04,-0.57,0.56,0.41,0.73,0.60,0.60,0.60
344.30,0.05,-0.55,0.05,-0.55,0.55,0.40,0.70,0.60,0.60,0.60
347.75,0.06,-0.53,0.06,-0.53,0.54,0.40,0.66,0.60,0.59,0.59
351.23,0.06,-0.52,0.06,-0.52,0.52,0.39,0.63,0.59,0.59,0.58
354.74,0.07,-0.51,0.07,-0.51,0.51,0.38,0.59,0.58,0.58,0.58
358.28,0.07,-0.50,0.07,-0.50,0.50,0.37,0.56,0.57,0.57,0.57
361.87,0.07,-0.49,0.07,-0.49,0.49,0.37,0.53,0.56,0.56,0.56
365.49,0.08,-0.48,0.08,-0.48,0.48,0.36,0.49,0.56,0.56,0.56
369.14,0.09,-0.46,0.09,-0.46,0.46,0.36,0.46,0.55,0.55,0.55
372.83,0.09,-0.45,0.09,-0.45,0.45,0.36,0.43,0.54,0.54,0.54
376.56,0.10,-0.44,0.10,-0.44,0.44,0.35,0.40,0.54,0.54,0.54
380.33,0.11,-0.42,0.11,-0.42,0.42,0.35,0.37,0.53,0.53,0.53
384.13,0.11,-0.41,0.12,-0.41,0.40,0.35,0.34,0.52,0.52,0.52
387.97,0.12,-0.39,0.13,-0.39,0.39,0.34,0.31,0.51,0.51,0.52
391.85,0.14,-0.37,0.14,-0.37,0.37,0.34,0.28,0.51,0.51,0.51
395.77,0.15,-0.35,0.15,-0.35,0.35,0.34,0.25,0.50,0.50,0.50
399.73,0.16,-0.33,0.16,-0.33,0.34,0.34,0.22,0.49,0.49,0.49
403.72,0.16,-0.32,0.16,-0.32,0.32,0.34,0.20,0.48,0.48,0.48
407.76,0.16,-0.31,0.16,-0.31,0.31,0.34,0.17,0.47,0.47,0.47
411.84,0.16,-0.30,0.16,-0.30,0.30,0.34,0.14,0.46,0.46,0.46
415.96,0.16,-0.30,0.16,-0.30,0.29,0.34,0.12,0.45,0.45,0.45
420.12,0.16,-0.29,0.16,-0.29,0.29,0.35,0.10,0.44,0.44,0.45
424.32,0.15,-0.29,0.15,-0.29,0.28,0.35,0.07,0.44,0.44,0.44
428.56,0.15,-0.28,0.15,-0.28,0.28,0.35,0.05,0.43,0.43,0.43
432.85,0.15,-0.28,0.15,-0.28,0.28,0.35,0.03,0.43,0.43,0.43
437.18,0.16,-0.27,0.16,-0.27,0.27,0.36,0.01,0.43,0.43,0.43
441.55,0.16,-0.27,0.16,-0.27,0.27,0.36,-0.00,0.43,0.43,0.43
445.96,0.16,-0.27,0.16,-0.27,0.27,0.37,-0.02,0.43,0.43,0.43
450.42,0.16,-0.27,0.16,-0.27,0.27,0.37,-0.04,0.43,0.43,0.43
454.93,0.16,-0.27,0.16,-0.27,0.27,0.38,-0.05,0.43,0.43,0.43
459.48,0.16,-0.27,0.16,-0.27,0.27,0.38,-0.06,0.43,0.43,0.43
464.07,0.15,-0.28,0.15,-0.28,0.27,0.39,-0.07,0.43,0.43,0.43
468.71,0.15,-0.28,0.15,-0.28,0.28,0.39,-0.08,0.43,0.43,0.43
473.40,0.14,-0.29,0.14,-0.29,0.29,0.40,-0.09,0.43,0.43,0.43
478.13,0.14,-0.29,0.14,-0.29,0.29,0.41,-0.09,0.43,0.43,0.43
482.91,0.13,-0.30,0.13,-0.30,0.30,0.41,-0.09,0.43,0.43,0.43
487.74,0.12,-0.31,0.12,-0.31,0.31,0.42,-0.09,0.43,0.43,0.43
492.62,0.11,-0.32,0.11,-0.32,0.32,0.43,-0.09,0.43,0.43,0.43
497.55,0.11,-0.33,0.11,-0.33,0.33,0.44,-0.09,0.43,0.43,0.44
502.52,0.10,-0.34,0.10,-0.34,0.34,0.44,-0.08,0.44,0.44,0.44
507.55,0.09,-0.35,0.09,-0.35,0.35,0.45,-0.08,0.44,0.44,0.44
512.62,0.09,-0.36,0.09,-0.36,0.36,0.46,-0.07,0.45,0.45,0.45
517.75,0.08,-0.37,0.08,-0.37,0.37,0.47,-0.05,0.45,0.45,0.45
522.93,0.08,-0.38,0.08,-0.38,0.38,0.48,-0.04,0.46,0.46,0.45
528.16,0.07,-0.39,0.07,-0.39,0.39,0.49,-0.02,0.46,0.46,0.46
533.44,0.06,-0.41,0.06,-0.41,0.41,0.50,-0.01,0.46,0.46,0.46
538.77,0.05,-0.42,0.04,-0.42,0.42,0.51,0.01,0.47,0.47,0.47
544.16,0.03,-0.44,0.03,-0.44,0.44,0.53,0.04,0.47,0.47,0.47
549.60,0.02,-0.46,0.02,-0.46,0.46,0.54,0.06,0.48,0.48,0.48
