frequency,raw,error,smoothed,error_smoothed,equalization,parametric_eq,fixed_band_eq,equalized_raw,equalized_smoothed,target
20.00,10.87,7.39,10.87,7.40,-7.29,-7.45,-2.88,3.59,3.59,3.48
20.20,10.90,7.20,10.90,7.17,-7.16,-7.34,-2.96,3.74,3.74,3.70
20.40,10.93,6.95,10.93,6.99,-7.06,-7.24,-3.05,3.87,3.87,3.98
20.61,10.96,6.90,10.96,6.87,-6.96,-7.15,-3.13,3.99,3.99,4.05
20.81,10.98,6.79,10.98,6.82,-6.89,-7.06,-3.22,4.09,4.09,4.19
21.02,11.00,6.79,11.00,6.82,-6.82,-7.01,-3.31,4.18,4.18,4.21
21.23,11.02,6.86,11.02,6.79,-6.77,-6.97,-3.41,4.25,4.25,4.16
21.44,11.04,6.77,11.04,6.78,-6.74,-6.93,-3.51,4.31,4.31,4.27
21.66,11.06,6.71,11.06,6.75,-6.74,-6.90,-3.60,4.32,4.32,4.35
21.87,11.08,6.73,11.08,6.72,-6.75,-6.87,-3.71,4.32,4.32,4.35
22.09,11.09,6.74,11.09,6.73,-6.76,-6.85,-3.81,4.33,4.33,4.35
22.31,11.11,6.76,11.11,6.77,-6.77,-6.81,-3.92,4.34,4.34,4.35
22.54,11.12,6.79,11.12,6.81,-6.78,-6.78,-4.03,4.35,4.35,4.34
22.76,11.14,6.88,11.14,6.81,-6.79,-6.75,-4.15,4.35,4.35,4.26
22.99,11.16,6.81,11.16,6.81,-6.81,-6.72,-4.26,4.35,4.35,4.34
23.22,11.17,6.73,11.17,6.80,-6.82,-6.68,-4.38,4.35,4.35,4.44
23.45,11.19,6.82,11.19,6.80,-6.82,-6.65,-4.50,4.36,4.36,4.37
23.69,11.20,6.85,11.20,6.82,-6.82,-6.62,-4.63,4.39,4.39,4.35
23.92,11.22,6.84,11.22,6.84,-6.81,-6.58,-4.75,4.41,4.41,4.38
24.16,11.23,6.79,11.23,6.81,-6.79,-6.56,-4.88,4.44,4.44,4.44
24.40,11.24,6.79,11.24,6.77,-6.78,-6.53,-5.02,4.46,4.46,4.45
24.65,11.24,6.76,11.24,6.74,-6.76,-6.50,-5.15,4.48,4.48,4.49
24.89,11.24,6.70,11.24,6.72,-6.75,-6.47,-5.29,4.50,4.50,4.55
25.14,11.25,6.70,11.25,6.70,-6.72,-6.45,-5.42,4.53,4.53,4.55
25.39,11.24,6.70,11.24,6.68,-6.69,-6.42,-5.56,4.56,4.56,4.55
25.65,11.24,6.68,11.24,6.67,-6.66,-6.40,-5.70,4.58,4.59,4.56
25.91,11.24,6.62,11.24,6.65,-6.63,-6.38,-5.84,4.61,4.61,4.63
26.16,11.24,6.59,11.24,6.59,-6.58,-6.36,-5.98,4.66,4.66,4.65
26.43,11.24,6.57,11.24,6.51,-6.50,-6.34,-6.12,4.74,4.74,4.67
26.69,11.25,6.38,11.25,6.42,-6.39,-6.32,-6.26,4.85,4.85,4.87
26.96,11.25,6.30,11.25,6.38,-6.28,-6.30,-6.40,4.97,4.97,4.95
27.23,11.26,6.31,11.26,6.30,-6.18,-6.28,-6.53,5.07,5.07,4.95
27.50,11.26,6.31,11.26,6.12,-6.12,-6.26,-6.66,5.14,5.14,4.95
27.77,11.27,5.88,11.27,5.91,-6.10,-6.25,-6.79,5.17,5.17,5.39
28.05,11.28,5.58,11.28,5.80,-6.08,-6.23,-6.91,5.20,5.20,5.70
28.33,11.28,5.87,11.28,5.88,-6.07,-6.21,-7.03,5.21,5.21,5.42
28.62,11.29,6.21,11.29,6.12,-6.05,-6.19,-7.14,5.24,5.24,5.08
28.90,11.29,6.39,11.29,6.31,-6.01,-6.18,-7.24,5.28,5.28,4.90
29.19,11.29,6.24,11.29,6.28,-5.98,-6.16,-7.34,5.31,5.31,5.04
29.48,11.29,6.10,11.29,6.08,-5.96,-6.14,-7.42,5.33,5.33,5.19
29.78,11.29,5.86,11.29,5.85,-5.94,-6.12,-7.50,5.35,5.35,5.43
30.08,11.28,5.63,11.28,5.70,-5.90,-6.11,-7.56,5.38,5.38,5.65
30.38,11.28,5.63,11.28,5.64,-5.84,-6.09,-7.62,5.44,5.44,5.65
30.68,11.28,5.68,11.28,5.65,-5.76,-6.07,-7.66,5.52,5.52,5.60
30.99,11.28,5.74,11.28,5.72,-5.69,-6.05,-7.69,5.60,5.60,5.55
31.30,11.29,5.74,11.29,5.80,-5.64,-6.03,-7.71,5.65,5.65,5.55
31.61,11.29,5.84,11.29,5.80,-5.61,-6.01,-7.72,5.68,5.68,5.44
31.93,11.29,5.81,11.29,5.70,-5.59,-5.99,-7.71,5.70,5.70,5.48
32.24,11.28,5.49,11.28,5.56,-5.58,-5.97,-7.69,5.70,5.70,5.79
32.57,11.28,5.38,11.28,5.42,-5.59,-5.95,-7.66,5.69,5.69,5.90
32.89,11.28,5.38,11.28,5.40,-5.61,-5.93,-7.62,5.68,5.68,5.90
33.22,11.28,5.54,11.28,5.52,-5.63,-5.91,-7.57,5.65,5.65,5.74
33.55,11.28,5.67,11.28,5.67,-5.67,-5.89,-7.51,5.61,5.61,5.61
33.89,11.28,5.81,11.28,5.83,-5.73,-5.87,-7.44,5.56,5.56,5.47
34.23,11.28,5.94,11.28,5.93,-5.79,-5.85,-7.37,5.49,5.49,5.34
34.57,11.28,6.01,11.28,5.97,-5.85,-5.82,-7.28,5.43,5.43,5.27
34.92,11.28,5.94,11.28,5.94,-5.90,-5.80,-7.20,5.38,5.38,5.34
35.27,11.28,5.83,11.27,5.87,-5.91,-5.78,-7.10,5.36,5.36,5.45
35.62,11.27,5.82,11.27,5.82,-5.90,-5.75,-7.00,5.37,5.37,5.45
35.97,11.26,5.81,11.26,5.81,-5.86,-5.73,-6.90,5.40,5.40,5.45
36.33,11.25,5.80,11.25,5.81,-5.82,-5.70,-6.80,5.43,5.43,5.45
36.70,11.24,5.80,11.25,5.78,-5.77,-5.67,-6.69,5.48,5.48,5.45
37.06,11.24,5.74,11.24,5.74,-5.70,-5.65,-6.58,5.54,5.54,5.50
37.43,11.23,5.66,11.23,5.67,-5.63,-5.62,-6.48,5.61,5.61,5.57
37.81,11.23,5.59,11.23,5.59,-5.54,-5.59,-6.37,5.69,5.69,5.63
38.19,11.22,5.51,11.22,5.51,-5.45,-5.57,-6.26,5.77,5.77,5.71
38.57,11.21,5.40,11.21,5.38,-5.37,-5.54,-6.16,5.84,5.84,5.81
38.95,11.20,5.26,11.20,5.24,-5.31,-5.51,-6.06,5.88,5.89,5.93
39.34,11.18,5.09,11.18,5.14,-5.28,-5.48,-5.96,5.91,5.91,6.09
39.74,11.17,5.10,11.17,5.13,-5.26,-5.45,-5.86,5.91,5.91,6.07
40.14,11.15,5.21,11.15,5.20,-5.26,-5.42,-5.76,5.90,5.90,5.94
40.54,11.14,5.33,11.14,5.32,-5.26,-5.39,-5.67,5.87,5.87,5.80
40.94,11.12,5.41,11.12,5.40,-5.28,-5.36,-5.58,5.84,5.84,5.71
41.35,11.10,5.44,11.10,5.41,-5.31,-5.33,-5.49,5.79,5.79,5.66
41.76,11.08,5.36,11.08,5.36,-5.31,-5.30,-5.41,5.77,5.77,5.73
42.18,11.07,5.27,11.07,5.30,-5.28,-5.26,-5.33,5.79,5.79,5.80
42.60,11.05,5.22,11.05,5.25,-5.24,-5.23,-5.25,5.81,5.81,5.83
43.03,11.03,5.27,11.03,5.22,-5.22,-5.20,-5.18,5.81,5.81,5.76
43.46,11.01,5.21,11.01,5.22,-5.25,-5.17,-5.11,5.77,5.77,5.81
43.90,10.99,5.17,10.99,5.17,-5.32,-5.13,-5.05,5.67,5.67,5.82
44.33,10.97,5.21,10.97,5.11,-5.40,-5.10,-4.99,5.57,5.57,5.76
44.78,10.94,5.13,10.94,5.28,-5.46,-5.06,-4.93,5.48,5.48,5.81
45.23,10.91,5.42,10.91,5.60,-5.49,-5.03,-4.88,5.42,5.42,5.49
45.68,10.88,6.09,10.88,5.86,-5.50,-5.00,-4.83,5.38,5.38,4.78
46.13,10.84,6.02,10.84,5.84,-5.48,-4.96,-4.79,5.36,5.36,4.82
46.60,10.81,5.54,10.81,5.58,-5.43,-4.92,-4.74,5.38,5.38,5.27
47.06,10.78,4.95,10.78,5.20,-5.35,-4.89,-4.70,5.43,5.43,5.83
47.53,10.74,5.05,10.74,4.99,-5.24,-4.85,-4.67,5.51,5.51,5.70
48.01,10.71,5.02,10.71,4.93,-5.09,-4.82,-4.64,5.62,5.62,5.69
48.49,10.67,4.91,10.67,4.92,-4.93,-4.78,-4.61,5.74,5.74,5.76
48.97,10.64,4.80,10.64,4.83,-4.80,-4.74,-4.58,5.83,5.83,5.83
49.46,10.60,4.75,10.60,4.75,-4.73,-4.71,-4.56,5.87,5.87,5.85
49.96,10.56,4.71,10.56,4.70,-4.69,-4.67,-4.54,5.87,5.87,5.85
50.46,10.52,4.67,10.52,4.67,-4.67,-4.63,-4.52,5.85,5.85,5.85
50.96,10.47,4.63,10.47,4.62,-4.63,-4.60,-4.51,5.84,5.84,5.85
51.47,10.43,4.58,10.43,4.58,-4.58,-4.56,-4.50,5.85,5.85,5.85
51.99,10.38,4.54,10.38,4.54,-4.52,-4.52,-4.48,5.87,5.87,5.85
52.51,10.34,4.49,10.34,4.48,-4.45,-4.48,-4.48,5.89,5.89,5.85
53.03,10.29,4.41,10.29,4.41,-4.38,-4.45,-4.47,5.92,5.92,5.88
53.56,10.25,4.30,10.25,4.33,-4.29,-4.41,-4.46,5.96,5.96,5.95
54.10,10.20,4.25,10.20,4.22,-4.21,-4.37,-4.45,5.99,5.99,5.95
54.64,10.16,4.12,10.16,4.10,-4.13,-4.33,-4.45,6.03,6.03,6.03
55.18,10.11,3.96,10.11,4.00,-4.05,-4.29,-4.44,6.06,6.06,6.15
55.74,10.06,3.91,10.06,3.93,-3.98,-4.26,-4.43,6.09,6.09,6.15
56.29,10.01,3.91,10.01,3.90,-3.91,-4.22,-4.43,6.10,6.10,6.10
56.86,9.96,3.92,9.96,3.90,-3.86,-4.18,-4.42,6.10,6.10,6.05
57.42,9.91,3.86,9.91,3.87,-3.82,-4.14,-4.41,6.09,6.09,6.05
58.00,9.86,3.81,9.86,3.80,-3.80,-4.11,-4.40,6.06,6.06,6.05
58.58,9.81,3.76,9.81,3.76,-3.78,-4.07,-4.38,6.03,6.03,6.05
59.16,9.76,3.71,9.76,3.75,-3.78,-4.03,-4.37,5.98,5.98,6.05
59.76,9.71,3.78,9.71,3.76,-3.78,-3.99,-4.35,5.93,5.93,5.93
60.35,9.66,3.81,9.66,3.77,-3.79,-3.96,-4.33,5.87,5.87,5.85
60.96,9.61,3.76,9.61,3.79,-3.80,-3.92,-4.31,5.81,5.81,5.85
61.57,9.56,3.78,9.56,3.81,-3.81,-3.88,-4.28,5.75,5.75,5.78
62.18,9.51,3.84,9.51,3.84,-3.83,-3.85,-4.25,5.68,5.68,5.66
62.80,9.46,3.91,9.46,3.87,-3.84,-3.81,-4.22,5.62,5.62,5.55
63.43,9.41,3.86,9.41,3.86,-3.83,-3.77,-4.18,5.58,5.58,5.55
64.07,9.35,3.80,9.35,3.83,-3.81,-3.74,-4.15,5.55,5.55,5.55
64.71,9.30,3.77,9.30,3.79,-3.78,-3.70,-4.10,5.52,5.52,5.54
65.35,9.25,3.79,9.25,3.75,-3.74,-3.67,-4.06,5.51,5.51,5.47
66.01,9.20,3.70,9.20,3.69,-3.70,-3.63,-4.01,5.50,5.50,5.50
66.67,9.15,3.60,9.15,3.62,-3.65,-3.60,-3.96,5.50,5.50,5.55
67.33,9.09,3.55,9.09,3.57,-3.60,-3.56,-3.90,5.50,5.50,5.55
68.01,9.04,3.55,9.04,3.54,-3.55,-3.53,-3.85,5.49,5.49,5.49
68.69,8.98,3.53,8.98,3.52,-3.49,-3.49,-3.79,5.49,5.49,5.45
69.37,8.93,3.48,8.93,3.48,-3.44,-3.46,-3.73,5.48,5.48,5.45
70.07,8.87,3.42,8.87,3.43,-3.40,-3.43,-3.67,5.47,5.47,5.45
70.77,8.82,3.37,8.82,3.37,-3.38,-3.39,-3.61,5.44,5.44,5.45
71.48,8.77,3.32,8.77,3.31,-3.37,-3.36,-3.54,5.40,5.40,5.45
72.19,8.72,3.27,8.72,3.28,-3.36,-3.33,-3.48,5.36,5.36,5.45
72.91,8.67,3.26,8.67,3.29,-3.34,-3.30,-3.41,5.33,5.33,5.41
73.64,8.62,3.30,8.62,3.32,-3.31,-3.27,-3.35,5.31,5.31,5.32
74.38,8.58,3.39,8.58,3.34,-3.26,-3.23,-3.28,5.31,5.31,5.19
75.12,8.53,3.33,8.53,3.32,-3.19,-3.20,-3.21,5.33,5.33,5.20
75.87,8.47,3.21,8.47,3.22,-3.11,-3.17,-3.15,5.37,5.36,5.27
76.63,8.42,3.08,8.42,3.07,-3.01,-3.14,-3.09,5.40,5.40,5.33
77.40,8.36,2.90,8.36,2.89,-2.92,-3.12,-3.02,5.43,5.43,5.46
78.17,8.30,2.73,8.30,2.73,-2.84,-3.09,-2.96,5.45,5.45,5.57
78.95,8.24,2.60,8.24,2.62,-2.78,-3.06,-2.90,5.46,5.46,5.64
79.74,8.18,2.59,8.18,2.61,-2.72,-3.03,-2.84,5.46,5.46,5.59
80.54,8.12,2.66,8.12,2.68,-2.68,-3.00,-2.78,5.44,5.44,5.46
81.35,8.06,2.80,8.06,2.76,-2.67,-2.98,-2.72,5.40,5.40,5.26
82.16,8.00,2.82,8.00,2.81,-2.67,-2.95,-2.66,5.33,5.33,5.19
82.98,7.94,2.79,7.94,2.79,-2.70,-2.92,-2.61,5.24,5.24,5.15
83.81,7.88,2.73,7.88,2.72,-2.74,-2.89,-2.56,5.14,5.14,5.15
84.65,7.81,2.66,7.81,2.67,-2.78,-2.87,-2.51,5.03,5.03,5.15
85.50,7.74,2.67,7.74,2.70,-2.81,-2.84,-2.46,4.93,4.93,5.07
86.35,7.66,2.76,7.66,2.79,-2.85,-2.81,-2.41,4.82,4.82,4.90
87.22,7.59,2.95,7.59,2.90,-2.88,-2.79,-2.36,4.70,4.70,4.64
88.09,7.51,3.01,7.51,2.99,-2.92,-2.76,-2.32,4.59,4.59,4.50
88.97,7.43,3.01,7.43,3.02,-2.95,-2.73,-2.28,4.49,4.49,4.43
89.86,7.36,3.00,7.36,3.02,-2.97,-2.71,-2.24,4.40,4.40,4.36
90.76,7.30,3.01,7.30,3.01,-2.97,-2.68,-2.20,4.32,4.32,4.29
91.66,7.24,2.99,7.24,2.97,-2.97,-2.65,-2.16,4.27,4.27,4.25
92.58,7.18,2.93,7.18,2.90,-2.95,-2.62,-2.13,4.23,4.23,4.25
93.51,7.11,2.80,7.11,2.83,-2.92,-2.59,-2.09,4.20,4.19,4.31
94.44,7.05,2.76,7.05,2.81,-2.88,-2.56,-2.06,4.17,4.17,4.29
95.39,6.99,2.84,6.99,2.84,-2.83,-2.53,-2.03,4.15,4.15,4.15
96.34,6.93,2.91,6.93,2.86,-2.78,-2.50,-2.00,4.15,4.15,4.01
97.30,6.87,2.84,6.87,2.80,-2.71,-2.46,-1.97,4.15,4.15,4.02
98.28,6.80,2.65,6.80,2.68,-2.65,-2.43,-1.94,4.16,4.16,4.15
99.26,6.73,2.50,6.73,2.55,-2.58,-2.39,-1.92,4.15,4.15,4.22
100.25,6.64,2.44,6.64,2.43,-2.49,-2.35,-1.89,4.15,4.15,4.20
101.25,6.55,2.38,6.55,2.34,-2.38,-2.31,-1.87,4.17,4.17,4.16
102.27,6.44,2.23,6.44,2.24,-2.24,-2.27,-1.85,4.19,4.19,4.21
103.29,6.33,2.11,6.33,2.16,-2.10,-2.23,-1.82,4.23,4.23,4.22
104.32,6.22,2.08,6.22,2.08,-1.98,-2.18,-1.80,4.24,4.24,4.13
105.37,6.11,2.03,6.11,1.96,-1.89,-2.14,-1.78,4.22,4.22,4.08
106.42,6.00,1.82,6.00,1.76,-1.82,-2.09,-1.76,4.18,4.18,4.18
107.48,5.89,1.54,5.89,1.60,-1.77,-2.04,-1.74,4.12,4.12,4.35
108.56,5.78,1.43,5.78,1.57,-1.73,-1.98,-1.72,4.05,4.05,4.35
109.64,5.68,1.71,5.68,1.64,-1.71,-1.93,-1.69,3.96,3.96,3.96
110.74,5.57,1.86,5.57,1.78,-1.70,-1.87,-1.67,3.87,3.87,3.71
111.85,5.47,1.81,5.47,1.85,-1.70,-1.81,-1.65,3.77,3.77,3.66
112.97,5.37,1.82,5.37,1.80,-1.71,-1.75,-1.63,3.66,3.66,3.55
114.10,5.28,1.73,5.28,1.72,-1.72,-1.69,-1.60,3.56,3.56,3.55
115.24,5.18,1.64,5.18,1.67,-1.70,-1.62,-1.57,3.48,3.48,3.54
116.39,5.09,1.61,5.09,1.62,-1.65,-1.56,-1.55,3.43,3.43,3.48
117.55,4.99,1.60,4.99,1.58,-1.59,-1.49,-1.52,3.41,3.40,3.39
118.73,4.89,1.54,4.89,1.53,-1.51,-1.42,-1.49,3.38,3.38,3.35
119.92,4.79,1.44,4.79,1.44,-1.44,-1.35,-1.45,3.34,3.34,3.35
121.12,4.68,1.34,4.68,1.34,-1.38,-1.27,-1.42,3.31,3.31,3.35
122.33,4.58,1.25,4.58,1.27,-1.30,-1.20,-1.38,3.28,3.28,3.33
123.55,4.47,1.20,4.47,1.22,-1.20,-1.12,-1.35,3.27,3.27,3.27
124.79,4.36,1.19,4.36,1.15,-1.09,-1.05,-1.30,3.27,3.27,3.17
126.03,4.26,1.06,4.26,1.05,-0.98,-0.97,-1.26,3.28,3.28,3.20
127.29,4.15,0.89,4.15,0.89,-0.86,-0.89,-1.21,3.29,3.29,3.26
128.57,4.04,0.71,4.04,0.72,-0.74,-0.81,-1.17,3.30,3.30,3.33
129.85,3.93,0.58,3.93,0.58,-0.63,-0.73,-1.12,3.29,3.30,3.35
131.15,3.82,0.47,3.82,0.49,-0.53,-0.65,-1.06,3.28,3.28,3.34
132.46,3.70,0.42,3.70,0.42,-0.45,-0.57,-1.01,3.25,3.25,3.28
133.79,3.58,0.37,3.58,0.36,-0.39,-0.49,-0.95,3.19,3.19,3.21
135.12,3.46,0.32,3.46,0.31,-0.35,-0.41,-0.89,3.12,3.12,3.14
136.48,3.34,0.27,3.35,0.31,-0.32,-0.33,-0.83,3.02,3.02,3.08
137.84,3.23,0.31,3.23,0.31,-0.30,-0.25,-0.76,2.93,2.93,2.92
139.22,3.12,0.37,3.12,0.31,-0.27,-0.17,-0.70,2.84,2.84,2.75
140.61,3.00,0.25,3.00,0.28,-0.22,-0.09,-0.63,2.78,2.78,2.75
142.02,2.89,0.19,2.89,0.22,-0.16,-0.01,-0.56,2.73,2.73,2.70
143.44,2.78,0.13,2.78,0.11,-0.09,0.07,-0.49,2.69,2.69,2.65
144.87,2.67,0.02,2.67,-0.00,0.00,0.15,-0.42,2.67,2.67,2.65
146.32,2.56,-0.15,2.56,-0.14,0.11,0.23,-0.34,2.67,2.67,2.72
147.78,2.45,-0.30,2.45,-0.27,0.23,0.31,-0.27,2.68,2.68,2.75
149.26,2.35,-0.39,2.35,-0.37,0.35,0.38,-0.19,2.70,2.70,2.74
150.75,2.24,-0.42,2.24,-0.46,0.48,0.46,-0.11,2.72,2.72,2.66
152.26,2.14,-0.56,2.14,-0.57,0.60,0.54,-0.03,2.73,2.73,2.69
153.78,2.03,-0.71,2.03,-0.69,0.72,0.62,0.05,2.75,2.75,2.74
155.32,1.92,-0.83,1.92,-0.83,0.83,0.69,0.13,2.75,2.75,2.75
156.88,1.81,-0.94,1.81,-0.95,0.93,0.77,0.21,2.74,2.74,2.75
158.44,1.70,-1.05,1.70,-1.05,1.03,0.84,0.30,2.73,2.73,2.75
160.03,1.59,-1.15,1.60,-1.14,1.11,0.91,0.38,2.71,2.71,2.75
161.63,1.49,-1.21,1.49,-1.21,1.18,0.99,0.47,2.67,2.67,2.69
163.24,1.38,-1.25,1.38,-1.25,1.24,1.06,0.56,2.62,2.62,2.64
164.88,1.28,-1.28,1.28,-1.29,1.28,1.13,0.65,2.56,2.56,2.56
166.53,1.18,-1.32,1.18,-1.32,1.32,1.20,0.74,2.50,2.50,2.50
168.19,1.08,-1.36,1.08,-1.35,1.36,1.27,0.83,2.43,2.43,2.44
169.87,0.98,-1.38,0.98,-1.37,1.40,1.34,0.92,2.38,2.38,2.36
171.57,0.88,-1.39,0.88,-1.41,1.45,1.41,1.01,2.33,2.33,2.27
173.29,0.78,-1.47,0.78,-1.48,1.51,1.48,1.10,2.28,2.28,2.25
175.02,0.68,-1.57,0.68,-1.56,1.57,1.54,1.20,2.25,2.25,2.25
176.77,0.58,-1.67,0.58,-1.65,1.64,1.61,1.29,2.22,2.22,2.25
178.54,0.48,-1.72,0.48,-1.72,1.71,1.67,1.39,2.19,2.19,2.20
180.32,0.38,-1.77,0.38,-1.79,1.77,1.74,1.49,2.15,2.15,2.15
182.13,0.28,-1.87,0.28,-1.85,1.83,1.80,1.59,2.12,2.12,2.15
183.95,0.19,-1.92,0.19,-1.90,1.89,1.87,1.69,2.08,2.08,2.10
185.79,0.09,-1.93,0.09,-1.94,1.94,1.93,1.79,2.03,2.03,2.02
187.65,-0.01,-1.97,-0.01,-1.96,1.98,1.99,1.89,1.97,1.97,1.96
189.52,-0.10,-2.00,-0.10,-2.00,2.02,2.05,1.99,1.92,1.92,1.90
191.42,-0.19,-2.04,-0.19,-2.06,2.05,2.11,2.10,1.86,1.86,1.85
193.33,-0.28,-2.13,-0.28,-2.10,2.09,2.17,2.20,1.81,1.81,1.85
195.27,-0.37,-2.15,-0.37,-2.14,2.13,2.22,2.31,1.77,1.77,1.79
197.22,-0.45,-2.16,-0.45,-2.17,2.18,2.28,2.41,1.73,1.73,1.71
199.19,-0.54,-2.19,-0.54,-2.21,2.23,2.34,2.52,1.69,1.69,1.65
201.18,-0.62,-2.27,-0.63,-2.28,2.28,2.39,2.62,1.65,1.65,1.65
203.19,-0.71,-2.36,-0.71,-2.35,2.34,2.45,2.73,1.63,1.63,1.65
205.23,-0.80,-2.44,-0.80,-2.42,2.41,2.50,2.83,1.61,1.61,1.64
207.28,-0.89,-2.46,-0.89,-2.47,2.49,2.55,2.94,1.60,1.60,1.57
209.35,-0.97,-2.52,-0.97,-2.54,2.58,2.60,3.04,1.61,1.61,1.55
211.44,-1.05,-2.62,-1.05,-2.63,2.67,2.65,3.14,1.61,1.61,1.56
213.56,-1.14,-2.77,-1.14,-2.75,2.76,2.70,3.24,1.62,1.62,1.63
215.69,-1.21,-2.86,-1.21,-2.86,2.83,2.75,3.34,1.62,1.62,1.65
217.85,-1.29,-2.94,-1.29,-2.95,2.90,2.80,3.44,1.61,1.61,1.65
220.03,-1.37,-3.01,-1.37,-3.00,2.96,2.84,3.53,1.59,1.59,1.65
222.23,-1.44,-3.03,-1.44,-3.03,3.01,2.89,3.62,1.58,1.57,1.59
224.45,-1.51,-3.04,-1.51,-3.04,3.05,2.93,3.71,1.54,1.54,1.53
226.70,-1.58,-3.04,-1.58,-3.04,3.08,2.98,3.78,1.50,1.50,1.46
228.96,-1.65,-3.03,-1.65,-3.05,3.08,3.02,3.86,1.43,1.43,1.38
231.25,-1.72,-3.07,-1.72,-3.09,3.08,3.06,3.93,1.36,1.36,1.35
233.57,-1.79,-3.14,-1.79,-3.12,3.07,3.10,4.00,1.29,1.29,1.35
235.90,-1.85,-3.14,-1.85,-3.12,3.07,3.14,4.05,1.22,1.22,1.29
238.26,-1.92,-3.08,-1.92,-3.08,3.07,3.17,4.10,1.16,1.16,1.16
240.64,-1.98,-3.02,-1.98,-3.04,3.08,3.21,4.15,1.10,1.10,1.03
243.05,-2.05,-3.02,-2.05,-3.03,3.09,3.24,4.18,1.04,1.04,0.97
245.48,-2.11,-3.06,-2.11,-3.06,3.10,3.28,4.21,0.99,0.98,0.95
247.93,-2.18,-3.12,-2.18,-3.12,3.10,3.31,4.23,0.93,0.93,0.95
250.41,-2.24,-3.19,-2.24,-3.17,3.12,3.34,4.24,0.88,0.88,0.95
252.92,-2.30,-3.20,-2.30,-3.19,3.14,3.37,4.25,0.84,0.84,0.90
255.45,-2.36,-3.19,-2.36,-3.19,3.18,3.39,4.24,0.82,0.82,0.83
258.00,-2.41,-3.16,-2.41,-3.18,3.23,3.42,4.23,0.82,0.82,0.75
260.58,-2.47,-3.22,-2.47,-3.23,3.29,3.44,4.21,0.82,0.82,0.75
263.19,-2.52,-3.30,-2.52,-3.30,3.35,3.47,4.18,0.83,0.83,0.78
265.82,-2.57,-3.42,-2.57,-3.39,3.41,3.49,4.15,0.83,0.83,0.84
268.48,-2.62,-3.47,-2.62,-3.49,3.46,3.51,4.11,0.84,0.84,0.85
271.16,-2.68,-3.55,-2.68,-3.58,3.52,3.53,4.06,0.84,0.84,0.88
273.87,-2.73,-3.67,-2.73,-3.63,3.57,3.54,4.01,0.85,0.85,0.95
276.61,-2.78,-3.66,-2.77,-3.65,3.62,3.56,3.95,0.84,0.84,0.88
279.38,-2.82,-3.64,-2.82,-3.65,3.65,3.57,3.89,0.83,0.83,0.81
282.17,-2.86,-3.61,-2.86,-3.63,3.68,3.58,3.82,0.82,0.82,0.75
284.99,-2.90,-3.65,-2.90,-3.65,3.69,3.59,3.75,0.79,0.79,0.75
287.84,-2.94,-3.69,-2.94,-3.69,3.71,3.60,3.68,0.76,0.76,0.75
290.72,-2.98,-3.73,-2.98,-3.73,3.72,3.60,3.60,0.73,0.73,0.75
293.63,-3.02,-3.77,-3.02,-3.75,3.73,3.61,3.52,0.71,0.71,0.75
296.57,-3.06,-3.74,-3.06,-3.76,3.74,3.61,3.44,0.68,0.68,0.68
299.53,-3.09,-3.74,-3.09,-3.76,3.75,3.61,3.36,0.66,0.66,0.65
302.53,-3.12,-3.77,-3.12,-3.75,3.75,3.61,3.28,0.63,0.63,0.65
305.55,-3.16,-3.74,-3.16,-3.75,3.75,3.60,3.20,0.60,0.60,0.59
308.61,-3.18,-3.73,-3.18,-3.75,3.75,3.60,3.12,0.56,0.56,0.55
311.69,-3.21,-3.76,-3.21,-3.73,3.74,3.59,3.03,0.53,0.53,0.55
314.81,-3.24,-3.72,-3.24,-3.73,3.74,3.58,2.95,0.50,0.50,0.48
317.96,-3.26,-3.71,-3.26,-3.73,3.74,3.57,2.87,0.48,0.48,0.45
321.14,-3.28,-3.73,-3.28,-3.72,3.73,3.55,2.79,0.45,0.45,0.45
324.35,-3.30,-3.74,-3.29,-3.72,3.71,3.53,2.71,0.42,0.42,0.45
327.59,-3.31,-3.71,-3.31,-3.72,3.69,3.52,2.63,0.38,0.38,0.40
330.87,-3.32,-3.67,-3.32,-3.70,3.67,3.50,2.55,0.34,0.34,0.35
334.18,-3.34,-3.69,-3.34,-3.64,3.63,3.47,2.48,0.30,0.30,0.35
337.52,-3.35,-3.60,-3.35,-3.60,3.59,3.45,2.40,0.25,0.25,0.25
340.90,-3.36,-3.51,-3.36,-3.55,3.56,3.42,2.33,0.20,0.20,0.15
344.30,-3.37,-3.52,-3.37,-3.49,3.52,3.39,2.26,0.16,0.16,0.15
347.75,-3.37,-3.47,-3.37,-3.46,3.49,3.36,2.19,0.12,0.12,0.09
351.23,-3.38,-3.43,-3.38,-3.45,3.47,3.33,2.12,0.09,0.09,0.05
354.74,-3.38,-3.43,-3.38,-3.43,3.45,3.29,2.05,0.07,0.07,0.05
358.28,-3.38,-3.43,-3.38,-3.43,3.43,3.25,1.99,0.05,0.05,0.05
361.87,-3.37,-3.42,-3.37,-3.42,3.39,3.21,1.92,0.02,0.02,0.05
365.49,-3.36,-3.40,-3.36,-3.39,3.35,3.17,1.86,-0.01,-0.01,0.04
369.14,-3.35,-3.33,-3.35,-3.33,3.29,3.12,1.80,-0.06,-0.06,-0.02
372.83,-3.33,-3.25,-3.33,-3.25,3.21,3.08,1.74,-0.12,-0.12,-0.09
376.56,-3.32,-3.15,-3.32,-3.13,3.13,3.03,1.69,-0.19,-0.19,-0.17
380.33,-3.30,-3.01,-3.30,-3.02,3.03,2.98,1.63,-0.27,-0.27,-0.30
384.13,-3.29,-2.89,-3.29,-2.90,2.94,2.92,1.58,-0.35,-0.35,-0.39
387.97,-3.27,-2.80,-3.27,-2.80,2.84,2.87,1.53,-0.43,-0.43,-0.47
391.85,-3.25,-2.72,-3.25,-2.73,2.75,2.81,1.47,-0.50,-0.50,-0.53
395.77,-3.23,-2.68,-3.23,-2.67,2.66,2.75,1.43,-0.57,-0.56,-0.55
399.73,-3.20,-2.62,-3.20,-2.60,2.58,2.69,1.38,-0.62,-0.62,-0.58
403.72,-3.17,-2.52,-3.17,-2.55,2.52,2.63,1.33,-0.65,-0.65,-0.65
407.76,-3.13,-2.48,-3.13,-2.47,2.46,2.56,1.29,-0.67,-0.67,-0.65
411.84,-3.10,-2.41,-3.10,-2.39,2.42,2.49,1.24,-0.68,-0.68,-0.68
415.96,-3.06,-2.31,-3.06,-2.33,2.37,2.42,1.20,-0.69,-0.69,-0.75
420.12,-3.02,-2.27,-3.03,-2.29,2.34,2.35,1.16,-0.69,-0.69,-0.75
424.32,-2.99,-2.28,-2.99,-2.28,2.30,2.28,1.12,-0.69,-0.69,-0.71
428.56,-2.95,-2.30,-2.95,-2.28,2.25,2.21,1.08,-0.69,-0.70,-0.65
432.85,-2.91,-2.26,-2.91,-2.24,2.20,2.13,1.04,-0.71,-0.71,-0.65
437.18,-2.86,-2.17,-2.86,-2.18,2.14,2.05,1.01,-0.73,-0.72,-0.70
441.55,-2.81,-2.06,-2.81,-2.09,2.06,1.98,0.97,-0.76,-0.76,-0.75
445.96,-2.76,-2.01,-2.76,-1.98,1.96,1.90,0.94,-0.80,-0.80,-0.75
450.42,-2.71,-1.86,-2.71,-1.85,1.84,1.81,0.90,-0.86,-0.86,-0.85
454.93,-2.65,-1.69,-2.65,-1.71,1.72,1.73,0.87,-0.94,-0.94,-0.97
459.48,-2.60,-1.55,-2.60,-1.56,1.58,1.65,0.84,-1.02,-1.02,-1.04
464.07,-2.54,-1.43,-2.54,-1.43,1.45,1.56,0.81,-1.10,-1.10,-1.11
468.71,-2.48,-1.31,-2.48,-1.31,1.31,1.48,0.78,-1.17,-1.17,-1.18
473.40,-2.43,-1.19,-2.43,-1.18,1.19,1.39,0.75,-1.24,-1.24,-1.24
478.13,-2.37,-1.06,-2.37,-1.07,1.07,1.30,0.72,-1.30,-1.30,-1.31
482.91,-2.31,-0.96,-2.31,-0.97,0.97,1.22,0.69,-1.34,-1.34,-1.35
487.74,-2.25,-0.90,-2.25,-0.87,0.87,1.13,0.67,-1.38,-1.38,-1.35
492.62,-2.19,-0.77,-2.19,-0.78,0.78,1.04,0.64,-1.41,-1.41,-1.42
497.55,-2.13,-0.68,-2.13,-0.69,0.70,0.95,0.62,-1.43,-1.43,-1.45
502.52,-2.07,-0.62,-2.07,-0.61,0.62,0.86,0.59,-1.45,-1.45,-1.45
507.55,-2.00,-0.55,-2.00,-0.55,0.55,0.77,0.57,-1.46,-1.46,-1.45
512.62,-1.93,-0.48,-1.93,-0.48,0.47,0.69,0.54,-1.46,-1.46,-1.45
