frequency,raw,error,smoothed,error_smoothed,equalization,parametric_eq,fixed_band_eq,equalized_raw,equalized_smoothed,target
20.00,12.21,3.95,12.21,3.95,-3.95,-3.87,-1.98,8.26,8.26,8.26
20.20,12.22,3.96,12.22,3.96,-3.96,-3.89,-2.04,8.26,8.26,8.26
20.40,12.22,3.96,12.22,3.96,-3.96,-3.91,-2.10,8.26,8.26,8.26
20.61,12.22,3.97,12.23,3.97,-3.97,-3.94,-2.16,8.25,8.25,8.26
20.81,12.23,3.98,12.23,3.98,-3.98,-3.96,-2.22,8.25,8.25,8.26
21.02,12.24,3.99,12.24,3.99,-3.99,-3.98,-2.29,8.25,8.25,8.25
21.23,12.25,4.00,12.25,4.00,-4.00,-4.00,-2.35,8.25,8.25,8.25
21.44,12.26,4.02,12.26,4.02,-4.02,-4.03,-2.42,8.24,8.24,8.24
21.66,12.27,4.04,12.27,4.04,-4.04,-4.05,-2.49,8.24,8.24,8.24
21.87,12.28,4.05,12.28,4.05,-4.06,-4.07,-2.56,8.23,8.23,8.23
22.09,12.29,4.07,12.29,4.07,-4.08,-4.09,-2.63,8.22,8.22,8.22
22.31,12.31,4.10,12.31,4.10,-4.10,-4.11,-2.71,8.21,8.21,8.21
22.54,12.32,4.12,12.32,4.12,-4.12,-4.14,-2.78,8.20,8.20,8.20
22.76,12.33,4.14,12.33,4.14,-4.14,-4.16,-2.86,8.19,8.19,8.19
22.99,12.34,4.16,12.34,4.16,-4.16,-4.18,-2.95,8.18,8.18,8.18
23.22,12.35,4.18,12.35,4.18,-4.18,-4.20,-3.03,8.17,8.17,8.17
23.45,12.36,4.20,12.36,4.20,-4.20,-4.22,-3.11,8.16,8.16,8.16
23.69,12.37,4.22,12.37,4.22,-4.22,-4.24,-3.20,8.15,8.15,8.15
23.92,12.38,4.23,12.38,4.23,-4.23,-4.26,-3.29,8.15,8.15,8.15
24.16,12.39,4.25,12.39,4.25,-4.25,-4.28,-3.38,8.14,8.14,8.14
24.40,12.39,4.26,12.39,4.26,-4.27,-4.30,-3.47,8.13,8.13,8.13
24.65,12.40,4.28,12.40,4.28,-4.29,-4.32,-3.56,8.12,8.11,8.12
24.89,12.41,4.30,12.41,4.30,-4.30,-4.34,-3.66,8.10,8.10,8.11
25.14,12.41,4.32,12.41,4.32,-4.33,-4.36,-3.75,8.09,8.09,8.09
25.39,12.42,4.35,12.42,4.35,-4.35,-4.38,-3.85,8.08,8.08,8.08
25.65,12.43,4.37,12.43,4.37,-4.37,-4.40,-3.94,8.06,8.06,8.06
25.91,12.44,4.39,12.44,4.39,-4.39,-4.42,-4.04,8.05,8.05,8.04
26.16,12.44,4.41,12.44,4.41,-4.41,-4.43,-4.13,8.03,8.03,8.03
26.43,12.45,4.43,12.45,4.43,-4.42,-4.45,-4.23,8.02,8.02,8.02
26.69,12.45,4.44,12.45,4.44,-4.44,-4.47,-4.33,8.01,8.01,8.01
26.96,12.46,4.46,12.46,4.46,-4.46,-4.49,-4.42,8.00,8.00,8.00
27.23,12.46,4.47,12.46,4.47,-4.47,-4.51,-4.51,7.99,7.99,7.99
27.50,12.47,4.48,12.47,4.48,-4.49,-4.52,-4.60,7.98,7.98,7.98
27.77,12.47,4.50,12.47,4.50,-4.50,-4.54,-4.69,7.97,7.97,7.97
28.05,12.47,4.51,12.47,4.51,-4.52,-4.56,-4.78,7.96,7.96,7.96
28.33,12.48,4.53,12.48,4.53,-4.53,-4.57,-4.86,7.95,7.95,7.95
28.62,12.48,4.55,12.48,4.55,-4.54,-4.59,-4.94,7.93,7.93,7.93
28.90,12.48,4.56,12.48,4.56,-4.56,-4.61,-5.01,7.92,7.92,7.92
29.19,12.48,4.58,12.48,4.58,-4.57,-4.62,-5.08,7.91,7.91,7.91
29.48,12.48,4.59,12.48,4.59,-4.59,-4.64,-5.14,7.90,7.90,7.89
29.78,12.49,4.60,12.49,4.60,-4.60,-4.66,-5.20,7.89,7.89,7.89
30.08,12.49,4.61,12.49,4.61,-4.62,-4.67,-5.26,7.88,7.88,7.88
30.38,12.49,4.63,12.49,4.63,-4.63,-4.69,-5.30,7.86,7.86,7.87
30.68,12.49,4.64,12.49,4.64,-4.64,-4.70,-5.34,7.85,7.85,7.85
30.99,12.49,4.66,12.49,4.66,-4.66,-4.72,-5.38,7.84,7.84,7.84
31.30,12.49,4.67,12.49,4.67,-4.67,-4.73,-5.40,7.82,7.82,7.82
31.61,12.49,4.69,12.49,4.69,-4.69,-4.75,-5.43,7.80,7.80,7.80
31.93,12.49,4.71,12.49,4.71,-4.71,-4.76,-5.44,7.79,7.79,7.79
32.24,12.49,4.73,12.49,4.73,-4.72,-4.78,-5.45,7.77,7.77,7.77
32.57,12.50,4.74,12.50,4.74,-4.74,-4.79,-5.45,7.75,7.75,7.75
32.89,12.50,4.76,12.50,4.76,-4.76,-4.80,-5.45,7.74,7.74,7.74
33.22,12.50,4.78,12.50,4.78,-4.78,-4.82,-5.44,7.72,7.72,7.72
33.55,12.50,4.79,12.50,4.79,-4.80,-4.83,-5.42,7.70,7.70,7.70
33.89,12.49,4.81,12.50,4.81,-4.81,-4.85,-5.40,7.68,7.68,7.68
34.23,12.50,4.83,12.50,4.83,-4.83,-4.86,-5.38,7.66,7.66,7.67
34.57,12.50,4.85,12.50,4.85,-4.85,-4.87,-5.36,7.65,7.65,7.65
34.92,12.50,4.87,12.50,4.87,-4.87,-4.88,-5.33,7.63,7.63,7.63
35.27,12.50,4.88,12.50,4.88,-4.88,-4.90,-5.29,7.62,7.62,7.61
35.62,12.50,4.90,12.50,4.90,-4.90,-4.91,-5.26,7.60,7.60,7.60
35.97,12.49,4.92,12.49,4.92,-4.91,-4.92,-5.22,7.58,7.58,7.58
36.33,12.49,4.93,12.49,4.93,-4.93,-4.93,-5.19,7.56,7.56,7.56
36.70,12.48,4.94,12.48,4.94,-4.94,-4.95,-5.15,7.54,7.54,7.54
37.06,12.48,4.96,12.48,4.96,-4.96,-4.96,-5.11,7.52,7.52,7.52
37.43,12.47,4.97,12.47,4.97,-4.97,-4.97,-5.07,7.50,7.50,7.50
37.81,12.47,4.98,12.47,4.98,-4.98,-4.98,-5.04,7.49,7.49,7.49
38.19,12.46,5.00,12.46,5.00,-5.00,-4.99,-5.00,7.47,7.47,7.47
38.57,12.46,5.01,12.46,5.01,-5.01,-5.00,-4.97,7.45,7.45,7.45
38.95,12.45,5.02,12.45,5.02,-5.02,-5.01,-4.93,7.43,7.43,7.43
39.34,12.45,5.04,12.45,5.04,-5.04,-5.03,-4.90,7.41,7.41,7.41
39.74,12.44,5.05,12.44,5.05,-5.05,-5.04,-4.87,7.39,7.39,7.39
40.14,12.43,5.07,12.43,5.07,-5.07,-5.05,-4.85,7.37,7.37,7.37
40.54,12.43,5.08,12.43,5.08,-5.08,-5.06,-4.82,7.35,7.35,7.35
40.94,12.42,5.09,12.42,5.09,-5.09,-5.07,-4.80,7.33,7.33,7.33
41.35,12.41,5.11,12.41,5.11,-5.11,-5.08,-4.79,7.31,7.31,7.31
41.76,12.41,5.12,12.41,5.12,-5.12,-5.09,-4.77,7.29,7.29,7.29
42.18,12.40,5.13,12.40,5.13,-5.13,-5.10,-4.76,7.27,7.27,7.27
42.60,12.40,5.14,12.40,5.14,-5.14,-5.11,-4.75,7.26,7.26,7.26
43.03,12.39,5.15,12.39,5.15,-5.15,-5.12,-4.75,7.24,7.24,7.24
43.46,12.38,5.16,12.38,5.16,-5.16,-5.13,-4.75,7.22,7.22,7.22
43.90,12.37,5.17,12.37,5.17,-5.17,-5.14,-4.75,7.20,7.20,7.20
44.33,12.36,5.18,12.36,5.18,-5.18,-5.15,-4.76,7.18,7.18,7.18
44.78,12.35,5.20,12.35,5.20,-5.20,-5.16,-4.77,7.16,7.16,7.16
45.23,12.34,5.21,12.34,5.21,-5.21,-5.17,-4.78,7.14,7.14,7.14
45.68,12.34,5.22,12.34,5.22,-5.22,-5.17,-4.80,7.12,7.12,7.12
46.13,12.33,5.22,12.33,5.23,-5.23,-5.18,-4.82,7.10,7.10,7.10
46.60,12.32,5.23,12.32,5.23,-5.23,-5.19,-4.85,7.08,7.08,7.08
47.06,12.31,5.24,12.31,5.24,-5.24,-5.20,-4.87,7.06,7.06,7.07
47.53,12.30,5.25,12.30,5.25,-5.25,-5.21,-4.91,7.04,7.04,7.05
48.01,12.29,5.26,12.29,5.26,-5.26,-5.22,-4.94,7.02,7.02,7.03
48.49,12.28,5.27,12.28,5.27,-5.27,-5.23,-4.98,7.01,7.01,7.01
48.97,12.27,5.28,12.27,5.28,-5.28,-5.24,-5.02,6.99,6.99,6.98
49.46,12.25,5.29,12.25,5.29,-5.28,-5.25,-5.06,6.97,6.97,6.96
49.96,12.24,5.30,12.24,5.30,-5.28,-5.25,-5.11,6.96,6.96,6.94
50.46,12.23,5.30,12.23,5.29,-5.29,-5.26,-5.16,6.94,6.94,6.93
50.96,12.22,5.29,12.22,5.29,-5.29,-5.27,-5.21,6.92,6.92,6.93
51.47,12.20,5.29,12.20,5.29,-5.30,-5.28,-5.26,6.90,6.90,6.92
51.99,12.19,5.29,12.19,5.30,-5.31,-5.29,-5.31,6.88,6.88,6.90
52.51,12.18,5.32,12.18,5.32,-5.33,-5.30,-5.37,6.85,6.85,6.86
53.03,12.17,5.34,12.17,5.34,-5.34,-5.31,-5.42,6.83,6.83,6.82
53.56,12.15,5.37,12.15,5.37,-5.36,-5.32,-5.48,6.80,6.80,6.78
54.10,12.14,5.39,12.14,5.39,-5.38,-5.32,-5.53,6.76,6.76,6.75
54.64,12.13,5.40,12.13,5.40,-5.39,-5.33,-5.59,6.73,6.73,6.73
55.18,12.11,5.41,12.11,5.41,-5.41,-5.34,-5.64,6.70,6.70,6.70
55.74,12.10,5.42,12.10,5.42,-5.43,-5.35,-5.69,6.67,6.67,6.67
56.29,12.08,5.43,12.08,5.43,-5.44,-5.36,-5.74,6.64,6.64,6.65
56.86,12.06,5.45,12.06,5.45,-5.45,-5.37,-5.79,6.61,6.61,6.62
57.42,12.05,5.46,12.05,5.46,-5.46,-5.38,-5.84,6.59,6.59,6.59
58.00,12.03,5.47,12.03,5.47,-5.47,-5.39,-5.88,6.56,6.56,6.56
58.58,12.01,5.48,12.01,5.48,-5.47,-5.40,-5.91,6.54,6.54,6.54
59.16,12.00,5.48,12.00,5.48,-5.48,-5.41,-5.95,6.52,6.52,6.52
59.76,11.98,5.48,11.98,5.48,-5.48,-5.42,-5.98,6.50,6.50,6.50
60.35,11.96,5.48,11.96,5.48,-5.48,-5.43,-6.00,6.49,6.49,6.48
60.96,11.94,5.48,11.94,5.48,-5.47,-5.43,-6.02,6.47,6.47,6.47
61.57,11.93,5.47,11.93,5.47,-5.46,-5.44,-6.03,6.46,6.46,6.45
62.18,11.91,5.46,11.91,5.46,-5.46,-5.45,-6.04,6.45,6.45,6.44
62.80,11.89,5.45,11.89,5.45,-5.46,-5.46,-6.04,6.43,6.43,6.44
63.43,11.87,5.44,11.87,5.44,-5.46,-5.48,-6.04,6.41,6.41,6.43
64.07,11.85,5.45,11.85,5.45,-5.47,-5.49,-6.03,6.38,6.38,6.40
64.71,11.83,5.47,11.83,5.47,-5.48,-5.50,-6.01,6.35,6.35,6.36
65.35,11.81,5.50,11.81,5.50,-5.49,-5.51,-5.99,6.32,6.32,6.30
66.01,11.79,5.52,11.79,5.52,-5.50,-5.52,-5.97,6.28,6.28,6.26
66.67,11.76,5.53,11.76,5.53,-5.52,-5.53,-5.94,6.25,6.25,6.23
67.33,11.74,5.53,11.74,5.54,-5.53,-5.54,-5.91,6.21,6.21,6.21
68.01,11.72,5.54,11.72,5.54,-5.54,-5.55,-5.87,6.18,6.18,6.18
68.69,11.69,5.54,11.69,5.54,-5.54,-5.56,-5.83,6.15,6.15,6.16
69.37,11.67,5.54,11.67,5.54,-5.55,-5.57,-5.78,6.12,6.12,6.13
70.07,11.65,5.55,11.65,5.55,-5.55,-5.58,-5.74,6.10,6.10,6.10
70.77,11.62,5.55,11.62,5.55,-5.55,-5.59,-5.69,6.07,6.07,6.07
71.48,11.60,5.56,11.60,5.56,-5.56,-5.60,-5.64,6.04,6.04,6.04
72.19,11.57,5.56,11.57,5.56,-5.56,-5.61,-5.59,6.01,6.01,6.01
72.91,11.55,5.56,11.55,5.56,-5.56,-5.62,-5.54,5.98,5.98,5.98
73.64,11.52,5.56,11.52,5.57,-5.56,-5.62,-5.48,5.95,5.96,5.95
74.38,11.49,5.57,11.49,5.57,-5.56,-5.63,-5.43,5.93,5.93,5.93
75.12,11.47,5.56,11.47,5.56,-5.56,-5.64,-5.38,5.91,5.91,5.90
75.87,11.44,5.56,11.44,5.56,-5.55,-5.64,-5.33,5.89,5.89,5.88
76.63,11.41,5.55,11.41,5.55,-5.55,-5.65,-5.28,5.86,5.86,5.86
77.40,11.38,5.54,11.38,5.54,-5.54,-5.65,-5.24,5.84,5.84,5.84
78.17,11.35,5.53,11.35,5.53,-5.53,-5.66,-5.19,5.82,5.82,5.82
78.95,11.32,5.52,11.32,5.52,-5.53,-5.66,-5.15,5.79,5.79,5.80
79.74,11.30,5.52,11.30,5.52,-5.53,-5.66,-5.11,5.77,5.77,5.77
80.54,11.27,5.53,11.27,5.53,-5.53,-5.66,-5.08,5.74,5.74,5.74
81.35,11.25,5.54,11.25,5.54,-5.54,-5.66,-5.04,5.71,5.71,5.71
82.16,11.22,5.55,11.22,5.55,-5.55,-5.66,-5.02,5.67,5.67,5.67
82.98,11.20,5.57,11.20,5.57,-5.57,-5.65,-4.99,5.63,5.63,5.63
83.81,11.17,5.58,11.17,5.58,-5.58,-5.65,-4.96,5.59,5.59,5.59
84.65,11.15,5.60,11.15,5.60,-5.60,-5.64,-4.94,5.55,5.55,5.55
85.50,11.12,5.61,11.12,5.61,-5.61,-5.64,-4.93,5.51,5.51,5.51
86.35,11.10,5.62,11.10,5.62,-5.62,-5.63,-4.91,5.48,5.48,5.48
87.22,11.07,5.63,11.07,5.63,-5.63,-5.62,-4.91,5.45,5.45,5.44
88.09,11.05,5.63,11.05,5.63,-5.63,-5.61,-4.90,5.42,5.42,5.41
88.97,11.02,5.63,11.02,5.63,-5.63,-5.60,-4.90,5.39,5.39,5.39
89.86,10.99,5.63,10.99,5.63,-5.62,-5.59,-4.90,5.37,5.37,5.36
90.76,10.96,5.61,10.96,5.61,-5.62,-5.58,-4.91,5.34,5.34,5.35
91.66,10.93,5.60,10.93,5.60,-5.61,-5.57,-4.92,5.32,5.32,5.33
92.58,10.89,5.59,10.89,5.59,-5.60,-5.56,-4.93,5.30,5.30,5.30
93.51,10.86,5.58,10.86,5.58,-5.59,-5.55,-4.95,5.27,5.27,5.28
94.44,10.82,5.58,10.82,5.57,-5.58,-5.54,-4.97,5.25,5.25,5.25
95.39,10.79,5.57,10.79,5.57,-5.57,-5.53,-4.99,5.22,5.22,5.22
96.34,10.75,5.56,10.75,5.56,-5.56,-5.52,-5.02,5.19,5.19,5.19
97.30,10.72,5.55,10.72,5.55,-5.55,-5.51,-5.04,5.16,5.16,5.16
98.28,10.68,5.55,10.68,5.55,-5.55,-5.50,-5.08,5.13,5.13,5.13
99.26,10.64,5.54,10.64,5.54,-5.54,-5.49,-5.11,5.10,5.10,5.10
100.25,10.60,5.53,10.60,5.53,-5.53,-5.47,-5.15,5.07,5.07,5.07
101.25,10.56,5.52,10.56,5.52,-5.52,-5.46,-5.19,5.04,5.04,5.04
102.27,10.52,5.51,10.52,5.51,-5.52,-5.45,-5.23,5.00,5.00,5.01
103.29,10.48,5.51,10.48,5.51,-5.51,-5.44,-5.27,4.97,4.97,4.97
104.32,10.43,5.50,10.43,5.50,-5.50,-5.43,-5.32,4.93,4.93,4.93
105.37,10.39,5.49,10.39,5.49,-5.49,-5.42,-5.36,4.90,4.90,4.90
106.42,10.34,5.48,10.34,5.48,-5.48,-5.41,-5.41,4.87,4.87,4.87
107.48,10.30,5.46,10.30,5.46,-5.46,-5.40,-5.46,4.84,4.84,4.84
108.56,10.25,5.44,10.25,5.44,-5.45,-5.39,-5.50,4.81,4.81,4.81
109.64,10.20,5.42,10.20,5.42,-5.43,-5.38,-5.55,4.77,4.78,4.78
110.74,10.15,5.40,10.15,5.40,-5.40,-5.37,-5.59,4.75,4.74,4.75
111.85,10.10,5.38,10.09,5.38,-5.38,-5.36,-5.63,4.72,4.72,4.72
112.97,10.04,5.35,10.04,5.35,-5.35,-5.35,-5.67,4.69,4.69,4.68
114.10,9.98,5.33,9.98,5.33,-5.32,-5.34,-5.71,4.66,4.66,4.65
115.24,9.92,5.30,9.92,5.29,-5.29,-5.33,-5.74,4.63,4.63,4.62
116.39,9.86,5.26,9.86,5.26,-5.25,-5.32,-5.77,4.61,4.61,4.60
117.55,9.80,5.22,9.80,5.22,-5.22,-5.31,-5.80,4.58,4.58,4.58
118.73,9.74,5.18,9.74,5.18,-5.19,-5.30,-5.82,4.55,4.55,4.56
119.92,9.68,5.16,9.68,5.16,-5.17,-5.29,-5.83,4.51,4.51,4.53
121.12,9.63,5.14,9.63,5.14,-5.15,-5.28,-5.85,4.48,4.48,4.48
122.33,9.58,5.13,9.58,5.13,-5.14,-5.27,-5.85,4.44,4.44,4.45
123.55,9.54,5.13,9.54,5.13,-5.14,-5.26,-5.85,4.41,4.41,4.41
124.79,9.51,5.13,9.51,5.14,-5.14,-5.25,-5.84,4.37,4.37,4.38
126.03,9.49,5.15,9.49,5.15,-5.15,-5.24,-5.83,4.34,4.34,4.35
127.29,9.48,5.16,9.48,5.16,-5.16,-5.23,-5.81,4.32,4.32,4.32
128.57,9.48,5.18,9.48,5.18,-5.18,-5.22,-5.79,4.30,4.30,4.30
129.85,9.47,5.20,9.47,5.20,-5.20,-5.21,-5.75,4.28,4.28,4.27
131.15,9.47,5.22,9.46,5.21,-5.21,-5.20,-5.72,4.26,4.25,4.25
132.46,9.45,5.23,9.45,5.23,-5.22,-5.19,-5.68,4.23,4.23,4.22
133.79,9.43,5.23,9.43,5.23,-5.22,-5.18,-5.63,4.21,4.20,4.20
135.12,9.40,5.23,9.40,5.23,-5.22,-5.17,-5.58,4.17,4.17,4.17
136.48,9.36,5.22,9.36,5.22,-5.22,-5.15,-5.53,4.14,4.14,4.14
137.84,9.32,5.21,9.32,5.21,-5.21,-5.14,-5.47,4.11,4.11,4.11
139.22,9.28,5.20,9.28,5.20,-5.20,-5.13,-5.41,4.08,4.08,4.08
140.61,9.23,5.18,9.23,5.18,-5.19,-5.12,-5.34,4.05,4.05,4.05
142.02,9.19,5.17,9.19,5.17,-5.17,-5.10,-5.28,4.01,4.01,4.02
143.44,9.14,5.16,9.14,5.16,-5.16,-5.09,-5.21,3.98,3.98,3.98
144.87,9.10,5.14,9.10,5.14,-5.14,-5.08,-5.14,3.96,3.96,3.96
146.32,9.05,5.12,9.05,5.12,-5.13,-5.06,-5.07,3.93,3.93,3.93
147.78,9.01,5.11,9.01,5.11,-5.11,-5.05,-5.00,3.90,3.90,3.91
149.26,8.97,5.09,8.97,5.09,-5.09,-5.03,-4.93,3.88,3.88,3.88
150.75,8.94,5.07,8.94,5.07,-5.07,-5.02,-4.86,3.86,3.86,3.86
152.26,8.90,5.05,8.90,5.05,-5.05,-5.00,-4.79,3.84,3.84,3.84
153.78,8.86,5.03,8.86,5.03,-5.03,-4.99,-4.73,3.82,3.82,3.82
155.32,8.82,5.01,8.82,5.01,-5.01,-4.97,-4.66,3.81,3.81,3.81
156.88,8.78,4.98,8.78,4.98,-4.98,-4.95,-4.59,3.79,3.79,3.79
158.44,8.73,4.95,8.73,4.95,-4.95,-4.93,-4.53,3.78,3.78,3.78
160.03,8.69,4.92,8.69,4.92,-4.91,-4.91,-4.47,3.78,3.78,3.77
161.63,8.65,4.88,8.65,4.88,-4.87,-4.89,-4.41,3.77,3.77,3.77
163.24,8.60,4.84,8.60,4.84,-4.83,-4.87,-4.36,3.77,3.77,3.76
164.88,8.55,4.79,8.55,4.79,-4.78,-4.85,-4.31,3.77,3.77,3.77
166.53,8.50,4.73,8.50,4.73,-4.73,-4.83,-4.25,3.77,3.77,3.77
168.19,8.45,4.68,8.45,4.68,-4.69,-4.81,-4.21,3.76,3.76,3.77
169.87,8.40,4.64,8.40,4.64,-4.65,-4.79,-4.16,3.75,3.75,3.77
171.57,8.35,4.61,8.35,4.61,-4.63,-4.76,-4.12,3.73,3.73,3.75
173.29,8.30,4.59,8.30,4.59,-4.61,-4.74,-4.08,3.69,3.69,3.71
175.02,8.24,4.58,8.24,4.58,-4.59,-4.71,-4.05,3.65,3.65,3.66
176.77,8.19,4.58,8.19,4.58,-4.59,-4.69,-4.02,3.60,3.60,3.60
178.54,8.13,4.59,8.13,4.59,-4.58,-4.66,-3.99,3.55,3.55,3.54
180.32,8.08,4.59,8.08,4.59,-4.58,-4.64,-3.96,3.50,3.50,3.49
182.13,8.02,4.59,8.02,4.59,-4.57,-4.61,-3.94,3.45,3.45,3.43
183.95,7.96,4.57,7.96,4.57,-4.56,-4.58,-3.92,3.40,3.40,3.39
185.79,7.91,4.55,7.91,4.55,-4.55,-4.55,-3.90,3.36,3.36,3.36
187.65,7.85,4.53,7.85,4.53,-4.53,-4.52,-3.89,3.32,3.32,3.32
189.52,7.79,4.50,7.79,4.50,-4.50,-4.49,-3.88,3.29,3.29,3.29
191.42,7.73,4.47,7.73,4.47,-4.47,-4.46,-3.87,3.26,3.26,3.26
193.33,7.67,4.44,7.67,4.44,-4.45,-4.42,-3.86,3.23,3.23,3.23
195.27,7.62,4.41,7.62,4.41,-4.42,-4.39,-3.85,3.20,3.20,3.20
197.22,7.56,4.38,7.56,4.38,-4.38,-4.36,-3.85,3.17,3.17,3.17
199.19,7.50,4.35,7.50,4.35,-4.35,-4.32,-3.85,3.14,3.14,3.14
201.18,7.44,4.32,7.44,4.32,-4.32,-4.29,-3.86,3.12,3.12,3.11
203.19,7.38,4.29,7.38,4.29,-4.29,-4.25,-3.86,3.09,3.09,3.09
205.23,7.32,4.25,7.32,4.25,-4.25,-4.21,-3.87,3.07,3.07,3.06
207.28,7.26,4.22,7.26,4.22,-4.21,-4.18,-3.87,3.05,3.05,3.04
209.35,7.20,4.17,7.20,4.17,-4.17,-4.14,-3.88,3.03,3.03,3.02
211.44,7.14,4.13,7.14,4.13,-4.13,-4.10,-3.89,3.01,3.01,3.01
213.56,7.08,4.09,7.08,4.09,-4.09,-4.06,-3.90,2.99,2.99,2.99
215.69,7.02,4.05,7.02,4.05,-4.05,-4.02,-3.91,2.97,2.97,2.98
217.85,6.97,4.01,6.97,4.01,-4.01,-3.98,-3.91,2.95,2.95,2.96
220.03,6.91,3.97,6.91,3.97,-3.97,-3.94,-3.92,2.94,2.94,2.94
222.23,6.85,3.93,6.85,3.93,-3.93,-3.90,-3.93,2.92,2.92,2.92
224.45,6.79,3.89,6.79,3.89,-3.89,-3.85,-3.93,2.90,2.90,2.90
226.70,6.73,3.85,6.73,3.85,-3.85,-3.81,-3.94,2.89,2.89,2.88
228.96,6.67,3.80,6.67,3.80,-3.80,-3.77,-3.94,2.87,2.87,2.87
231.25,6.61,3.76,6.61,3.76,-3.76,-3.72,-3.94,2.85,2.85,2.85
233.57,6.55,3.71,6.55,3.71,-3.71,-3.68,-3.94,2.84,2.84,2.84
235.90,6.48,3.66,6.48,3.66,-3.66,-3.63,-3.93,2.82,2.82,2.82
238.26,6.42,3.61,6.42,3.61,-3.61,-3.59,-3.92,2.81,2.81,2.81
240.64,6.35,3.55,6.35,3.55,-3.56,-3.54,-3.91,2.80,2.80,2.80
243.05,6.28,3.50,6.28,3.50,-3.50,-3.50,-3.89,2.78,2.78,2.78
245.48,6.22,3.45,6.22,3.45,-3.45,-3.45,-3.87,2.77,2.77,2.77
247.93,6.15,3.39,6.15,3.39,-3.39,-3.40,-3.84,2.76,2.76,2.75
250.41,6.08,3.34,6.08,3.34,-3.34,-3.36,-3.81,2.74,2.74,2.74
252.92,6.01,3.28,6.01,3.28,-3.28,-3.31,-3.78,2.73,2.73,2.73
255.45,5.95,3.23,5.95,3.23,-3.23,-3.26,-3.74,2.71,2.71,2.72
258.00,5.89,3.18,5.89,3.18,-3.19,-3.21,-3.70,2.70,2.70,2.71
260.58,5.83,3.14,5.83,3.14,-3.15,-3.16,-3.65,2.69,2.69,2.69
263.19,5.78,3.10,5.78,3.10,-3.11,-3.11,-3.60,2.67,2.67,2.68
265.82,5.73,3.07,5.73,3.07,-3.07,-3.06,-3.55,2.66,2.66,2.66
268.48,5.68,3.04,5.68,3.04,-3.04,-3.01,-3.49,2.65,2.65,2.65
271.16,5.64,3.01,5.64,3.01,-3.00,-2.96,-3.43,2.64,2.64,2.63
273.87,5.59,2.97,5.59,2.97,-2.97,-2.91,-3.37,2.62,2.62,2.62
276.61,5.54,2.93,5.54,2.93,-2.93,-2.86,-3.30,2.61,2.61,2.61
279.38,5.49,2.89,5.49,2.89,-2.89,-2.81,-3.23,2.60,2.60,2.59
282.17,5.43,2.85,5.43,2.85,-2.85,-2.76,-3.16,2.58,2.58,2.58
284.99,5.37,2.80,5.37,2.80,-2.80,-2.71,-3.09,2.57,2.57,2.57
287.84,5.31,2.75,5.31,2.75,-2.75,-2.66,-3.01,2.56,2.56,2.56
290.72,5.25,2.70,5.25,2.70,-2.70,-2.61,-2.93,2.55,2.55,2.55
293.63,5.19,2.65,5.19,2.65,-2.65,-2.56,-2.86,2.54,2.54,2.54
296.57,5.12,2.60,5.12,2.60,-2.60,-2.51,-2.78,2.53,2.53,2.53
299.53,5.06,2.54,5.06,2.54,-2.54,-2.46,-2.70,2.52,2.52,2.52
302.53,4.99,2.48,4.99,2.48,-2.48,-2.40,-2.62,2.51,2.51,2.51
305.55,4.93,2.43,4.93,2.43,-2.43,-2.35,-2.54,2.50,2.50,2.50
308.61,4.86,2.37,4.86,2.37,-2.37,-2.30,-2.46,2.49,2.49,2.49
311.69,4.79,2.31,4.79,2.31,-2.31,-2.25,-2.38,2.49,2.49,2.49
314.81,4.73,2.25,4.73,2.25,-2.25,-2.20,-2.30,2.48,2.48,2.48
317.96,4.66,2.19,4.66,2.19,-2.19,-2.14,-2.22,2.47,2.47,2.47
321.14,4.60,2.13,4.60,2.13,-2.13,-2.09,-2.15,2.47,2.47,2.47
324.35,4.53,2.07,4.53,2.07,-2.07,-2.04,-2.07,2.46,2.46,2.46
327.59,4.47,2.01,4.47,2.01,-2.01,-1.99,-1.99,2.46,2.46,2.46
330.87,4.40,1.95,4.40,1.95,-1.95,-1.93,-1.92,2.45,2.45,2.45
334.18,4.34,1.89,4.34,1.89,-1.89,-1.88,-1.85,2.45,2.45,2.45
337.52,4.27,1.83,4.27,1.83,-1.83,-1.83,-1.77,2.44,2.44,2.44
340.90,4.21,1.77,4.21,1.77,-1.77,-1.77,-1.70,2.44,2.44,2.44
344.30,4.14,1.72,4.14,1.71,-1.71,-1.72,-1.63,2.43,2.43,2.43
347.75,4.08,1.66,4.08,1.66,-1.66,-1.67,-1.56,2.42,2.42,2.42
351.23,4.01,1.60,4.01,1.60,-1.60,-1.61,-1.49,2.42,2.42,2.42
354.74,3.95,1.54,3.95,1.54,-1.54,-1.56,-1.42,2.41,2.41,2.41
358.28,3.89,1.48,3.89,1.48,-1.48,-1.51,-1.36,2.40,2.40,2.40
361.87,3.82,1.42,3.82,1.43,-1.43,-1.45,-1.29,2.40,2.40,2.40
365.49,3.76,1.37,3.76,1.37,-1.37,-1.40,-1.23,2.39,2.39,2.39
369.14,3.69,1.31,3.69,1.31,-1.31,-1.34,-1.16,2.38,2.38,2.38
372.83,3.63,1.25,3.63,1.25,-1.25,-1.29,-1.10,2.38,2.38,2.38
376.56,3.57,1.20,3.57,1.20,-1.20,-1.23,-1.04,2.37,2.37,2.37
380.33,3.50,1.14,3.50,1.14,-1.14,-1.18,-0.98,2.36,2.36,2.36
384.13,3.44,1.08,3.44,1.08,-1.09,-1.13,-0.92,2.35,2.35,2.36
387.97,3.38,1.03,3.38,1.03,-1.03,-1.07,-0.86,2.35,2.35,2.35
391.85,3.31,0.97,3.31,0.97,-0.98,-1.02,-0.81,2.34,2.34,2.34
395.77,3.25,0.92,3.25,0.92,-0.92,-0.96,-0.75,2.33,2.33,2.33
399.73,3.19,0.87,3.19,0.87,-0.87,-0.91,-0.69,2.32,2.32,2.32
403.72,3.13,0.81,3.12,0.81,-0.81,-0.85,-0.64,2.31,2.31,2.31
407.76,3.06,0.76,3.06,0.76,-0.76,-0.80,-0.59,2.30,2.30,2.30
411.84,3.00,0.70,3.00,0.71,-0.71,-0.74,-0.53,2.29,2.29,2.29
415.96,2.94,0.65,2.94,0.65,-0.65,-0.68,-0.48,2.29,2.29,2.29
420.12,2.87,0.60,2.87,0.60,-0.60,-0.63,-0.43,2.28,2.28,2.28
424.32,2.81,0.54,2.81,0.54,-0.54,-0.57,-0.38,2.27,2.27,2.27
428.56,2.75,0.48,2.75,0.48,-0.48,-0.52,-0.33,2.27,2.27,2.27
432.85,2.69,0.42,2.69,0.42,-0.42,-0.46,-0.28,2.26,2.26,2.26
437.18,2.63,0.37,2.63,0.37,-0.37,-0.40,-0.23,2.26,2.26,2.26
441.55,2.57,0.31,2.57,0.31,-0.31,-0.35,-0.18,2.26,2.26,2.26
445.96,2.51,0.25,2.51,0.25,-0.25,-0.29,-0.13,2.26,2.26,2.26
450.42,2.44,0.19,2.45,0.19,-0.19,-0.23,-0.08,2.26,2.26,2.26
454.93,2.38,0.13,2.38,0.13,-0.13,-0.17,-0.03,2.26,2.26,2.26
459.48,2.32,0.07,2.32,0.07,-0.07,-0.12,0.01,2.26,2.26,2.26
464.07,2.26,0.01,2.26,0.01,-0.01,-0.06,0.06,2.26,2.26,2.26
468.71,2.20,-0.05,2.20,-0.05,0.05,-0.00,0.11,2.26,2.26,2.26
473.40,2.15,-0.11,2.15,-0.11,0.11,0.06,0.15,2.26,2.26,2.26
478.13,2.09,-0.17,2.09,-0.17,0.17,0.12,0.20,2.26,2.26,2.26
482.91,2.03,-0.23,2.03,-0.23,0.23,0.17,0.24,2.26,2.26,2.26
487.74,1.97,-0.29,1.97,-0.29,0.30,0.23,0.29,2.26,2.26,2.26
492.62,1.91,-0.36,1.91,-0.36,0.36,0.29,0.33,2.27,2.27,2.27
497.55,1.85,-0.42,1.85,-0.42,0.42,0.35,0.38,2.27,2.27,2.27
502.52,1.80,-0.48,1.80,-0.48,0.48,0.41,0.42,2.27,2.27,2.27
507.55,1.74,-0.54,1.74,-0.54,0.54,0.47,0.46,2.28,2.28,2.28
512.62,1.68,-0.60,1.68,-0.60,0.60,0.53,0.51,2.28,2.28,2.28
517.75,1.62,-0.66,1.62,-0.66,0.66,0.59,0.55,2.28,2.28,2.28
