frequency,raw,error,smoothed,error_smoothed,equalization,parametric_eq,fixed_band_eq,equalized_raw,equalized_smoothed,target
20.00,9.68,3.14,9.68,3.14,-3.14,-3.23,-1.78,6.53,6.53,6.53
20.20,9.70,3.17,9.70,3.17,-3.17,-3.24,-1.83,6.53,6.53,6.53
20.40,9.72,3.19,9.72,3.19,-3.19,-3.24,-1.88,6.53,6.53,6.53
20.61,9.74,3.21,9.74,3.21,-3.21,-3.26,-1.94,6.53,6.53,6.53
20.81,9.77,3.24,9.77,3.24,-3.24,-3.27,-1.99,6.53,6.53,6.53
21.02,9.79,3.26,9.79,3.26,-3.26,-3.28,-2.05,6.52,6.52,6.53
21.23,9.81,3.29,9.81,3.29,-3.29,-3.30,-2.11,6.52,6.52,6.52
21.44,9.84,3.32,9.83,3.32,-3.32,-3.32,-2.17,6.52,6.52,6.52
21.66,9.86,3.35,9.86,3.35,-3.35,-3.34,-2.23,6.51,6.51,6.51
21.87,9.88,3.38,9.88,3.38,-3.38,-3.36,-2.30,6.50,6.50,6.50
22.09,9.90,3.40,9.90,3.40,-3.41,-3.38,-2.36,6.49,6.49,6.49
22.31,9.92,3.43,9.92,3.44,-3.44,-3.40,-2.43,6.48,6.48,6.48
22.54,9.94,3.47,9.94,3.47,-3.47,-3.43,-2.50,6.47,6.47,6.47
22.76,9.96,3.50,9.96,3.50,-3.50,-3.45,-2.57,6.46,6.46,6.46
22.99,9.98,3.53,9.98,3.53,-3.52,-3.48,-2.65,6.45,6.45,6.45
23.22,10.00,3.55,10.00,3.55,-3.55,-3.51,-2.72,6.44,6.44,6.44
23.45,10.01,3.58,10.01,3.58,-3.58,-3.54,-2.80,6.44,6.44,6.43
23.69,10.03,3.61,10.03,3.61,-3.60,-3.57,-2.88,6.43,6.43,6.43
23.92,10.05,3.63,10.05,3.63,-3.63,-3.59,-2.95,6.42,6.42,6.42
24.16,10.07,3.65,10.07,3.65,-3.66,-3.62,-3.04,6.41,6.41,6.41
24.40,10.08,3.68,10.08,3.68,-3.68,-3.65,-3.12,6.40,6.40,6.40
24.65,10.10,3.71,10.10,3.71,-3.71,-3.68,-3.20,6.39,6.39,6.39
24.89,10.11,3.73,10.11,3.73,-3.74,-3.72,-3.29,6.38,6.38,6.38
25.14,10.13,3.76,10.13,3.76,-3.77,-3.75,-3.37,6.36,6.36,6.36
25.39,10.14,3.80,10.14,3.80,-3.80,-3.78,-3.46,6.35,6.35,6.35
25.65,10.16,3.83,10.16,3.83,-3.82,-3.81,-3.54,6.33,6.33,6.33
25.91,10.17,3.85,10.17,3.85,-3.85,-3.83,-3.63,6.32,6.32,6.32
26.16,10.19,3.88,10.19,3.88,-3.88,-3.86,-3.72,6.31,6.31,6.30
26.43,10.20,3.90,10.20,3.90,-3.90,-3.89,-3.80,6.30,6.30,6.29
26.69,10.21,3.92,10.21,3.92,-3.92,-3.92,-3.89,6.29,6.29,6.28
26.96,10.22,3.94,10.22,3.94,-3.94,-3.95,-3.97,6.28,6.28,6.28
27.23,10.23,3.96,10.23,3.96,-3.96,-3.98,-4.06,6.27,6.27,6.27
27.50,10.23,3.98,10.23,3.98,-3.98,-4.00,-4.14,6.25,6.26,6.26
27.77,10.24,3.99,10.24,3.99,-4.00,-4.03,-4.22,6.24,6.24,6.25
28.05,10.25,4.01,10.25,4.01,-4.02,-4.06,-4.29,6.23,6.23,6.23
28.33,10.25,4.03,10.25,4.04,-4.04,-4.08,-4.37,6.22,6.22,6.22
28.62,10.26,4.06,10.26,4.06,-4.06,-4.11,-4.44,6.20,6.20,6.20
28.90,10.27,4.08,10.27,4.08,-4.08,-4.13,-4.50,6.19,6.19,6.19
29.19,10.28,4.11,10.28,4.11,-4.10,-4.16,-4.57,6.18,6.18,6.18
29.48,10.30,4.13,10.30,4.13,-4.13,-4.18,-4.62,6.17,6.17,6.17
29.78,10.31,4.15,10.31,4.15,-4.15,-4.20,-4.68,6.16,6.16,6.16
30.08,10.32,4.17,10.32,4.17,-4.17,-4.23,-4.72,6.15,6.15,6.15
30.38,10.33,4.19,10.33,4.19,-4.19,-4.25,-4.76,6.14,6.14,6.14
30.68,10.33,4.21,10.33,4.21,-4.21,-4.27,-4.80,6.12,6.12,6.13
30.99,10.34,4.23,10.34,4.23,-4.23,-4.29,-4.83,6.11,6.11,6.11
31.30,10.35,4.25,10.35,4.25,-4.25,-4.31,-4.85,6.09,6.09,6.10
31.61,10.35,4.27,10.35,4.27,-4.27,-4.33,-4.88,6.08,6.08,6.08
31.93,10.35,4.29,10.35,4.29,-4.29,-4.35,-4.89,6.06,6.06,6.06
32.24,10.36,4.31,10.36,4.31,-4.31,-4.37,-4.90,6.04,6.04,6.04
32.57,10.36,4.33,10.36,4.33,-4.33,-4.39,-4.90,6.03,6.03,6.03
32.89,10.36,4.35,10.36,4.35,-4.35,-4.40,-4.89,6.01,6.01,6.01
33.22,10.36,4.37,10.36,4.37,-4.37,-4.42,-4.89,5.99,5.99,5.99
33.55,10.36,4.39,10.36,4.39,-4.39,-4.44,-4.87,5.97,5.97,5.97
33.89,10.37,4.41,10.37,4.41,-4.41,-4.45,-4.86,5.96,5.96,5.96
34.23,10.37,4.43,10.37,4.43,-4.43,-4.47,-4.84,5.94,5.94,5.94
34.57,10.37,4.45,10.37,4.45,-4.45,-4.49,-4.81,5.92,5.92,5.92
34.92,10.37,4.47,10.37,4.47,-4.47,-4.50,-4.79,5.91,5.91,5.90
35.27,10.37,4.48,10.37,4.48,-4.48,-4.52,-4.76,5.89,5.89,5.89
35.62,10.37,4.50,10.37,4.50,-4.50,-4.53,-4.73,5.87,5.87,5.87
35.97,10.37,4.52,10.37,4.52,-4.52,-4.55,-4.69,5.85,5.85,5.85
36.33,10.37,4.54,10.37,4.54,-4.54,-4.56,-4.66,5.83,5.83,5.83
36.70,10.37,4.56,10.37,4.56,-4.56,-4.57,-4.63,5.81,5.82,5.81
37.06,10.37,4.58,10.37,4.58,-4.57,-4.59,-4.59,5.80,5.80,5.80
37.43,10.37,4.59,10.37,4.59,-4.59,-4.60,-4.56,5.78,5.78,5.78
37.81,10.37,4.61,10.37,4.61,-4.61,-4.61,-4.53,5.76,5.76,5.76
38.19,10.37,4.63,10.37,4.63,-4.63,-4.62,-4.49,5.74,5.74,5.74
38.57,10.36,4.64,10.36,4.64,-4.64,-4.64,-4.46,5.72,5.72,5.72
38.95,10.36,4.66,10.36,4.66,-4.66,-4.65,-4.43,5.70,5.70,5.70
39.34,10.36,4.67,10.36,4.67,-4.68,-4.66,-4.40,5.68,5.68,5.68
39.74,10.35,4.69,10.35,4.69,-4.69,-4.67,-4.38,5.66,5.66,5.66
40.14,10.35,4.71,10.35,4.71,-4.71,-4.68,-4.36,5.64,5.64,5.64
40.54,10.34,4.72,10.34,4.72,-4.72,-4.69,-4.33,5.62,5.62,5.62
40.94,10.34,4.74,10.34,4.74,-4.73,-4.70,-4.32,5.60,5.60,5.60
41.35,10.33,4.75,10.33,4.75,-4.75,-4.71,-4.30,5.58,5.58,5.58
41.76,10.32,4.76,10.32,4.76,-4.76,-4.72,-4.29,5.57,5.56,5.56
42.18,10.31,4.77,10.31,4.77,-4.77,-4.73,-4.28,5.55,5.55,5.55
42.60,10.31,4.78,10.31,4.78,-4.78,-4.74,-4.27,5.53,5.53,5.53
43.03,10.30,4.79,10.30,4.79,-4.79,-4.75,-4.27,5.51,5.51,5.51
43.46,10.29,4.80,10.29,4.80,-4.80,-4.76,-4.27,5.49,5.49,5.49
43.90,10.28,4.81,10.28,4.81,-4.81,-4.77,-4.27,5.47,5.47,5.47
44.33,10.27,4.82,10.27,4.82,-4.82,-4.78,-4.28,5.45,5.45,5.45
44.78,10.26,4.83,10.26,4.83,-4.83,-4.79,-4.29,5.43,5.43,5.43
45.23,10.25,4.84,10.25,4.84,-4.83,-4.80,-4.30,5.41,5.41,5.41
45.68,10.24,4.84,10.24,4.84,-4.84,-4.80,-4.31,5.39,5.39,5.39
46.13,10.22,4.85,10.22,4.85,-4.85,-4.81,-4.33,5.38,5.38,5.38
46.60,10.21,4.85,10.21,4.85,-4.86,-4.82,-4.35,5.36,5.36,5.36
47.06,10.20,4.86,10.20,4.86,-4.86,-4.83,-4.38,5.34,5.34,5.34
47.53,10.19,4.87,10.19,4.87,-4.87,-4.83,-4.41,5.32,5.32,5.32
48.01,10.17,4.87,10.17,4.87,-4.88,-4.84,-4.44,5.30,5.30,5.30
48.49,10.16,4.88,10.16,4.88,-4.88,-4.85,-4.47,5.28,5.28,5.28
48.97,10.15,4.89,10.15,4.89,-4.89,-4.86,-4.51,5.26,5.26,5.26
49.46,10.14,4.90,10.14,4.90,-4.89,-4.86,-4.55,5.25,5.25,5.23
49.96,10.12,4.91,10.12,4.90,-4.89,-4.87,-4.59,5.23,5.23,5.22
50.46,10.11,4.90,10.11,4.90,-4.89,-4.88,-4.63,5.21,5.21,5.21
50.96,10.09,4.89,10.09,4.89,-4.90,-4.88,-4.68,5.20,5.20,5.20
51.47,10.08,4.89,10.08,4.89,-4.91,-4.89,-4.72,5.18,5.17,5.19
51.99,10.07,4.89,10.07,4.90,-4.91,-4.89,-4.77,5.15,5.15,5.17
52.51,10.05,4.92,10.05,4.92,-4.93,-4.90,-4.82,5.13,5.13,5.14
53.03,10.04,4.94,10.04,4.94,-4.94,-4.90,-4.87,5.10,5.10,5.10
53.56,10.02,4.96,10.02,4.96,-4.95,-4.91,-4.92,5.07,5.07,5.06
54.10,10.01,4.98,10.01,4.98,-4.97,-4.91,-4.97,5.04,5.04,5.03
54.64,9.99,4.99,9.99,4.99,-4.99,-4.92,-5.02,5.01,5.01,5.00
55.18,9.98,5.00,9.98,5.00,-5.00,-4.92,-5.07,4.98,4.98,4.97
55.74,9.96,5.01,9.96,5.01,-5.01,-4.93,-5.11,4.95,4.95,4.95
56.29,9.94,5.02,9.94,5.02,-5.02,-4.93,-5.16,4.92,4.92,4.92
56.86,9.91,5.02,9.91,5.02,-5.02,-4.94,-5.20,4.89,4.89,4.89
57.42,9.89,5.02,9.89,5.02,-5.03,-4.94,-5.24,4.86,4.86,4.86
58.00,9.86,5.03,9.86,5.03,-5.03,-4.95,-5.28,4.84,4.84,4.84
58.58,9.84,5.03,9.84,5.03,-5.02,-4.95,-5.31,4.81,4.81,4.81
59.16,9.81,5.02,9.81,5.02,-5.02,-4.95,-5.34,4.79,4.79,4.79
59.76,9.79,5.02,9.79,5.02,-5.01,-4.96,-5.36,4.77,4.77,4.77
60.35,9.76,5.01,9.76,5.01,-5.00,-4.96,-5.38,4.76,4.76,4.75
60.96,9.74,5.00,9.74,5.00,-4.99,-4.96,-5.40,4.75,4.75,4.74
61.57,9.71,4.98,9.71,4.98,-4.98,-4.97,-5.41,4.74,4.74,4.73
62.18,9.69,4.97,9.69,4.97,-4.97,-4.97,-5.41,4.72,4.72,4.72
62.80,9.66,4.95,9.66,4.95,-4.96,-4.97,-5.42,4.70,4.70,4.71
63.43,9.63,4.93,9.63,4.94,-4.96,-4.97,-5.41,4.68,4.68,4.70
64.07,9.61,4.94,9.61,4.94,-4.96,-4.98,-5.40,4.65,4.65,4.67
64.71,9.58,4.95,9.58,4.95,-4.96,-4.98,-5.39,4.62,4.62,4.63
65.35,9.56,4.98,9.56,4.98,-4.97,-4.98,-5.37,4.59,4.59,4.58
66.01,9.53,4.99,9.53,4.99,-4.98,-4.98,-5.34,4.56,4.56,4.54
66.67,9.50,5.00,9.50,5.00,-4.98,-4.98,-5.31,4.52,4.52,4.51
67.33,9.48,4.99,9.48,5.00,-4.99,-4.98,-5.28,4.49,4.49,4.48
68.01,9.45,4.99,9.45,4.99,-4.99,-4.98,-5.25,4.45,4.45,4.46
68.69,9.42,4.99,9.42,4.99,-4.99,-4.99,-5.21,4.43,4.43,4.43
69.37,9.38,4.98,9.38,4.98,-4.99,-4.99,-5.16,4.40,4.40,4.40
70.07,9.35,4.98,9.35,4.98,-4.98,-4.99,-5.12,4.37,4.37,4.37
70.77,9.31,4.97,9.31,4.97,-4.97,-4.99,-5.08,4.34,4.34,4.34
71.48,9.27,4.96,9.27,4.96,-4.96,-4.99,-5.03,4.31,4.31,4.31
72.19,9.23,4.95,9.23,4.95,-4.95,-4.99,-4.98,4.28,4.28,4.28
72.91,9.19,4.94,9.19,4.94,-4.94,-4.98,-4.93,4.25,4.25,4.26
73.64,9.15,4.93,9.15,4.93,-4.93,-4.98,-4.88,4.22,4.22,4.23
74.38,9.12,4.92,9.12,4.92,-4.92,-4.98,-4.83,4.20,4.20,4.20
75.12,9.09,4.91,9.09,4.91,-4.91,-4.98,-4.79,4.18,4.18,4.17
75.87,9.06,4.90,9.06,4.90,-4.90,-4.98,-4.74,4.16,4.16,4.15
76.63,9.03,4.89,9.03,4.89,-4.89,-4.98,-4.69,4.14,4.14,4.14
77.40,9.00,4.89,9.00,4.89,-4.89,-4.98,-4.65,4.12,4.12,4.12
78.17,8.98,4.88,8.98,4.88,-4.88,-4.97,-4.60,4.10,4.10,4.10
78.95,8.95,4.88,8.95,4.88,-4.88,-4.97,-4.56,4.07,4.07,4.07
79.74,8.92,4.88,8.92,4.88,-4.88,-4.97,-4.53,4.05,4.05,4.05
80.54,8.89,4.88,8.89,4.88,-4.88,-4.96,-4.49,4.02,4.02,4.02
81.35,8.86,4.88,8.86,4.88,-4.88,-4.96,-4.46,3.98,3.98,3.98
82.16,8.83,4.88,8.83,4.88,-4.89,-4.96,-4.43,3.94,3.94,3.95
82.98,8.80,4.89,8.80,4.89,-4.89,-4.95,-4.40,3.90,3.90,3.91
83.81,8.77,4.90,8.77,4.90,-4.90,-4.95,-4.37,3.86,3.86,3.87
84.65,8.74,4.91,8.74,4.91,-4.91,-4.94,-4.35,3.82,3.82,3.82
85.50,8.71,4.92,8.71,4.92,-4.92,-4.94,-4.33,3.78,3.78,3.79
86.35,8.68,4.93,8.68,4.93,-4.93,-4.93,-4.32,3.75,3.75,3.75
87.22,8.65,4.93,8.65,4.93,-4.94,-4.93,-4.31,3.71,3.71,3.72
88.09,8.62,4.94,8.62,4.94,-4.93,-4.92,-4.30,3.69,3.69,3.69
88.97,8.60,4.94,8.60,4.94,-4.92,-4.92,-4.29,3.67,3.67,3.66
89.86,8.57,4.93,8.57,4.93,-4.90,-4.91,-4.29,3.66,3.66,3.64
90.76,8.52,4.91,8.52,4.90,-4.88,-4.90,-4.29,3.65,3.64,3.62
91.66,8.47,4.87,8.46,4.87,-4.85,-4.90,-4.29,3.62,3.61,3.60
92.58,8.40,4.82,8.40,4.82,-4.82,-4.89,-4.30,3.57,3.57,3.58
93.51,8.33,4.78,8.33,4.78,-4.80,-4.88,-4.31,3.53,3.53,3.55
94.44,8.27,4.75,8.27,4.75,-4.79,-4.87,-4.33,3.48,3.49,3.52
95.39,8.24,4.74,8.24,4.74,-4.79,-4.86,-4.34,3.45,3.45,3.50
96.34,8.22,4.75,8.23,4.76,-4.79,-4.85,-4.36,3.43,3.44,3.47
97.30,8.23,4.79,8.23,4.79,-4.80,-4.85,-4.38,3.43,3.43,3.44
98.28,8.24,4.83,8.24,4.83,-4.81,-4.84,-4.41,3.43,3.43,3.41
99.26,8.23,4.86,8.23,4.86,-4.81,-4.83,-4.44,3.42,3.42,3.37
100.25,8.20,4.86,8.20,4.85,-4.81,-4.82,-4.46,3.39,3.38,3.34
101.25,8.14,4.83,8.14,4.83,-4.80,-4.80,-4.49,3.33,3.34,3.31
102.27,8.06,4.78,8.07,4.79,-4.79,-4.79,-4.53,3.28,3.28,3.28
103.29,7.99,4.74,7.99,4.75,-4.76,-4.78,-4.56,3.22,3.23,3.24
104.32,7.92,4.71,7.92,4.72,-4.74,-4.77,-4.60,3.18,3.19,3.21
105.37,7.87,4.70,7.86,4.69,-4.71,-4.76,-4.63,3.16,3.15,3.17
106.42,7.82,4.68,7.82,4.68,-4.69,-4.75,-4.67,3.13,3.13,3.14
107.48,7.78,4.67,7.78,4.67,-4.68,-4.73,-4.70,3.10,3.10,3.11
108.56,7.75,4.67,7.75,4.67,-4.68,-4.72,-4.74,3.08,3.08,3.08
109.64,7.73,4.68,7.73,4.68,-4.68,-4.71,-4.78,3.05,3.05,3.05
110.74,7.71,4.69,7.71,4.69,-4.69,-4.69,-4.81,3.02,3.02,3.02
111.85,7.69,4.70,7.69,4.70,-4.69,-4.68,-4.84,2.99,2.99,2.99
112.97,7.66,4.70,7.66,4.70,-4.70,-4.66,-4.87,2.96,2.96,2.96
114.10,7.63,4.71,7.63,4.71,-4.70,-4.65,-4.90,2.93,2.93,2.93
115.24,7.60,4.70,7.60,4.70,-4.70,-4.63,-4.92,2.90,2.91,2.90
116.39,7.57,4.70,7.57,4.69,-4.69,-4.62,-4.95,2.88,2.88,2.87
117.55,7.54,4.68,7.53,4.68,-4.69,-4.60,-4.96,2.85,2.85,2.85
118.73,7.50,4.67,7.50,4.67,-4.68,-4.58,-4.98,2.82,2.82,2.83
119.92,7.46,4.66,7.46,4.66,-4.67,-4.57,-4.99,2.79,2.79,2.80
121.12,7.41,4.65,7.41,4.65,-4.65,-4.55,-5.00,2.76,2.76,2.76
122.33,7.36,4.64,7.36,4.64,-4.64,-4.53,-5.00,2.72,2.72,2.72
123.55,7.31,4.63,7.31,4.63,-4.62,-4.51,-4.99,2.69,2.69,2.68
124.79,7.25,4.60,7.26,4.60,-4.60,-4.49,-4.98,2.65,2.65,2.65
126.03,7.20,4.58,7.20,4.58,-4.58,-4.48,-4.97,2.62,2.62,2.62
127.29,7.15,4.56,7.15,4.56,-4.55,-4.46,-4.95,2.60,2.59,2.59
128.57,7.10,4.53,7.10,4.53,-4.53,-4.44,-4.92,2.57,2.57,2.57
129.85,7.04,4.50,7.04,4.50,-4.50,-4.42,-4.89,2.54,2.54,2.55
131.15,6.99,4.47,6.99,4.47,-4.47,-4.39,-4.86,2.52,2.52,2.52
132.46,6.93,4.44,6.93,4.44,-4.44,-4.37,-4.82,2.50,2.50,2.50
133.79,6.88,4.41,6.88,4.41,-4.41,-4.35,-4.78,2.47,2.47,2.47
135.12,6.82,4.38,6.82,4.38,-4.38,-4.33,-4.73,2.44,2.44,2.44
136.48,6.77,4.35,6.77,4.35,-4.35,-4.31,-4.68,2.41,2.41,2.41
137.84,6.71,4.32,6.71,4.32,-4.33,-4.29,-4.62,2.38,2.38,2.38
139.22,6.65,4.30,6.65,4.30,-4.30,-4.26,-4.57,2.35,2.35,2.35
140.61,6.59,4.27,6.59,4.27,-4.27,-4.24,-4.51,2.32,2.32,2.32
142.02,6.54,4.25,6.54,4.25,-4.25,-4.21,-4.45,2.29,2.29,2.29
143.44,6.48,4.22,6.48,4.22,-4.22,-4.19,-4.39,2.26,2.26,2.26
144.87,6.43,4.20,6.43,4.20,-4.19,-4.17,-4.32,2.23,2.23,2.23
146.32,6.37,4.17,6.37,4.17,-4.17,-4.14,-4.26,2.21,2.21,2.20
147.78,6.32,4.14,6.32,4.14,-4.14,-4.12,-4.19,2.18,2.18,2.18
149.26,6.26,4.11,6.26,4.11,-4.11,-4.09,-4.13,2.15,2.15,2.16
150.75,6.21,4.08,6.21,4.08,-4.08,-4.06,-4.06,2.13,2.13,2.14
152.26,6.16,4.05,6.16,4.05,-4.05,-4.04,-4.00,2.11,2.11,2.12
153.78,6.11,4.02,6.11,4.02,-4.02,-4.01,-3.93,2.10,2.09,2.10
155.32,6.07,3.99,6.07,3.99,-3.99,-3.98,-3.87,2.08,2.08,2.08
156.88,6.02,3.96,6.02,3.96,-3.95,-3.96,-3.81,2.07,2.07,2.07
158.44,5.98,3.92,5.98,3.92,-3.92,-3.93,-3.75,2.06,2.06,2.05
160.03,5.93,3.88,5.93,3.88,-3.88,-3.90,-3.69,2.05,2.05,2.04
161.63,5.88,3.84,5.88,3.84,-3.83,-3.87,-3.64,2.05,2.05,2.04
163.24,5.83,3.79,5.83,3.79,-3.78,-3.84,-3.58,2.05,2.05,2.04
164.88,5.78,3.74,5.78,3.74,-3.73,-3.81,-3.53,2.05,2.05,2.04
166.53,5.73,3.68,5.73,3.68,-3.68,-3.78,-3.48,2.05,2.05,2.04
168.19,5.67,3.62,5.67,3.62,-3.63,-3.75,-3.43,2.04,2.04,2.04
169.87,5.61,3.57,5.61,3.57,-3.58,-3.72,-3.39,2.02,2.02,2.04
171.57,5.55,3.53,5.55,3.53,-3.55,-3.69,-3.35,2.00,2.00,2.02
173.29,5.48,3.50,5.48,3.50,-3.52,-3.66,-3.30,1.96,1.96,1.98
175.02,5.42,3.48,5.42,3.49,-3.50,-3.63,-3.27,1.92,1.92,1.94
176.77,5.36,3.48,5.36,3.48,-3.48,-3.60,-3.23,1.87,1.88,1.88
178.54,5.29,3.48,5.29,3.48,-3.47,-3.56,-3.20,1.82,1.82,1.82
180.32,5.23,3.47,5.23,3.47,-3.46,-3.53,-3.17,1.77,1.77,1.76
182.13,5.17,3.46,5.17,3.46,-3.45,-3.50,-3.14,1.72,1.72,1.71
183.95,5.11,3.44,5.11,3.44,-3.43,-3.47,-3.11,1.68,1.68,1.67
185.79,5.04,3.41,5.04,3.41,-3.41,-3.43,-3.09,1.63,1.63,1.63
187.65,4.98,3.38,4.98,3.38,-3.38,-3.40,-3.07,1.60,1.60,1.60
189.52,4.91,3.35,4.91,3.35,-3.35,-3.37,-3.05,1.56,1.56,1.57
191.42,4.85,3.31,4.85,3.31,-3.31,-3.33,-3.03,1.53,1.53,1.54
193.33,4.78,3.27,4.78,3.27,-3.28,-3.30,-3.02,1.50,1.50,1.51
195.27,4.71,3.24,4.71,3.24,-3.24,-3.26,-3.01,1.47,1.47,1.48
197.22,4.65,3.20,4.65,3.20,-3.20,-3.23,-3.00,1.44,1.44,1.45
199.19,4.58,3.16,4.58,3.16,-3.16,-3.19,-2.99,1.41,1.41,1.42
201.18,4.51,3.12,4.51,3.12,-3.13,-3.16,-2.98,1.39,1.39,1.39
203.19,4.45,3.09,4.45,3.09,-3.08,-3.12,-2.97,1.36,1.36,1.36
205.23,4.38,3.05,4.38,3.05,-3.04,-3.09,-2.97,1.34,1.34,1.34
207.28,4.32,3.00,4.32,3.00,-3.00,-3.05,-2.97,1.32,1.32,1.32
209.35,4.25,2.95,4.25,2.95,-2.95,-3.01,-2.96,1.30,1.30,1.30
211.44,4.18,2.90,4.18,2.90,-2.90,-2.98,-2.96,1.28,1.28,1.28
213.56,4.11,2.85,4.11,2.85,-2.84,-2.94,-2.96,1.27,1.27,1.27
215.69,4.04,2.79,4.04,2.79,-2.79,-2.90,-2.96,1.25,1.25,1.25
217.85,3.96,2.73,3.96,2.73,-2.73,-2.86,-2.95,1.23,1.23,1.23
220.03,3.89,2.67,3.89,2.67,-2.67,-2.83,-2.95,1.22,1.22,1.21
222.23,3.81,2.62,3.81,2.62,-2.61,-2.79,-2.95,1.20,1.20,1.19
224.45,3.74,2.56,3.74,2.56,-2.56,-2.75,-2.95,1.18,1.18,1.17
226.70,3.67,2.51,3.67,2.51,-2.52,-2.71,-2.94,1.15,1.15,1.16
228.96,3.61,2.47,3.61,2.47,-2.48,-2.67,-2.93,1.13,1.13,1.14
231.25,3.57,2.45,3.57,2.45,-2.46,-2.64,-2.93,1.11,1.11,1.13
233.57,3.54,2.43,3.54,2.43,-2.45,-2.60,-2.92,1.09,1.09,1.11
235.90,3.53,2.44,3.53,2.44,-2.45,-2.56,-2.90,1.08,1.08,1.10
238.26,3.54,2.45,3.53,2.45,-2.46,-2.52,-2.89,1.08,1.08,1.08
240.64,3.54,2.47,3.54,2.47,-2.47,-2.48,-2.87,1.07,1.07,1.07
243.05,3.55,2.49,3.55,2.49,-2.48,-2.44,-2.86,1.07,1.07,1.06
245.48,3.54,2.50,3.54,2.50,-2.49,-2.40,-2.83,1.06,1.06,1.04
247.93,3.53,2.50,3.53,2.50,-2.49,-2.36,-2.81,1.05,1.04,1.03
250.41,3.51,2.49,3.50,2.49,-2.48,-2.32,-2.78,1.03,1.03,1.01
252.92,3.47,2.46,3.47,2.46,-2.46,-2.28,-2.75,1.01,1.01,1.00
255.45,3.42,2.43,3.42,2.43,-2.43,-2.24,-2.71,0.99,0.99,0.99
258.00,3.37,2.39,3.37,2.39,-2.39,-2.20,-2.68,0.98,0.98,0.98
260.58,3.31,2.34,3.31,2.34,-2.35,-2.16,-2.64,0.96,0.96,0.97
263.19,3.25,2.30,3.25,2.30,-2.30,-2.12,-2.60,0.95,0.95,0.95
265.82,3.18,2.25,3.18,2.25,-2.25,-2.08,-2.55,0.93,0.93,0.94
268.48,3.12,2.20,3.12,2.20,-2.20,-2.04,-2.50,0.92,0.92,0.92
271.16,3.05,2.15,3.05,2.15,-2.15,-2.00,-2.45,0.90,0.90,0.91
273.87,2.99,2.10,2.99,2.10,-2.10,-1.96,-2.40,0.89,0.89,0.89
276.61,2.93,2.05,2.93,2.05,-2.05,-1.92,-2.34,0.88,0.88,0.88
279.38,2.86,2.00,2.86,2.00,-2.00,-1.88,-2.29,0.87,0.87,0.87
282.17,2.80,1.95,2.80,1.95,-1.95,-1.83,-2.23,0.85,0.85,0.85
284.99,2.74,1.90,2.74,1.90,-1.90,-1.79,-2.17,0.84,0.84,0.84
287.84,2.68,1.84,2.68,1.85,-1.85,-1.75,-2.11,0.83,0.83,0.83
290.72,2.62,1.79,2.62,1.80,-1.80,-1.71,-2.04,0.82,0.82,0.82
293.63,2.56,1.75,2.56,1.75,-1.75,-1.67,-1.98,0.81,0.81,0.81
296.57,2.50,1.70,2.50,1.70,-1.70,-1.63,-1.92,0.80,0.80,0.80
299.53,2.44,1.65,2.44,1.65,-1.64,-1.58,-1.85,0.79,0.79,0.79
302.53,2.38,1.60,2.38,1.60,-1.59,-1.54,-1.79,0.78,0.78,0.78
305.55,2.32,1.54,2.32,1.54,-1.54,-1.50,-1.72,0.77,0.77,0.77
308.61,2.26,1.49,2.26,1.49,-1.49,-1.46,-1.66,0.77,0.77,0.77
311.69,2.20,1.44,2.20,1.44,-1.44,-1.42,-1.59,0.76,0.76,0.76
314.81,2.14,1.39,2.14,1.39,-1.39,-1.37,-1.53,0.75,0.75,0.75
317.96,2.09,1.34,2.09,1.34,-1.34,-1.33,-1.46,0.75,0.75,0.75
321.14,2.03,1.29,2.03,1.29,-1.29,-1.29,-1.40,0.74,0.74,0.74
324.35,1.97,1.24,1.97,1.24,-1.24,-1.25,-1.33,0.74,0.74,0.74
327.59,1.92,1.19,1.92,1.19,-1.19,-1.20,-1.27,0.73,0.73,0.73
330.87,1.86,1.13,1.86,1.13,-1.14,-1.16,-1.20,0.73,0.73,0.73
334.18,1.81,1.09,1.81,1.09,-1.09,-1.12,-1.14,0.72,0.72,0.72
337.52,1.75,1.04,1.75,1.04,-1.04,-1.08,-1.08,0.71,0.71,0.72
340.90,1.70,0.99,1.70,0.99,-0.99,-1.03,-1.02,0.71,0.71,0.71
344.30,1.64,0.94,1.64,0.94,-0.94,-0.99,-0.95,0.70,0.70,0.70
347.75,1.59,0.90,1.59,0.90,-0.90,-0.95,-0.89,0.70,0.70,0.70
351.23,1.54,0.85,1.54,0.85,-0.85,-0.90,-0.83,0.69,0.69,0.69
354.74,1.49,0.81,1.49,0.81,-0.80,-0.86,-0.77,0.68,0.68,0.68
358.28,1.44,0.76,1.44,0.76,-0.76,-0.82,-0.71,0.68,0.68,0.68
361.87,1.38,0.71,1.38,0.71,-0.71,-0.77,-0.66,0.67,0.67,0.67
365.49,1.33,0.67,1.33,0.67,-0.67,-0.73,-0.60,0.66,0.66,0.66
369.14,1.28,0.62,1.28,0.62,-0.62,-0.69,-0.54,0.66,0.66,0.65
372.83,1.23,0.58,1.23,0.58,-0.58,-0.64,-0.48,0.65,0.65,0.65
376.56,1.18,0.54,1.18,0.54,-0.53,-0.60,-0.43,0.64,0.64,0.64
380.33,1.13,0.49,1.13,0.49,-0.49,-0.56,-0.37,0.64,0.64,0.64
384.13,1.08,0.45,1.08,0.45,-0.45,-0.51,-0.32,0.63,0.63,0.63
387.97,1.03,0.41,1.03,0.41,-0.41,-0.47,-0.26,0.62,0.62,0.62
391.85,0.98,0.37,0.98,0.37,-0.37,-0.43,-0.21,0.61,0.61,0.61
395.77,0.93,0.33,0.93,0.33,-0.33,-0.38,-0.16,0.60,0.60,0.60
399.73,0.88,0.29,0.88,0.29,-0.29,-0.34,-0.10,0.59,0.59,0.59
403.72,0.83,0.25,0.83,0.25,-0.25,-0.30,-0.05,0.58,0.58,0.58
407.76,0.79,0.21,0.79,0.21,-0.21,-0.25,0.00,0.58,0.58,0.58
411.84,0.74,0.17,0.74,0.17,-0.17,-0.21,0.05,0.57,0.57,0.57
415.96,0.69,0.13,0.69,0.13,-0.13,-0.17,0.10,0.56,0.56,0.56
420.12,0.65,0.10,0.65,0.09,-0.09,-0.13,0.15,0.55,0.55,0.55
424.32,0.60,0.06,0.60,0.06,-0.05,-0.08,0.20,0.55,0.55,0.55
428.56,0.56,0.02,0.56,0.02,-0.01,-0.04,0.25,0.54,0.54,0.54
432.85,0.51,-0.03,0.51,-0.03,0.03,0.00,0.30,0.54,0.54,0.54
437.18,0.47,-0.07,0.47,-0.07,0.07,0.05,0.34,0.53,0.53,0.53
441.55,0.42,-0.11,0.42,-0.11,0.11,0.09,0.39,0.53,0.53,0.53
445.96,0.38,-0.15,0.38,-0.15,0.15,0.13,0.43,0.53,0.53,0.53
450.42,0.34,-0.19,0.34,-0.19,0.19,0.18,0.47,0.53,0.53,0.53
454.93,0.29,-0.24,0.29,-0.24,0.24,0.22,0.52,0.53,0.53,0.53
459.48,0.25,-0.28,0.25,-0.28,0.28,0.26,0.56,0.53,0.53,0.53
464.07,0.21,-0.32,0.21,-0.32,0.32,0.30,0.60,0.53,0.53,0.53
468.71,0.17,-0.36,0.17,-0.36,0.36,0.35,0.63,0.53,0.53,0.53
473.40,0.13,-0.40,0.13,-0.40,0.40,0.39,0.67,0.53,0.53,0.53
478.13,0.09,-0.44,0.09,-0.44,0.45,0.43,0.71,0.53,0.53,0.53
482.91,0.05,-0.49,0.05,-0.49,0.49,0.47,0.74,0.54,0.54,0.54
487.74,0.01,-0.53,0.01,-0.53,0.53,0.51,0.77,0.54,0.54,0.54
492.62,-0.03,-0.57,-0.03,-0.57,0.57,0.56,0.81,0.54,0.54,0.54
497.55,-0.07,-0.61,-0.07,-0.61,0.61,0.60,0.83,0.54,0.54,0.54
502.52,-0.10,-0.65,-0.10,-0.65,0.65,0.64,0.86,0.55,0.54,0.55
507.55,-0.14,-0.69,-0.14,-0.69,0.69,0.68,0.89,0.55,0.55,0.55
512.62,-0.17,-0.73,-0.17,-0.73,0.73,0.72,0.92,0.55,0.55,0.55
517.75,-0.21,-0.77,-0.21,-0.77,0.77,0.76,0.94,0.56,0.56,0.56
522.93,-0.24,-0.80,-0.24,-0.80,0.80,0.80,0.96,0.56,0.56,0.56
528.16,-0.28,-0.84,-0.28,-0.84,0.84,0.84,0.98,0.56,0.56,0.56
533.44,-0.31,-0.88,-0.31,-0.88,0.88,0.88,1.00,0.57,0.57,0.57
