frequency,raw,error,smoothed,error_smoothed,equalization,parametric_eq,fixed_band_eq,equalized_raw,equalized_smoothed,target
20.00,10.46,3.05,10.46,3.03,-3.04,-2.84,-0.75,7.42,7.42,7.42
20.20,10.45,2.98,10.45,2.99,-3.00,-2.97,-0.78,7.45,7.45,7.47
20.40,10.43,2.92,10.44,2.95,-2.96,-3.10,-0.80,7.48,7.48,7.52
20.61,10.42,2.91,10.42,2.91,-2.91,-3.12,-0.83,7.51,7.51,7.52
20.81,10.41,2.89,10.41,2.87,-2.86,-3.13,-0.85,7.55,7.55,7.52
21.02,10.39,2.84,10.39,2.83,-2.81,-3.03,-0.88,7.58,7.58,7.56
21.23,10.37,2.75,10.37,2.78,-2.75,-2.94,-0.91,7.61,7.61,7.62
21.44,10.34,2.72,10.34,2.71,-2.70,-2.80,-0.94,7.64,7.64,7.62
21.66,10.30,2.66,10.30,2.64,-2.63,-2.66,-0.96,7.67,7.67,7.63
21.87,10.26,2.55,10.26,2.58,-2.56,-2.53,-0.99,7.70,7.70,7.71
22.09,10.21,2.50,10.21,2.49,-2.49,-2.41,-1.03,7.72,7.72,7.72
22.31,10.18,2.42,10.18,2.41,-2.44,-2.30,-1.06,7.74,7.74,7.75
22.54,10.15,2.33,10.15,2.35,-2.39,-2.21,-1.09,7.76,7.76,7.82
22.76,10.12,2.31,10.12,2.31,-2.34,-2.14,-1.12,7.78,7.78,7.82
22.99,10.11,2.29,10.11,2.29,-2.31,-2.07,-1.16,7.80,7.80,7.82
23.22,10.10,2.29,10.10,2.29,-2.28,-2.03,-1.19,7.82,7.82,7.82
23.45,10.09,2.27,10.09,2.28,-2.25,-1.98,-1.23,7.84,7.84,7.82
23.69,10.07,2.26,10.07,2.25,-2.22,-1.96,-1.26,7.86,7.86,7.82
23.92,10.05,2.21,10.05,2.20,-2.18,-1.93,-1.30,7.88,7.87,7.85
24.16,10.02,2.12,10.02,2.14,-2.12,-1.92,-1.34,7.90,7.90,7.91
24.40,9.99,2.07,9.99,2.07,-2.06,-1.91,-1.38,7.93,7.93,7.92
24.65,9.95,2.00,9.96,1.99,-1.99,-1.90,-1.41,7.97,7.97,7.95
24.89,9.92,1.91,9.93,1.92,-1.91,-1.89,-1.45,8.02,8.02,8.01
25.14,9.90,1.83,9.90,1.82,-1.84,-1.89,-1.49,8.07,8.07,8.08
25.39,9.88,1.74,9.88,1.74,-1.77,-1.88,-1.53,8.12,8.12,8.15
25.65,9.87,1.65,9.87,1.67,-1.70,-1.88,-1.57,8.17,8.17,8.22
25.91,9.85,1.64,9.85,1.63,-1.64,-1.87,-1.61,8.21,8.21,8.22
26.16,9.83,1.61,9.82,1.60,-1.58,-1.86,-1.64,8.24,8.24,8.22
26.43,9.79,1.57,9.79,1.57,-1.53,-1.84,-1.68,8.25,8.25,8.22
26.69,9.74,1.52,9.74,1.52,-1.49,-1.83,-1.72,8.24,8.24,8.22
26.96,9.69,1.47,9.68,1.46,-1.47,-1.81,-1.75,8.22,8.22,8.22
27.23,9.63,1.42,9.64,1.42,-1.45,-1.78,-1.79,8.18,8.19,8.22
27.50,9.60,1.38,9.60,1.41,-1.45,-1.76,-1.82,8.15,8.15,8.22
27.77,9.58,1.42,9.58,1.41,-1.45,-1.73,-1.85,8.13,8.13,8.16
28.05,9.58,1.46,9.58,1.44,-1.47,-1.69,-1.88,8.11,8.11,8.12
28.33,9.58,1.47,9.58,1.49,-1.49,-1.66,-1.91,8.10,8.10,8.12
28.62,9.59,1.53,9.59,1.53,-1.51,-1.62,-1.93,8.08,8.08,8.06
28.90,9.60,1.58,9.59,1.56,-1.52,-1.57,-1.95,8.07,8.07,8.02
29.19,9.58,1.57,9.58,1.57,-1.53,-1.53,-1.97,8.05,8.05,8.02
29.48,9.56,1.54,9.56,1.55,-1.52,-1.48,-1.99,8.04,8.04,8.02
29.78,9.52,1.50,9.52,1.50,-1.50,-1.44,-2.00,8.02,8.02,8.02
30.08,9.47,1.46,9.47,1.46,-1.46,-1.39,-2.01,8.01,8.01,8.02
30.38,9.42,1.40,9.42,1.40,-1.41,-1.34,-2.02,8.01,8.01,8.02
30.68,9.37,1.35,9.37,1.35,-1.36,-1.29,-2.02,8.00,8.01,8.02
30.99,9.32,1.30,9.32,1.30,-1.32,-1.24,-2.02,8.00,8.00,8.02
31.30,9.28,1.26,9.28,1.26,-1.29,-1.18,-2.01,7.99,7.99,8.02
31.61,9.25,1.23,9.25,1.23,-1.26,-1.13,-2.00,7.98,7.98,8.02
31.93,9.22,1.21,9.23,1.21,-1.25,-1.09,-1.98,7.98,7.98,8.02
32.24,9.21,1.19,9.21,1.22,-1.23,-1.04,-1.97,7.98,7.98,8.02
32.57,9.19,1.23,9.19,1.22,-1.20,-0.99,-1.95,7.99,7.99,7.96
32.89,9.18,1.24,9.18,1.21,-1.16,-0.94,-1.92,8.01,8.01,7.94
33.22,9.15,1.14,9.15,1.17,-1.11,-0.90,-1.89,8.04,8.04,8.02
33.55,9.12,1.10,9.11,1.09,-1.05,-0.86,-1.86,8.06,8.06,8.02
33.89,9.07,1.01,9.07,0.99,-0.98,-0.82,-1.83,8.09,8.09,8.05
34.23,9.01,0.89,9.01,0.89,-0.90,-0.78,-1.79,8.11,8.11,8.12
34.57,8.96,0.77,8.96,0.78,-0.82,-0.74,-1.75,8.14,8.14,8.19
34.92,8.90,0.69,8.91,0.70,-0.74,-0.70,-1.70,8.17,8.17,8.22
35.27,8.86,0.65,8.86,0.64,-0.67,-0.67,-1.66,8.19,8.19,8.22
35.62,8.83,0.61,8.83,0.61,-0.62,-0.64,-1.61,8.21,8.21,8.22
35.97,8.80,0.59,8.80,0.58,-0.59,-0.61,-1.56,8.21,8.21,8.22
36.33,8.78,0.56,8.78,0.56,-0.56,-0.59,-1.51,8.21,8.21,8.22
36.70,8.75,0.53,8.75,0.55,-0.54,-0.57,-1.46,8.20,8.20,8.22
37.06,8.71,0.55,8.71,0.55,-0.52,-0.55,-1.41,8.19,8.19,8.16
37.43,8.67,0.55,8.67,0.53,-0.50,-0.53,-1.35,8.17,8.17,8.12
37.81,8.62,0.50,8.62,0.51,-0.47,-0.52,-1.30,8.15,8.15,8.12
38.19,8.57,0.45,8.57,0.46,-0.44,-0.51,-1.24,8.13,8.13,8.12
38.57,8.53,0.41,8.53,0.41,-0.42,-0.50,-1.18,8.11,8.11,8.12
38.95,8.49,0.38,8.49,0.37,-0.41,-0.50,-1.13,8.08,8.08,8.12
39.34,8.47,0.35,8.47,0.35,-0.42,-0.49,-1.07,8.05,8.05,8.12
39.74,8.44,0.36,8.44,0.37,-0.44,-0.49,-1.01,8.00,8.00,8.08
40.14,8.41,0.41,8.41,0.43,-0.47,-0.49,-0.95,7.94,7.94,8.00
40.54,8.38,0.51,8.38,0.50,-0.51,-0.48,-0.90,7.88,7.88,7.87
40.94,8.35,0.57,8.35,0.57,-0.54,-0.46,-0.84,7.81,7.81,7.77
41.35,8.31,0.61,8.31,0.62,-0.55,-0.44,-0.78,7.76,7.76,7.71
41.76,8.27,0.63,8.27,0.61,-0.54,-0.41,-0.72,7.73,7.73,7.64
42.18,8.23,0.57,8.23,0.56,-0.50,-0.37,-0.67,7.73,7.73,7.66
42.60,8.19,0.46,8.19,0.47,-0.43,-0.32,-0.61,7.76,7.76,7.73
43.03,8.14,0.34,8.14,0.34,-0.34,-0.27,-0.55,7.81,7.81,7.80
43.46,8.10,0.22,8.10,0.22,-0.24,-0.22,-0.50,7.86,7.86,7.88
43.90,8.05,0.10,8.05,0.10,-0.14,-0.17,-0.44,7.91,7.91,7.94
44.33,8.00,-0.01,8.00,0.00,-0.06,-0.12,-0.39,7.93,7.93,8.01
44.78,7.95,-0.07,7.95,-0.06,-0.01,-0.07,-0.33,7.94,7.94,8.02
45.23,7.90,-0.08,7.90,-0.08,0.02,-0.03,-0.28,7.92,7.93,7.98
45.68,7.86,-0.06,7.86,-0.06,0.04,0.01,-0.22,7.89,7.89,7.92
46.13,7.81,-0.03,7.81,-0.03,0.04,0.05,-0.17,7.86,7.86,7.84
46.60,7.77,-0.00,7.77,-0.00,0.05,0.09,-0.11,7.82,7.82,7.77
47.06,7.73,0.01,7.73,0.00,0.07,0.13,-0.06,7.80,7.80,7.72
47.53,7.68,-0.03,7.69,-0.04,0.09,0.16,-0.01,7.78,7.78,7.72
48.01,7.65,-0.11,7.65,-0.12,0.13,0.19,0.04,7.78,7.78,7.76
48.49,7.61,-0.22,7.61,-0.22,0.19,0.22,0.10,7.80,7.80,7.83
48.97,7.58,-0.32,7.58,-0.30,0.26,0.25,0.15,7.84,7.84,7.90
49.46,7.54,-0.37,7.54,-0.37,0.35,0.28,0.20,7.89,7.89,7.92
49.96,7.50,-0.41,7.50,-0.42,0.43,0.30,0.25,7.94,7.94,7.92
50.46,7.46,-0.45,7.46,-0.48,0.51,0.33,0.30,7.97,7.97,7.92
50.96,7.42,-0.56,7.42,-0.56,0.58,0.36,0.35,8.00,8.00,7.97
51.47,7.37,-0.65,7.37,-0.63,0.63,0.38,0.40,8.00,8.00,8.02
51.99,7.32,-0.70,7.32,-0.68,0.65,0.40,0.45,7.97,7.97,8.02
52.51,7.27,-0.69,7.27,-0.70,0.64,0.43,0.49,7.91,7.91,7.95
53.03,7.21,-0.67,7.21,-0.68,0.61,0.45,0.54,7.82,7.82,7.88
53.56,7.16,-0.64,7.16,-0.63,0.57,0.47,0.59,7.72,7.73,7.80
54.10,7.11,-0.56,7.11,-0.54,0.51,0.49,0.63,7.62,7.62,7.67
54.64,7.06,-0.43,7.06,-0.42,0.45,0.52,0.68,7.52,7.52,7.49
55.18,7.01,-0.29,7.01,-0.32,0.41,0.54,0.72,7.43,7.42,7.30
55.74,6.96,-0.27,6.96,-0.28,0.39,0.56,0.76,7.35,7.35,7.24
56.29,6.91,-0.31,6.91,-0.31,0.38,0.58,0.80,7.29,7.29,7.22
56.86,6.86,-0.38,6.86,-0.39,0.40,0.60,0.84,7.26,7.26,7.23
57.42,6.82,-0.49,6.82,-0.47,0.44,0.62,0.88,7.25,7.25,7.31
58.00,6.78,-0.54,6.78,-0.54,0.48,0.64,0.91,7.26,7.26,7.32
58.58,6.74,-0.57,6.74,-0.58,0.52,0.66,0.95,7.26,7.26,7.32
59.16,6.70,-0.61,6.70,-0.60,0.56,0.68,0.98,7.26,7.26,7.32
59.76,6.66,-0.60,6.66,-0.60,0.58,0.70,1.01,7.23,7.23,7.25
60.35,6.61,-0.58,6.61,-0.59,0.58,0.72,1.04,7.19,7.19,7.19
60.96,6.55,-0.57,6.55,-0.57,0.58,0.74,1.06,7.13,7.13,7.12
61.57,6.49,-0.56,6.49,-0.55,0.58,0.76,1.09,7.06,7.06,7.04
62.18,6.42,-0.55,6.42,-0.55,0.58,0.79,1.11,7.00,7.00,6.97
62.80,6.36,-0.56,6.36,-0.57,0.60,0.81,1.13,6.96,6.96,6.92
63.43,6.29,-0.62,6.29,-0.62,0.63,0.83,1.15,6.92,6.92,6.92
64.07,6.23,-0.68,6.23,-0.67,0.67,0.85,1.16,6.90,6.90,6.92
64.71,6.18,-0.74,6.18,-0.74,0.73,0.87,1.18,6.91,6.91,6.92
65.35,6.13,-0.79,6.13,-0.81,0.80,0.89,1.19,6.93,6.93,6.92
66.01,6.08,-0.88,6.08,-0.88,0.88,0.91,1.20,6.97,6.97,6.97
66.67,6.04,-0.97,6.04,-0.95,0.97,0.93,1.21,7.01,7.01,7.02
67.33,6.00,-1.01,6.00,-1.03,1.06,0.95,1.22,7.06,7.06,7.02
68.01,5.96,-1.12,5.96,-1.14,1.14,0.97,1.22,7.10,7.10,7.08
68.69,5.91,-1.24,5.91,-1.23,1.22,0.99,1.23,7.13,7.13,7.14
69.37,5.86,-1.36,5.86,-1.31,1.29,1.01,1.23,7.15,7.15,7.21
70.07,5.81,-1.34,5.81,-1.36,1.34,1.03,1.24,7.14,7.14,7.15
70.77,5.76,-1.36,5.76,-1.39,1.36,1.05,1.24,7.12,7.12,7.12
71.48,5.71,-1.41,5.71,-1.39,1.36,1.07,1.24,7.07,7.07,7.12
72.19,5.66,-1.39,5.66,-1.38,1.33,1.09,1.24,6.99,6.99,7.05
72.91,5.61,-1.33,5.61,-1.32,1.29,1.11,1.24,6.90,6.90,6.93
73.64,5.55,-1.24,5.55,-1.24,1.25,1.13,1.24,6.80,6.80,6.79
74.38,5.50,-1.16,5.50,-1.17,1.20,1.15,1.24,6.70,6.70,6.66
75.12,5.44,-1.12,5.44,-1.12,1.17,1.17,1.24,6.62,6.61,6.57
75.87,5.39,-1.11,5.38,-1.10,1.16,1.19,1.24,6.54,6.54,6.50
76.63,5.33,-1.10,5.33,-1.12,1.16,1.21,1.24,6.48,6.48,6.43
77.40,5.27,-1.15,5.27,-1.15,1.18,1.24,1.24,6.44,6.44,6.42
78.17,5.21,-1.20,5.21,-1.20,1.20,1.26,1.24,6.42,6.42,6.42
78.95,5.16,-1.26,5.16,-1.26,1.24,1.28,1.25,6.39,6.39,6.42
79.74,5.10,-1.31,5.10,-1.30,1.26,1.30,1.25,6.36,6.36,6.42
80.54,5.06,-1.33,5.06,-1.32,1.26,1.32,1.25,6.32,6.32,6.39
81.35,5.01,-1.31,5.01,-1.32,1.26,1.34,1.25,6.27,6.27,6.32
82.16,4.96,-1.29,4.96,-1.28,1.25,1.36,1.26,6.21,6.21,6.25
82.98,4.90,-1.25,4.90,-1.23,1.24,1.38,1.26,6.15,6.15,6.15
83.81,4.85,-1.17,4.84,-1.19,1.25,1.40,1.27,6.09,6.09,6.01
84.65,4.78,-1.17,4.78,-1.17,1.26,1.42,1.28,6.04,6.04,5.94
85.50,4.71,-1.21,4.71,-1.21,1.29,1.44,1.29,6.00,6.00,5.92
86.35,4.64,-1.29,4.64,-1.30,1.33,1.46,1.29,5.97,5.97,5.93
87.22,4.57,-1.42,4.57,-1.40,1.37,1.48,1.30,5.94,5.94,5.99
88.09,4.52,-1.50,4.52,-1.50,1.42,1.49,1.32,5.93,5.94,6.02
88.97,4.48,-1.54,4.48,-1.55,1.46,1.51,1.33,5.94,5.94,6.02
89.86,4.44,-1.57,4.44,-1.54,1.50,1.53,1.34,5.94,5.94,6.02
90.76,4.40,-1.50,4.40,-1.52,1.52,1.55,1.36,5.92,5.92,5.90
91.66,4.35,-1.47,4.35,-1.50,1.53,1.57,1.37,5.88,5.88,5.82
92.58,4.29,-1.53,4.29,-1.50,1.53,1.59,1.39,5.82,5.82,5.82
93.51,4.21,-1.54,4.21,-1.54,1.55,1.60,1.40,5.76,5.76,5.75
94.44,4.12,-1.57,4.12,-1.57,1.58,1.62,1.42,5.70,5.70,5.68
95.39,4.00,-1.62,4.00,-1.59,1.64,1.64,1.44,5.64,5.64,5.62
96.34,3.86,-1.62,3.86,-1.64,1.72,1.66,1.46,5.58,5.58,5.48
97.30,3.70,-1.71,3.70,-1.74,1.80,1.67,1.48,5.50,5.50,5.42
98.28,3.54,-1.88,3.54,-1.87,1.87,1.69,1.51,5.41,5.41,5.42
99.26,3.40,-2.01,3.41,-2.00,1.92,1.70,1.53,5.32,5.33,5.42
100.25,3.33,-2.09,3.34,-2.07,1.95,1.72,1.55,5.27,5.29,5.42
101.25,3.33,-2.07,3.34,-2.05,1.96,1.73,1.57,5.29,5.29,5.40
102.27,3.38,-1.97,3.38,-1.98,1.95,1.75,1.60,5.33,5.33,5.35
103.29,3.44,-1.87,3.44,-1.89,1.92,1.76,1.62,5.36,5.36,5.32
104.32,3.49,-1.81,3.48,-1.80,1.88,1.77,1.65,5.37,5.36,5.30
105.37,3.50,-1.75,3.50,-1.76,1.82,1.79,1.67,5.32,5.32,5.25
106.42,3.48,-1.74,3.48,-1.74,1.78,1.80,1.70,5.26,5.26,5.22
107.48,3.44,-1.75,3.43,-1.75,1.76,1.81,1.72,5.19,5.19,5.19
108.56,3.37,-1.77,3.37,-1.76,1.75,1.82,1.74,5.12,5.12,5.14
109.64,3.29,-1.76,3.29,-1.78,1.76,1.83,1.77,5.05,5.05,5.05
110.74,3.20,-1.78,3.20,-1.78,1.77,1.84,1.79,4.97,4.97,4.98
111.85,3.12,-1.81,3.12,-1.79,1.79,1.85,1.81,4.90,4.90,4.92
112.97,3.04,-1.78,3.04,-1.82,1.79,1.85,1.83,4.84,4.84,4.82
114.10,2.98,-1.84,2.98,-1.83,1.80,1.86,1.85,4.78,4.78,4.82
115.24,2.92,-1.87,2.92,-1.83,1.82,1.86,1.87,4.74,4.74,4.79
116.39,2.87,-1.80,2.87,-1.82,1.84,1.87,1.89,4.71,4.71,4.68
117.55,2.83,-1.79,2.83,-1.81,1.86,1.87,1.90,4.69,4.68,4.62
118.73,2.78,-1.83,2.78,-1.83,1.87,1.88,1.92,4.65,4.65,4.62
119.92,2.73,-1.88,2.73,-1.88,1.88,1.88,1.93,4.61,4.61,4.62
121.12,2.68,-1.93,2.68,-1.94,1.88,1.88,1.94,4.57,4.56,4.62
122.33,2.63,-1.97,2.62,-1.95,1.89,1.88,1.94,4.52,4.52,4.60
123.55,2.57,-1.97,2.57,-1.93,1.90,1.87,1.95,4.47,4.47,4.54
124.79,2.52,-1.84,2.52,-1.88,1.92,1.87,1.95,4.44,4.44,4.36
126.03,2.48,-1.84,2.48,-1.85,1.93,1.86,1.95,4.41,4.41,4.32
127.29,2.44,-1.87,2.44,-1.86,1.93,1.86,1.95,4.37,4.37,4.32
128.57,2.41,-1.91,2.41,-1.91,1.92,1.85,1.95,4.32,4.32,4.32
129.85,2.38,-1.93,2.38,-1.94,1.89,1.84,1.94,4.27,4.27,4.32
131.15,2.35,-1.95,2.36,-1.94,1.85,1.83,1.94,4.21,4.21,4.31
132.46,2.35,-1.90,2.35,-1.88,1.81,1.81,1.93,4.15,4.16,4.24
133.79,2.35,-1.79,2.34,-1.79,1.76,1.80,1.91,4.10,4.10,4.14
135.12,2.34,-1.66,2.34,-1.69,1.70,1.78,1.90,4.05,4.05,4.01
136.48,2.34,-1.60,2.34,-1.57,1.65,1.76,1.89,3.98,3.98,3.94
137.84,2.32,-1.51,2.32,-1.51,1.59,1.74,1.87,3.91,3.91,3.83
139.22,2.29,-1.43,2.29,-1.49,1.54,1.72,1.85,3.83,3.83,3.73
140.61,2.26,-1.53,2.26,-1.50,1.50,1.69,1.83,3.76,3.76,3.80
142.02,2.22,-1.54,2.22,-1.52,1.48,1.67,1.81,3.70,3.70,3.76
143.44,2.18,-1.51,2.18,-1.52,1.47,1.64,1.79,3.65,3.65,3.69
144.87,2.13,-1.49,2.13,-1.49,1.47,1.61,1.77,3.60,3.60,3.62
146.32,2.08,-1.47,2.08,-1.46,1.47,1.59,1.75,3.55,3.55,3.55
147.78,2.03,-1.45,2.03,-1.45,1.48,1.56,1.73,3.50,3.50,3.48
149.26,1.98,-1.44,1.98,-1.46,1.48,1.54,1.71,3.46,3.46,3.42
150.75,1.92,-1.49,1.92,-1.47,1.50,1.52,1.69,3.42,3.42,3.42
152.26,1.86,-1.51,1.86,-1.50,1.52,1.51,1.66,3.38,3.38,3.37
153.78,1.80,-1.52,1.80,-1.54,1.54,1.49,1.64,3.34,3.34,3.32
155.32,1.74,-1.57,1.75,-1.58,1.56,1.49,1.62,3.31,3.31,3.32
156.88,1.69,-1.62,1.69,-1.61,1.59,1.49,1.60,3.28,3.28,3.32
158.44,1.65,-1.65,1.65,-1.63,1.60,1.50,1.58,3.25,3.25,3.29
160.03,1.61,-1.61,1.61,-1.62,1.60,1.50,1.56,3.21,3.21,3.21
161.63,1.57,-1.59,1.57,-1.60,1.60,1.51,1.55,3.16,3.16,3.16
163.24,1.52,-1.58,1.52,-1.57,1.58,1.52,1.53,3.10,3.10,3.10
164.88,1.48,-1.54,1.48,-1.55,1.55,1.54,1.51,3.03,3.03,3.02
166.53,1.44,-1.53,1.44,-1.53,1.52,1.55,1.50,2.96,2.96,2.96
168.19,1.39,-1.51,1.39,-1.50,1.49,1.56,1.48,2.88,2.88,2.91
169.87,1.35,-1.48,1.35,-1.48,1.46,1.58,1.47,2.81,2.81,2.82
171.57,1.30,-1.44,1.30,-1.44,1.46,1.59,1.46,2.75,2.75,2.74
173.29,1.24,-1.43,1.24,-1.43,1.46,1.60,1.44,2.71,2.71,2.67
175.02,1.19,-1.42,1.19,-1.44,1.48,1.60,1.43,2.68,2.68,2.62
176.77,1.14,-1.47,1.14,-1.47,1.51,1.61,1.43,2.65,2.65,2.62
178.54,1.09,-1.52,1.09,-1.53,1.55,1.62,1.42,2.64,2.64,2.62
180.32,1.04,-1.58,1.04,-1.60,1.58,1.62,1.41,2.62,2.62,2.63
182.13,1.00,-1.69,1.00,-1.66,1.61,1.62,1.41,2.61,2.61,2.69
183.95,0.96,-1.71,0.96,-1.69,1.63,1.62,1.40,2.59,2.59,2.67
185.79,0.93,-1.66,0.93,-1.68,1.64,1.62,1.40,2.57,2.57,2.59
187.65,0.90,-1.63,0.90,-1.63,1.63,1.62,1.39,2.53,2.53,2.53
189.52,0.87,-1.59,0.87,-1.59,1.61,1.62,1.39,2.48,2.48,2.46
191.42,0.84,-1.56,0.84,-1.56,1.57,1.61,1.39,2.41,2.42,2.40
193.33,0.82,-1.51,0.83,-1.53,1.53,1.61,1.39,2.35,2.35,2.34
195.27,0.81,-1.50,0.82,-1.49,1.49,1.60,1.39,2.30,2.30,2.32
197.22,0.81,-1.47,0.81,-1.46,1.46,1.60,1.40,2.26,2.26,2.27
199.19,0.79,-1.42,0.78,-1.43,1.44,1.59,1.40,2.23,2.22,2.21
201.18,0.74,-1.40,0.74,-1.40,1.44,1.58,1.40,2.17,2.17,2.14
203.19,0.67,-1.40,0.67,-1.41,1.44,1.58,1.41,2.11,2.11,2.08
205.23,0.59,-1.42,0.59,-1.44,1.45,1.57,1.41,2.04,2.04,2.02
207.28,0.52,-1.50,0.52,-1.47,1.47,1.56,1.42,1.99,1.99,2.02
209.35,0.45,-1.52,0.45,-1.52,1.49,1.55,1.42,1.94,1.94,1.97
211.44,0.39,-1.52,0.39,-1.55,1.52,1.54,1.43,1.92,1.92,1.92
213.56,0.34,-1.58,0.34,-1.56,1.56,1.53,1.44,1.89,1.89,1.92
215.69,0.29,-1.57,0.29,-1.57,1.58,1.52,1.44,1.87,1.87,1.86
217.85,0.24,-1.58,0.24,-1.59,1.60,1.52,1.45,1.84,1.84,1.82
220.03,0.20,-1.62,0.20,-1.62,1.61,1.51,1.46,1.81,1.81,1.82
222.23,0.17,-1.65,0.17,-1.64,1.62,1.50,1.46,1.79,1.79,1.82
224.45,0.13,-1.67,0.13,-1.65,1.63,1.49,1.47,1.76,1.76,1.80
226.70,0.10,-1.62,0.10,-1.62,1.62,1.48,1.48,1.73,1.73,1.73
228.96,0.07,-1.58,0.07,-1.60,1.62,1.47,1.48,1.69,1.69,1.65
231.25,0.04,-1.58,0.03,-1.59,1.60,1.46,1.49,1.64,1.64,1.62
233.57,-0.00,-1.62,-0.00,-1.59,1.59,1.45,1.49,1.58,1.58,1.62
235.90,-0.04,-1.59,-0.04,-1.59,1.57,1.44,1.49,1.53,1.53,1.55
238.26,-0.08,-1.55,-0.08,-1.56,1.55,1.43,1.50,1.47,1.47,1.47
240.64,-0.12,-1.52,-0.12,-1.52,1.54,1.42,1.50,1.42,1.42,1.40
243.05,-0.15,-1.49,-0.15,-1.51,1.53,1.41,1.50,1.37,1.38,1.34
245.48,-0.19,-1.50,-0.19,-1.50,1.52,1.41,1.50,1.33,1.33,1.32
247.93,-0.22,-1.52,-0.22,-1.50,1.51,1.40,1.50,1.28,1.28,1.29
250.41,-0.26,-1.49,-0.26,-1.52,1.49,1.39,1.49,1.23,1.23,1.23
252.92,-0.30,-1.51,-0.30,-1.50,1.48,1.38,1.49,1.18,1.18,1.22
255.45,-0.34,-1.52,-0.34,-1.48,1.46,1.37,1.48,1.13,1.13,1.19
258.00,-0.38,-1.39,-0.38,-1.45,1.45,1.36,1.48,1.07,1.07,1.02
260.58,-0.42,-1.43,-0.42,-1.43,1.43,1.36,1.47,1.02,1.02,1.02
263.19,-0.45,-1.44,-0.45,-1.41,1.42,1.35,1.46,0.97,0.97,0.99
265.82,-0.49,-1.41,-0.49,-1.40,1.42,1.34,1.45,0.93,0.93,0.92
268.48,-0.52,-1.37,-0.52,-1.38,1.41,1.33,1.44,0.89,0.89,0.85
271.16,-0.56,-1.37,-0.56,-1.39,1.41,1.33,1.43,0.85,0.85,0.82
273.87,-0.59,-1.41,-0.59,-1.41,1.40,1.32,1.42,0.81,0.81,0.82
276.61,-0.63,-1.44,-0.63,-1.43,1.40,1.31,1.41,0.77,0.77,0.82
279.38,-0.66,-1.44,-0.66,-1.43,1.39,1.31,1.40,0.73,0.73,0.78
282.17,-0.69,-1.41,-0.69,-1.41,1.39,1.30,1.38,0.69,0.69,0.71
284.99,-0.73,-1.37,-0.73,-1.36,1.38,1.29,1.37,0.65,0.65,0.64
287.84,-0.76,-1.32,-0.76,-1.33,1.36,1.29,1.36,0.61,0.61,0.57
290.72,-0.78,-1.30,-0.78,-1.31,1.34,1.28,1.34,0.56,0.56,0.52
293.63,-0.80,-1.32,-0.80,-1.32,1.32,1.28,1.33,0.51,0.51,0.52
296.57,-0.82,-1.33,-0.82,-1.32,1.29,1.27,1.32,0.47,0.47,0.52
299.53,-0.83,-1.31,-0.83,-1.30,1.26,1.27,1.30,0.43,0.43,0.48
302.53,-0.83,-1.26,-0.83,-1.25,1.24,1.26,1.29,0.40,0.40,0.42
305.55,-0.84,-1.19,-0.84,-1.20,1.22,1.26,1.28,0.38,0.38,0.35
308.61,-0.85,-1.16,-0.85,-1.17,1.21,1.25,1.26,0.36,0.36,0.32
311.69,-0.86,-1.17,-0.86,-1.17,1.21,1.25,1.25,0.35,0.35,0.32
314.81,-0.87,-1.19,-0.87,-1.18,1.21,1.24,1.24,0.34,0.34,0.32
317.96,-0.89,-1.20,-0.89,-1.20,1.22,1.24,1.23,0.33,0.33,0.32
321.14,-0.90,-1.22,-0.90,-1.22,1.22,1.23,1.22,0.32,0.32,0.32
324.35,-0.92,-1.24,-0.92,-1.24,1.22,1.23,1.21,0.30,0.30,0.32
327.59,-0.94,-1.26,-0.94,-1.26,1.21,1.22,1.20,0.26,0.27,0.32
330.87,-0.96,-1.26,-0.96,-1.25,1.18,1.22,1.19,0.22,0.21,0.30
334.18,-0.98,-1.22,-0.98,-1.21,1.14,1.21,1.19,0.16,0.16,0.23
337.52,-1.01,-1.12,-1.01,-1.11,1.10,1.21,1.18,0.10,0.10,0.11
340.90,-1.03,-1.01,-1.03,-1.01,1.07,1.21,1.18,0.03,0.04,-0.02
344.30,-1.06,-0.90,-1.06,-0.95,1.03,1.20,1.17,-0.02,-0.02,-0.16
347.75,-1.08,-0.95,-1.08,-0.95,1.01,1.20,1.17,-0.07,-0.07,-0.13
351.23,-1.10,-1.02,-1.11,-0.99,1.01,1.19,1.17,-0.10,-0.10,-0.08
354.74,-1.13,-1.05,-1.13,-1.05,1.02,1.19,1.16,-0.11,-0.11,-0.08
358.28,-1.16,-1.07,-1.16,-1.08,1.06,1.18,1.16,-0.10,-0.10,-0.08
361.87,-1.18,-1.10,-1.18,-1.10,1.10,1.18,1.16,-0.08,-0.08,-0.08
365.49,-1.21,-1.12,-1.21,-1.12,1.14,1.18,1.16,-0.07,-0.07,-0.08
369.14,-1.23,-1.15,-1.23,-1.18,1.16,1.17,1.17,-0.07,-0.07,-0.08
372.83,-1.26,-1.21,-1.26,-1.22,1.17,1.17,1.17,-0.08,-0.08,-0.05
376.56,-1.28,-1.28,-1.28,-1.22,1.17,1.16,1.17,-0.11,-0.11,-0.00
380.33,-1.30,-1.17,-1.30,-1.18,1.15,1.16,1.18,-0.15,-0.15,-0.13
384.13,-1.33,-1.10,-1.33,-1.13,1.13,1.15,1.18,-0.20,-0.20,-0.23
387.97,-1.35,-1.07,-1.35,-1.08,1.11,1.15,1.19,-0.24,-0.24,-0.28
391.85,-1.37,-1.09,-1.37,-1.06,1.10,1.14,1.19,-0.28,-0.28,-0.28
395.77,-1.39,-1.05,-1.39,-1.04,1.08,1.14,1.20,-0.31,-0.31,-0.34
399.73,-1.41,-1.02,-1.41,-1.04,1.07,1.13,1.21,-0.34,-0.34,-0.38
403.72,-1.43,-1.04,-1.43,-1.07,1.07,1.12,1.22,-0.36,-0.36,-0.38
407.76,-1.44,-1.12,-1.44,-1.10,1.08,1.12,1.22,-0.37,-0.37,-0.32
411.84,-1.46,-1.14,-1.46,-1.12,1.09,1.11,1.23,-0.37,-0.37,-0.32
415.96,-1.47,-1.09,-1.47,-1.12,1.10,1.11,1.24,-0.37,-0.37,-0.38
420.12,-1.49,-1.10,-1.49,-1.11,1.11,1.10,1.25,-0.37,-0.37,-0.38
424.32,-1.50,-1.11,-1.50,-1.11,1.12,1.09,1.26,-0.38,-0.38,-0.38
428.56,-1.51,-1.12,-1.51,-1.13,1.12,1.09,1.27,-0.39,-0.39,-0.38
432.85,-1.52,-1.14,-1.52,-1.12,1.11,1.08,1.28,-0.41,-0.41,-0.38
437.18,-1.54,-1.11,-1.54,-1.10,1.11,1.07,1.29,-0.43,-0.43,-0.43
441.55,-1.55,-1.07,-1.55,-1.09,1.11,1.06,1.30,-0.45,-0.45,-0.48
445.96,-1.57,-1.08,-1.57,-1.09,1.10,1.06,1.30,-0.47,-0.47,-0.48
450.42,-1.59,-1.10,-1.59,-1.09,1.09,1.05,1.31,-0.50,-0.50,-0.48
454.93,-1.60,-1.10,-1.60,-1.08,1.07,1.04,1.32,-0.53,-0.53,-0.50
459.48,-1.62,-1.04,-1.62,-1.07,1.05,1.03,1.32,-0.57,-0.57,-0.58
464.07,-1.63,-1.05,-1.63,-1.05,1.02,1.02,1.33,-0.61,-0.61,-0.58
468.71,-1.64,-1.03,-1.64,-1.01,0.99,1.01,1.33,-0.65,-0.65,-0.61
473.40,-1.65,-0.97,-1.65,-0.97,0.96,1.00,1.33,-0.69,-0.69,-0.68
478.13,-1.66,-0.91,-1.65,-0.92,0.93,1.00,1.33,-0.72,-0.72,-0.74
482.91,-1.66,-0.87,-1.66,-0.88,0.91,0.99,1.33,-0.75,-0.75,-0.78
487.74,-1.66,-0.88,-1.66,-0.87,0.91,0.98,1.33,-0.75,-0.75,-0.78
492.62,-1.67,-0.88,-1.67,-0.87,0.91,0.97,1.33,-0.75,-0.75,-0.78
497.55,-1.67,-0.89,-1.68,-0.89,0.92,0.96,1.32,-0.75,-0.75,-0.78
502.52,-1.69,-0.91,-1.69,-0.93,0.94,0.95,1.32,-0.75,-0.75,-0.78
507.55,-1.70,-0.99,-1.70,-0.98,0.94,0.94,1.31,-0.76,-0.76,-0.71
512.62,-1.71,-1.03,-1.71,-1.02,0.95,0.92,1.30,-0.76,-0.76,-0.68
517.75,-1.72,-1.03,-1.72,-1.01,0.95,0.91,1.29,-0.78,-0.78,-0.70
522.93,-1.73,-0.96,-1.73,-0.96,0.94,0.90,1.28,-0.79,-0.79,-0.77
528.16,-1.74,-0.90,-1.74,-0.90,0.94,0.89,1.26,-0.79,-0.79,-0.84
533.44,-1.74,-0.85,-1.74,-0.86,0.94,0.88,1.25,-0.80,-0.80,-0.88
538.77,-1.74,-0.85,-1.74,-0.87,0.93,0.87,1.23,-0.81,-0.81,-0.88
