frequency,raw,error,smoothed,error_smoothed,equalization,parametric_eq,fixed_band_eq,equalized_raw,equalized_smoothed,target
20.00,3.80,-1.62,3.81,-1.62,1.65,1.53,0.72,5.46,5.46,5.42
20.20,3.83,-1.65,3.82,-1.65,1.65,1.54,0.75,5.47,5.47,5.47
20.40,3.84,-1.68,3.84,-1.66,1.65,1.55,0.77,5.49,5.49,5.52
20.61,3.86,-1.66,3.86,-1.66,1.64,1.56,0.79,5.50,5.50,5.52
20.81,3.88,-1.64,3.88,-1.64,1.63,1.57,0.82,5.51,5.51,5.52
21.02,3.90,-1.62,3.90,-1.62,1.63,1.58,0.84,5.53,5.53,5.52
21.23,3.93,-1.60,3.93,-1.62,1.62,1.59,0.87,5.54,5.55,5.53
21.44,3.96,-1.62,3.96,-1.61,1.61,1.60,0.89,5.57,5.57,5.58
21.66,4.01,-1.62,4.00,-1.60,1.59,1.60,0.92,5.60,5.60,5.62
21.87,4.05,-1.57,4.05,-1.57,1.58,1.61,0.95,5.62,5.62,5.62
22.09,4.09,-1.53,4.09,-1.55,1.56,1.62,0.98,5.65,5.65,5.62
22.31,4.13,-1.53,4.13,-1.54,1.55,1.62,1.01,5.68,5.68,5.66
22.54,4.16,-1.56,4.16,-1.54,1.54,1.63,1.04,5.70,5.70,5.72
22.76,4.18,-1.54,4.18,-1.54,1.53,1.64,1.07,5.71,5.71,5.72
22.99,4.20,-1.53,4.19,-1.53,1.53,1.64,1.10,5.73,5.73,5.72
23.22,4.20,-1.52,4.20,-1.52,1.54,1.65,1.13,5.74,5.74,5.72
23.45,4.21,-1.51,4.21,-1.53,1.54,1.65,1.16,5.75,5.75,5.72
23.69,4.22,-1.56,4.22,-1.55,1.55,1.65,1.20,5.77,5.77,5.79
23.92,4.24,-1.59,4.24,-1.57,1.56,1.66,1.23,5.80,5.80,5.82
24.16,4.26,-1.57,4.26,-1.59,1.57,1.66,1.27,5.83,5.83,5.82
24.40,4.28,-1.61,4.28,-1.60,1.59,1.66,1.30,5.87,5.87,5.89
24.65,4.30,-1.62,4.30,-1.60,1.62,1.67,1.34,5.92,5.92,5.92
24.89,4.33,-1.60,4.33,-1.62,1.65,1.67,1.37,5.97,5.97,5.92
25.14,4.34,-1.64,4.34,-1.65,1.67,1.67,1.41,6.01,6.01,5.98
25.39,4.36,-1.69,4.36,-1.69,1.69,1.67,1.45,6.05,6.05,6.05
25.65,4.37,-1.75,4.37,-1.73,1.71,1.67,1.48,6.08,6.08,6.12
25.91,4.38,-1.75,4.38,-1.75,1.73,1.67,1.52,6.10,6.10,6.12
26.16,4.38,-1.74,4.38,-1.75,1.74,1.67,1.56,6.12,6.12,6.12
26.43,4.39,-1.73,4.39,-1.73,1.74,1.67,1.59,6.13,6.13,6.12
26.69,4.40,-1.73,4.40,-1.73,1.73,1.67,1.63,6.13,6.13,6.12
26.96,4.41,-1.71,4.41,-1.72,1.71,1.67,1.66,6.12,6.12,6.12
27.23,4.42,-1.70,4.42,-1.70,1.68,1.66,1.69,6.10,6.10,6.12
27.50,4.44,-1.68,4.44,-1.66,1.64,1.66,1.73,6.08,6.08,6.12
27.77,4.46,-1.60,4.46,-1.61,1.60,1.66,1.76,6.06,6.06,6.07
28.05,4.49,-1.53,4.49,-1.55,1.55,1.66,1.79,6.05,6.05,6.02
28.33,4.53,-1.50,4.53,-1.49,1.51,1.65,1.82,6.04,6.04,6.02
28.62,4.56,-1.46,4.56,-1.47,1.48,1.65,1.84,6.04,6.04,6.02
28.90,4.61,-1.44,4.61,-1.45,1.45,1.64,1.87,6.06,6.06,6.05
29.19,4.65,-1.47,4.65,-1.44,1.44,1.64,1.89,6.10,6.10,6.12
29.48,4.70,-1.42,4.70,-1.43,1.45,1.63,1.91,6.15,6.15,6.12
29.78,4.74,-1.42,4.74,-1.44,1.47,1.62,1.92,6.22,6.22,6.17
30.08,4.78,-1.47,4.78,-1.48,1.51,1.62,1.94,6.29,6.29,6.25
30.38,4.81,-1.57,4.81,-1.54,1.55,1.61,1.95,6.36,6.35,6.37
30.68,4.82,-1.60,4.82,-1.60,1.59,1.60,1.96,6.41,6.41,6.42
30.99,4.81,-1.63,4.81,-1.65,1.63,1.60,1.96,6.45,6.44,6.44
31.30,4.80,-1.70,4.80,-1.67,1.66,1.59,1.97,6.46,6.46,6.50
31.61,4.78,-1.69,4.78,-1.69,1.67,1.58,1.97,6.45,6.45,6.47
31.93,4.76,-1.66,4.76,-1.69,1.66,1.57,1.96,6.42,6.42,6.42
32.24,4.75,-1.67,4.75,-1.66,1.62,1.56,1.96,6.37,6.37,6.42
32.57,4.75,-1.62,4.75,-1.61,1.57,1.55,1.95,6.32,6.32,6.37
32.89,4.76,-1.53,4.77,-1.53,1.51,1.54,1.94,6.28,6.28,6.30
33.22,4.79,-1.43,4.79,-1.43,1.46,1.53,1.92,6.24,6.24,6.22
33.55,4.81,-1.34,4.81,-1.35,1.40,1.52,1.91,6.21,6.21,6.15
33.89,4.83,-1.30,4.82,-1.30,1.36,1.51,1.89,6.18,6.18,6.12
34.23,4.83,-1.29,4.83,-1.29,1.32,1.50,1.86,6.15,6.15,6.12
34.57,4.82,-1.30,4.82,-1.30,1.31,1.48,1.84,6.13,6.13,6.12
34.92,4.80,-1.32,4.80,-1.32,1.30,1.47,1.82,6.11,6.11,6.12
35.27,4.78,-1.34,4.79,-1.34,1.31,1.46,1.79,6.10,6.10,6.12
35.62,4.77,-1.35,4.78,-1.34,1.33,1.45,1.76,6.10,6.10,6.12
35.97,4.77,-1.35,4.78,-1.35,1.35,1.44,1.73,6.12,6.12,6.12
36.33,4.79,-1.36,4.79,-1.37,1.36,1.42,1.70,6.15,6.15,6.15
36.70,4.80,-1.40,4.80,-1.39,1.39,1.41,1.67,6.19,6.19,6.21
37.06,4.82,-1.41,4.81,-1.40,1.41,1.40,1.64,6.23,6.23,6.22
37.43,4.82,-1.40,4.82,-1.41,1.44,1.38,1.61,6.26,6.26,6.22
37.81,4.81,-1.41,4.81,-1.44,1.47,1.37,1.58,6.28,6.28,6.22
38.19,4.80,-1.48,4.80,-1.48,1.50,1.35,1.54,6.30,6.30,6.28
38.57,4.78,-1.54,4.78,-1.53,1.51,1.34,1.51,6.30,6.30,6.32
38.95,4.77,-1.55,4.77,-1.56,1.51,1.33,1.48,6.29,6.29,6.32
39.34,4.77,-1.56,4.77,-1.55,1.49,1.31,1.45,6.26,6.26,6.32
39.74,4.77,-1.51,4.77,-1.51,1.45,1.30,1.41,6.22,6.22,6.28
40.14,4.78,-1.44,4.78,-1.44,1.39,1.28,1.38,6.17,6.18,6.22
40.54,4.80,-1.35,4.81,-1.34,1.32,1.27,1.35,6.13,6.13,6.15
40.94,4.84,-1.24,4.84,-1.24,1.26,1.25,1.32,6.10,6.10,6.08
41.35,4.88,-1.15,4.88,-1.16,1.21,1.24,1.29,6.09,6.09,6.02
41.76,4.91,-1.11,4.91,-1.10,1.19,1.22,1.27,6.10,6.10,6.02
42.18,4.93,-1.09,4.93,-1.10,1.19,1.21,1.24,6.12,6.12,6.02
42.60,4.94,-1.12,4.93,-1.16,1.23,1.19,1.21,6.16,6.16,6.06
43.03,4.93,-1.27,4.93,-1.25,1.27,1.17,1.19,6.20,6.20,6.20
43.46,4.91,-1.37,4.91,-1.37,1.32,1.16,1.16,6.23,6.24,6.28
43.90,4.90,-1.45,4.90,-1.46,1.36,1.14,1.14,6.27,6.27,6.35
44.33,4.90,-1.52,4.90,-1.48,1.39,1.13,1.11,6.29,6.29,6.41
44.78,4.90,-1.46,4.90,-1.46,1.40,1.11,1.09,6.29,6.29,6.36
45.23,4.90,-1.39,4.90,-1.40,1.38,1.09,1.07,6.28,6.28,6.29
45.68,4.91,-1.32,4.91,-1.31,1.34,1.08,1.05,6.25,6.25,6.23
46.13,4.92,-1.23,4.91,-1.23,1.29,1.06,1.03,6.20,6.20,6.15
46.60,4.91,-1.17,4.91,-1.17,1.23,1.05,1.01,6.14,6.14,6.08
47.06,4.90,-1.12,4.90,-1.14,1.17,1.03,0.99,6.08,6.08,6.02
47.53,4.88,-1.14,4.88,-1.12,1.13,1.01,0.97,6.01,6.01,6.02
48.01,4.86,-1.12,4.86,-1.11,1.10,1.00,0.96,5.96,5.96,5.98
48.49,4.84,-1.08,4.84,-1.10,1.08,0.98,0.94,5.91,5.92,5.92
48.97,4.83,-1.09,4.83,-1.07,1.06,0.97,0.93,5.89,5.89,5.92
49.46,4.83,-1.04,4.83,-1.04,1.04,0.95,0.91,5.87,5.87,5.87
49.96,4.83,-0.99,4.82,-1.02,1.03,0.93,0.90,5.86,5.85,5.82
50.46,4.81,-1.01,4.81,-0.99,1.01,0.92,0.89,5.82,5.82,5.82
50.96,4.79,-0.97,4.80,-0.98,0.99,0.90,0.87,5.78,5.78,5.77
51.47,4.78,-0.95,4.78,-0.96,0.96,0.89,0.86,5.73,5.74,5.72
51.99,4.77,-0.96,4.77,-0.93,0.93,0.87,0.85,5.69,5.69,5.72
52.51,4.76,-0.90,4.76,-0.90,0.88,0.85,0.84,5.64,5.64,5.66
53.03,4.75,-0.84,4.75,-0.85,0.82,0.84,0.83,5.57,5.57,5.59
53.56,4.73,-0.79,4.73,-0.79,0.75,0.82,0.82,5.48,5.48,5.52
54.10,4.71,-0.74,4.71,-0.72,0.68,0.81,0.81,5.39,5.39,5.45
54.64,4.70,-0.64,4.70,-0.63,0.61,0.79,0.80,5.31,5.31,5.34
55.18,4.70,-0.52,4.70,-0.53,0.56,0.77,0.79,5.26,5.26,5.21
55.74,4.71,-0.44,4.70,-0.45,0.52,0.76,0.78,5.23,5.23,5.14
56.29,4.71,-0.41,4.71,-0.42,0.50,0.74,0.77,5.21,5.21,5.12
56.86,4.70,-0.44,4.70,-0.46,0.50,0.73,0.76,5.20,5.20,5.14
57.42,4.68,-0.53,4.68,-0.50,0.51,0.71,0.75,5.19,5.19,5.21
58.00,4.66,-0.57,4.67,-0.56,0.53,0.70,0.74,5.19,5.20,5.22
58.58,4.67,-0.58,4.67,-0.60,0.55,0.68,0.73,5.22,5.22,5.25
59.16,4.68,-0.64,4.68,-0.62,0.57,0.66,0.72,5.25,5.25,5.32
59.76,4.71,-0.61,4.71,-0.61,0.57,0.65,0.71,5.28,5.27,5.32
60.35,4.72,-0.57,4.72,-0.57,0.55,0.63,0.70,5.27,5.27,5.29
60.96,4.72,-0.51,4.71,-0.52,0.52,0.62,0.68,5.24,5.23,5.23
61.57,4.69,-0.47,4.68,-0.47,0.48,0.60,0.67,5.17,5.17,5.15
62.18,4.65,-0.43,4.65,-0.43,0.45,0.59,0.66,5.09,5.10,5.08
62.80,4.63,-0.40,4.63,-0.41,0.42,0.57,0.64,5.04,5.05,5.02
63.43,4.62,-0.40,4.63,-0.39,0.40,0.56,0.63,5.03,5.03,5.02
64.07,4.63,-0.39,4.63,-0.39,0.41,0.54,0.61,5.04,5.04,5.02
64.71,4.65,-0.39,4.64,-0.41,0.43,0.53,0.60,5.08,5.08,5.03
65.35,4.64,-0.47,4.64,-0.44,0.48,0.51,0.58,5.12,5.12,5.11
66.01,4.62,-0.50,4.61,-0.51,0.54,0.49,0.56,5.16,5.15,5.12
66.67,4.57,-0.57,4.58,-0.59,0.60,0.48,0.55,5.17,5.17,5.14
67.33,4.53,-0.68,4.53,-0.65,0.66,0.46,0.53,5.19,5.19,5.22
68.01,4.50,-0.73,4.50,-0.73,0.70,0.45,0.51,5.20,5.21,5.22
68.69,4.49,-0.76,4.49,-0.78,0.73,0.43,0.49,5.22,5.22,5.25
69.37,4.50,-0.82,4.50,-0.78,0.73,0.42,0.47,5.23,5.23,5.32
70.07,4.52,-0.74,4.52,-0.74,0.71,0.40,0.45,5.23,5.23,5.26
70.77,4.54,-0.65,4.53,-0.68,0.66,0.39,0.43,5.19,5.19,5.19
71.48,4.54,-0.59,4.54,-0.59,0.58,0.37,0.41,5.12,5.12,5.12
72.19,4.52,-0.53,4.52,-0.50,0.50,0.36,0.39,5.03,5.02,5.05
72.91,4.49,-0.41,4.49,-0.40,0.42,0.34,0.37,4.91,4.91,4.90
73.64,4.45,-0.26,4.45,-0.30,0.34,0.33,0.35,4.79,4.79,4.71
74.38,4.41,-0.23,4.41,-0.22,0.29,0.31,0.33,4.70,4.70,4.64
75.12,4.38,-0.19,4.38,-0.18,0.24,0.30,0.31,4.62,4.62,4.58
75.87,4.37,-0.16,4.37,-0.17,0.19,0.28,0.28,4.56,4.56,4.52
76.63,4.36,-0.16,4.36,-0.16,0.15,0.27,0.26,4.51,4.51,4.52
77.40,4.37,-0.15,4.37,-0.15,0.09,0.25,0.24,4.46,4.46,4.52
78.17,4.38,-0.12,4.38,-0.11,0.03,0.23,0.22,4.41,4.41,4.50
78.95,4.40,-0.04,4.40,-0.02,-0.05,0.22,0.19,4.34,4.34,4.43
79.74,4.41,0.10,4.41,0.11,-0.15,0.20,0.17,4.26,4.26,4.31
80.54,4.42,0.25,4.42,0.25,-0.24,0.19,0.15,4.17,4.18,4.17
81.35,4.42,0.39,4.41,0.37,-0.32,0.17,0.13,4.10,4.09,4.03
82.16,4.40,0.44,4.40,0.45,-0.38,0.16,0.10,4.03,4.02,3.96
82.98,4.36,0.47,4.36,0.49,-0.40,0.14,0.08,3.97,3.97,3.89
83.81,4.31,0.49,4.31,0.48,-0.38,0.12,0.06,3.93,3.93,3.82
84.65,4.25,0.43,4.25,0.40,-0.35,0.11,0.03,3.90,3.91,3.82
85.50,4.19,0.29,4.19,0.28,-0.30,0.09,0.01,3.89,3.89,3.91
86.35,4.13,0.11,4.13,0.15,-0.24,0.07,-0.01,3.89,3.89,4.02
87.22,4.08,0.06,4.08,0.06,-0.19,0.06,-0.03,3.89,3.89,4.02
88.09,4.02,0.05,4.02,0.05,-0.14,0.04,-0.06,3.88,3.88,3.97
88.97,3.96,0.08,3.96,0.10,-0.09,0.02,-0.08,3.87,3.87,3.88
89.86,3.91,0.16,3.91,0.13,-0.06,0.00,-0.10,3.85,3.85,3.74
90.76,3.86,0.14,3.86,0.13,-0.04,-0.01,-0.13,3.82,3.82,3.72
91.66,3.83,0.08,3.83,0.08,-0.03,-0.03,-0.15,3.80,3.80,3.75
92.58,3.81,-0.00,3.81,-0.01,-0.02,-0.05,-0.17,3.79,3.79,3.81
93.51,3.81,-0.08,3.80,-0.06,-0.00,-0.07,-0.20,3.80,3.80,3.89
94.44,3.79,-0.10,3.79,-0.08,0.03,-0.09,-0.22,3.82,3.82,3.89
95.39,3.77,-0.05,3.77,-0.06,0.07,-0.10,-0.25,3.84,3.84,3.82
96.34,3.74,-0.02,3.74,-0.05,0.11,-0.12,-0.27,3.85,3.85,3.76
97.30,3.70,-0.06,3.70,-0.09,0.14,-0.14,-0.29,3.84,3.84,3.76
98.28,3.65,-0.17,3.65,-0.15,0.16,-0.16,-0.32,3.81,3.81,3.82
99.26,3.61,-0.22,3.61,-0.20,0.16,-0.18,-0.34,3.77,3.77,3.82
100.25,3.57,-0.21,3.57,-0.21,0.16,-0.20,-0.36,3.73,3.72,3.78
101.25,3.53,-0.18,3.54,-0.19,0.15,-0.22,-0.39,3.68,3.68,3.71
102.27,3.52,-0.14,3.52,-0.13,0.12,-0.25,-0.41,3.64,3.63,3.66
103.29,3.52,-0.07,3.53,-0.06,0.06,-0.27,-0.43,3.59,3.59,3.59
104.32,3.55,0.03,3.56,0.01,-0.01,-0.29,-0.46,3.54,3.55,3.52
105.37,3.62,0.10,3.62,0.10,-0.10,-0.31,-0.48,3.52,3.52,3.52
106.42,3.69,0.16,3.69,0.17,-0.19,-0.33,-0.50,3.50,3.50,3.52
107.48,3.76,0.26,3.75,0.26,-0.27,-0.36,-0.53,3.49,3.48,3.50
108.56,3.78,0.34,3.78,0.36,-0.34,-0.38,-0.55,3.45,3.44,3.44
109.64,3.75,0.46,3.75,0.43,-0.38,-0.40,-0.57,3.38,3.37,3.29
110.74,3.68,0.49,3.67,0.47,-0.40,-0.43,-0.59,3.28,3.27,3.19
111.85,3.54,0.41,3.54,0.47,-0.40,-0.45,-0.61,3.14,3.14,3.13
112.97,3.40,0.47,3.40,0.42,-0.40,-0.48,-0.63,3.00,3.00,2.93
114.10,3.28,0.36,3.29,0.36,-0.40,-0.50,-0.65,2.88,2.89,2.92
115.24,3.22,0.30,3.23,0.33,-0.40,-0.53,-0.67,2.82,2.84,2.92
116.39,3.23,0.31,3.22,0.32,-0.40,-0.56,-0.69,2.83,2.83,2.92
117.55,3.25,0.39,3.26,0.39,-0.41,-0.58,-0.71,2.84,2.85,2.87
118.73,3.31,0.49,3.31,0.47,-0.44,-0.61,-0.72,2.87,2.87,2.82
119.92,3.37,0.54,3.36,0.54,-0.50,-0.64,-0.74,2.87,2.87,2.82
121.12,3.41,0.59,3.40,0.58,-0.57,-0.67,-0.75,2.84,2.83,2.82
122.33,3.43,0.62,3.42,0.63,-0.65,-0.70,-0.77,2.77,2.77,2.81
123.55,3.42,0.68,3.43,0.72,-0.74,-0.73,-0.78,2.68,2.68,2.75
124.79,3.41,0.85,3.41,0.81,-0.83,-0.76,-0.79,2.58,2.58,2.57
126.03,3.39,0.92,3.39,0.91,-0.91,-0.79,-0.80,2.48,2.48,2.47
127.29,3.36,0.97,3.36,1.00,-0.98,-0.82,-0.81,2.38,2.39,2.39
128.57,3.34,1.07,3.34,1.06,-1.03,-0.85,-0.82,2.31,2.31,2.27
129.85,3.31,1.13,3.31,1.12,-1.06,-0.88,-0.83,2.24,2.24,2.18
131.15,3.28,1.16,3.28,1.14,-1.08,-0.91,-0.84,2.19,2.19,2.12
132.46,3.24,1.12,3.24,1.12,-1.09,-0.94,-0.85,2.15,2.15,2.12
133.79,3.20,1.07,3.20,1.07,-1.10,-0.97,-0.85,2.10,2.10,2.12
135.12,3.16,1.04,3.16,1.03,-1.09,-1.00,-0.86,2.07,2.07,2.12
136.48,3.13,1.00,3.13,1.04,-1.10,-1.04,-0.86,2.03,2.03,2.12
137.84,3.11,1.07,3.11,1.08,-1.11,-1.07,-0.87,2.00,2.00,2.04
139.22,3.10,1.18,3.10,1.13,-1.14,-1.10,-0.87,1.96,1.96,1.92
140.61,3.09,1.17,3.09,1.19,-1.18,-1.13,-0.88,1.91,1.91,1.92
142.02,3.08,1.21,3.08,1.22,-1.23,-1.16,-0.88,1.85,1.85,1.87
143.44,3.06,1.26,3.06,1.26,-1.27,-1.19,-0.88,1.80,1.79,1.80
144.87,3.03,1.30,3.03,1.33,-1.29,-1.22,-0.89,1.74,1.74,1.73
146.32,2.99,1.40,3.00,1.37,-1.30,-1.25,-0.89,1.69,1.69,1.59
147.78,2.95,1.39,2.95,1.36,-1.30,-1.27,-0.89,1.65,1.65,1.56
149.26,2.91,1.29,2.91,1.32,-1.30,-1.30,-0.90,1.61,1.61,1.62
150.75,2.88,1.25,2.88,1.25,-1.29,-1.33,-0.90,1.58,1.58,1.62
152.26,2.84,1.22,2.85,1.22,-1.29,-1.35,-0.91,1.56,1.56,1.62
153.78,2.82,1.19,2.82,1.24,-1.28,-1.37,-0.91,1.54,1.54,1.62
155.32,2.79,1.30,2.79,1.27,-1.28,-1.39,-0.92,1.51,1.51,1.49
156.88,2.76,1.34,2.76,1.31,-1.29,-1.41,-0.92,1.47,1.47,1.42
158.44,2.73,1.33,2.73,1.35,-1.32,-1.43,-0.93,1.41,1.41,1.40
160.03,2.69,1.37,2.69,1.35,-1.36,-1.45,-0.94,1.33,1.33,1.32
161.63,2.65,1.38,2.65,1.39,-1.40,-1.46,-0.94,1.24,1.24,1.27
163.24,2.61,1.41,2.61,1.44,-1.45,-1.47,-0.95,1.15,1.15,1.20
164.88,2.57,1.53,2.57,1.49,-1.51,-1.48,-0.96,1.06,1.06,1.04
166.53,2.53,1.56,2.53,1.54,-1.56,-1.49,-0.97,0.97,0.97,0.97
168.19,2.49,1.58,2.49,1.60,-1.61,-1.50,-0.98,0.88,0.88,0.91
169.87,2.45,1.62,2.45,1.65,-1.65,-1.50,-0.99,0.81,0.81,0.83
171.57,2.42,1.75,2.42,1.71,-1.68,-1.50,-1.00,0.74,0.74,0.67
173.29,2.38,1.76,2.38,1.74,-1.70,-1.50,-1.02,0.68,0.68,0.62
175.02,2.34,1.72,2.34,1.73,-1.71,-1.50,-1.03,0.63,0.63,0.62
176.77,2.31,1.68,2.31,1.68,-1.70,-1.50,-1.04,0.60,0.60,0.62
178.54,2.27,1.65,2.27,1.66,-1.68,-1.49,-1.06,0.59,0.59,0.62
180.32,2.24,1.62,2.24,1.64,-1.65,-1.49,-1.08,0.59,0.59,0.61
182.13,2.20,1.65,2.20,1.62,-1.60,-1.48,-1.09,0.59,0.59,0.55
183.95,2.16,1.59,2.16,1.58,-1.56,-1.47,-1.11,0.60,0.60,0.57
185.79,2.12,1.50,2.12,1.52,-1.51,-1.46,-1.13,0.61,0.61,0.62
187.65,2.08,1.46,2.08,1.46,-1.47,-1.45,-1.15,0.61,0.61,0.62
189.52,2.04,1.41,2.04,1.40,-1.43,-1.44,-1.17,0.61,0.61,0.62
191.42,1.99,1.37,1.99,1.37,-1.39,-1.42,-1.19,0.60,0.60,0.62
193.33,1.95,1.32,1.95,1.35,-1.35,-1.41,-1.21,0.60,0.60,0.62
195.27,1.90,1.34,1.90,1.33,-1.32,-1.39,-1.23,0.57,0.57,0.56
197.22,1.85,1.33,1.85,1.31,-1.31,-1.38,-1.26,0.54,0.54,0.52
199.19,1.81,1.29,1.81,1.29,-1.30,-1.36,-1.28,0.51,0.51,0.52
201.18,1.77,1.24,1.77,1.26,-1.28,-1.35,-1.30,0.49,0.49,0.52
203.19,1.73,1.24,1.73,1.26,-1.25,-1.33,-1.33,0.47,0.47,0.48
205.23,1.69,1.27,1.69,1.27,-1.22,-1.32,-1.35,0.47,0.46,0.42
207.28,1.64,1.30,1.64,1.27,-1.19,-1.30,-1.38,0.45,0.45,0.35
209.35,1.60,1.23,1.60,1.20,-1.17,-1.29,-1.40,0.42,0.42,0.37
211.44,1.55,1.11,1.55,1.11,-1.16,-1.27,-1.42,0.39,0.39,0.44
213.56,1.51,1.00,1.51,1.05,-1.15,-1.26,-1.45,0.35,0.35,0.51
215.69,1.46,1.05,1.46,1.07,-1.15,-1.24,-1.47,0.32,0.32,0.41
217.85,1.42,1.16,1.42,1.14,-1.14,-1.23,-1.49,0.28,0.28,0.27
220.03,1.38,1.26,1.38,1.22,-1.15,-1.22,-1.51,0.24,0.24,0.12
222.23,1.35,1.22,1.35,1.22,-1.16,-1.21,-1.53,0.19,0.19,0.12
224.45,1.31,1.19,1.31,1.20,-1.18,-1.20,-1.55,0.14,0.14,0.12
226.70,1.28,1.16,1.28,1.18,-1.20,-1.19,-1.57,0.08,0.08,0.12
228.96,1.25,1.20,1.25,1.18,-1.22,-1.18,-1.59,0.03,0.03,0.06
231.25,1.23,1.20,1.23,1.19,-1.23,-1.17,-1.60,-0.01,-0.01,0.02
233.57,1.20,1.18,1.20,1.20,-1.23,-1.16,-1.62,-0.03,-0.03,0.02
235.90,1.17,1.21,1.17,1.23,-1.21,-1.15,-1.63,-0.04,-0.04,-0.04
238.26,1.14,1.26,1.14,1.25,-1.18,-1.15,-1.64,-0.04,-0.04,-0.12
240.64,1.11,1.27,1.11,1.24,-1.15,-1.14,-1.64,-0.04,-0.04,-0.16
243.05,1.07,1.17,1.07,1.17,-1.12,-1.14,-1.65,-0.04,-0.04,-0.10
245.48,1.04,1.07,1.04,1.07,-1.08,-1.13,-1.65,-0.05,-0.05,-0.03
247.93,1.00,0.98,1.00,0.98,-1.06,-1.13,-1.65,-0.06,-0.06,0.02
250.41,0.96,0.94,0.96,0.94,-1.05,-1.13,-1.65,-0.09,-0.09,0.02
252.92,0.92,0.95,0.93,0.97,-1.04,-1.13,-1.64,-0.11,-0.11,-0.03
255.45,0.90,1.01,0.90,1.04,-1.04,-1.13,-1.63,-0.14,-0.14,-0.11
258.00,0.89,1.16,0.89,1.11,-1.06,-1.13,-1.63,-0.17,-0.17,-0.28
260.58,0.88,1.16,0.88,1.16,-1.09,-1.13,-1.61,-0.20,-0.21,-0.28
263.19,0.88,1.16,0.88,1.17,-1.12,-1.13,-1.60,-0.24,-0.24,-0.28
265.82,0.87,1.15,0.87,1.15,-1.15,-1.14,-1.58,-0.27,-0.27,-0.28
268.48,0.87,1.14,0.87,1.16,-1.17,-1.14,-1.56,-0.30,-0.30,-0.28
271.16,0.85,1.16,0.85,1.17,-1.19,-1.14,-1.54,-0.33,-0.33,-0.31
273.87,0.84,1.21,0.84,1.18,-1.20,-1.15,-1.52,-0.37,-0.37,-0.37
276.61,0.81,1.19,0.81,1.20,-1.21,-1.15,-1.49,-0.40,-0.40,-0.38
279.38,0.79,1.20,0.79,1.21,-1.23,-1.16,-1.47,-0.44,-0.44,-0.41
282.17,0.76,1.24,0.76,1.24,-1.24,-1.16,-1.44,-0.48,-0.48,-0.48
284.99,0.73,1.28,0.73,1.29,-1.26,-1.17,-1.41,-0.53,-0.53,-0.55
287.84,0.70,1.32,0.70,1.30,-1.27,-1.17,-1.38,-0.57,-0.57,-0.62
290.72,0.66,1.32,0.66,1.29,-1.28,-1.18,-1.35,-0.61,-0.61,-0.66
293.63,0.63,1.22,0.63,1.26,-1.28,-1.18,-1.32,-0.65,-0.65,-0.59
296.57,0.59,1.23,0.59,1.25,-1.28,-1.18,-1.29,-0.69,-0.69,-0.64
299.53,0.56,1.26,0.56,1.25,-1.27,-1.19,-1.26,-0.71,-0.71,-0.71
302.53,0.52,1.29,0.52,1.27,-1.25,-1.19,-1.23,-0.73,-0.73,-0.77
305.55,0.48,1.26,0.48,1.26,-1.23,-1.19,-1.19,-0.75,-0.75,-0.78
308.61,0.44,1.22,0.45,1.23,-1.20,-1.19,-1.16,-0.76,-0.76,-0.78
311.69,0.41,1.19,0.41,1.19,-1.18,-1.19,-1.13,-0.77,-0.77,-0.78
314.81,0.38,1.15,0.38,1.15,-1.16,-1.19,-1.10,-0.78,-0.78,-0.78
317.96,0.34,1.12,0.34,1.12,-1.14,-1.18,-1.07,-0.79,-0.79,-0.78
321.14,0.31,1.09,0.31,1.12,-1.12,-1.18,-1.03,-0.81,-0.81,-0.78
324.35,0.28,1.14,0.28,1.11,-1.12,-1.17,-1.00,-0.85,-0.85,-0.86
327.59,0.24,1.12,0.24,1.11,-1.14,-1.16,-0.97,-0.90,-0.90,-0.88
330.87,0.21,1.10,0.21,1.12,-1.17,-1.15,-0.94,-0.96,-0.96,-0.89
334.18,0.18,1.14,0.18,1.15,-1.20,-1.14,-0.91,-1.02,-1.02,-0.96
337.52,0.14,1.22,0.14,1.23,-1.23,-1.13,-0.88,-1.08,-1.08,-1.08
340.90,0.11,1.31,0.11,1.29,-1.24,-1.11,-0.85,-1.13,-1.13,-1.20
344.30,0.08,1.34,0.08,1.31,-1.23,-1.09,-0.82,-1.15,-1.15,-1.26
347.75,0.05,1.27,0.05,1.27,-1.20,-1.08,-0.80,-1.16,-1.15,-1.22
351.23,0.02,1.17,0.02,1.19,-1.16,-1.06,-0.77,-1.14,-1.14,-1.15
354.74,-0.01,1.07,-0.01,1.10,-1.10,-1.03,-0.74,-1.11,-1.11,-1.08
358.28,-0.04,1.04,-0.04,1.00,-1.03,-1.01,-0.72,-1.07,-1.07,-1.08
361.87,-0.07,0.93,-0.07,0.91,-0.96,-0.99,-0.69,-1.03,-1.03,-1.00
365.49,-0.10,0.79,-0.10,0.85,-0.89,-0.96,-0.67,-0.99,-0.99,-0.89
369.14,-0.13,0.82,-0.13,0.81,-0.83,-0.93,-0.64,-0.96,-0.96,-0.95
372.83,-0.16,0.82,-0.16,0.79,-0.80,-0.91,-0.62,-0.96,-0.96,-0.98
376.56,-0.19,0.79,-0.19,0.79,-0.77,-0.88,-0.60,-0.96,-0.96,-0.98
380.33,-0.22,0.76,-0.22,0.76,-0.76,-0.85,-0.57,-0.98,-0.98,-0.98
384.13,-0.25,0.73,-0.25,0.74,-0.75,-0.82,-0.55,-0.99,-0.99,-0.98
387.97,-0.27,0.72,-0.27,0.74,-0.74,-0.79,-0.53,-1.01,-1.01,-0.99
391.85,-0.30,0.76,-0.30,0.75,-0.73,-0.76,-0.51,-1.02,-1.02,-1.06
395.77,-0.32,0.75,-0.32,0.73,-0.71,-0.73,-0.49,-1.04,-1.04,-1.08
399.73,-0.35,0.70,-0.35,0.69,-0.69,-0.69,-0.47,-1.05,-1.05,-1.05
403.72,-0.38,0.60,-0.38,0.65,-0.67,-0.66,-0.45,-1.04,-1.04,-0.98
407.76,-0.40,0.64,-0.40,0.64,-0.63,-0.63,-0.43,-1.04,-1.04,-1.04
411.84,-0.43,0.65,-0.43,0.63,-0.60,-0.60,-0.41,-1.03,-1.03,-1.08
415.96,-0.45,0.62,-0.45,0.60,-0.56,-0.57,-0.39,-1.02,-1.02,-1.08
420.12,-0.48,0.53,-0.48,0.55,-0.54,-0.53,-0.38,-1.02,-1.02,-1.01
424.32,-0.50,0.48,-0.50,0.48,-0.53,-0.50,-0.36,-1.03,-1.03,-0.98
428.56,-0.53,0.45,-0.53,0.44,-0.52,-0.47,-0.34,-1.05,-1.05,-0.98
432.85,-0.55,0.43,-0.55,0.46,-0.51,-0.44,-0.32,-1.06,-1.06,-0.98
437.18,-0.57,0.50,-0.57,0.51,-0.50,-0.41,-0.31,-1.07,-1.07,-1.07
441.55,-0.60,0.58,-0.60,0.55,-0.48,-0.38,-0.29,-1.08,-1.08,-1.18
445.96,-0.62,0.56,-0.62,0.55,-0.46,-0.34,-0.27,-1.08,-1.08,-1.18
450.42,-0.64,0.49,-0.64,0.49,-0.44,-0.31,-0.25,-1.07,-1.07,-1.13
454.93,-0.66,0.40,-0.66,0.40,-0.41,-0.28,-0.24,-1.07,-1.07,-1.06
459.48,-0.68,0.30,-0.68,0.32,-0.37,-0.25,-0.22,-1.06,-1.06,-0.99
464.07,-0.70,0.27,-0.70,0.27,-0.33,-0.22,-0.20,-1.04,-1.04,-0.98
468.71,-0.73,0.25,-0.73,0.24,-0.29,-0.19,-0.19,-1.01,-1.01,-0.98
473.40,-0.75,0.23,-0.75,0.23,-0.25,-0.16,-0.17,-0.99,-0.99,-0.98
478.13,-0.77,0.21,-0.77,0.22,-0.21,-0.13,-0.15,-0.97,-0.97,-0.98
482.91,-0.78,0.19,-0.78,0.20,-0.17,-0.10,-0.13,-0.95,-0.95,-0.98
487.74,-0.80,0.18,-0.80,0.16,-0.11,-0.06,-0.12,-0.91,-0.92,-0.98
492.62,-0.82,0.09,-0.82,0.09,-0.05,-0.03,-0.10,-0.87,-0.87,-0.91
497.55,-0.84,0.00,-0.84,0.01,0.03,-0.00,-0.08,-0.81,-0.81,-0.84
502.52,-0.85,-0.08,-0.85,-0.08,0.10,0.03,-0.06,-0.75,-0.75,-0.77
507.55,-0.87,-0.17,-0.87,-0.20,0.17,0.06,-0.04,-0.70,-0.70,-0.70
512.62,-0.89,-0.30,-0.89,-0.30,0.23,0.09,-0.02,-0.66,-0.66,-0.59
517.75,-0.90,-0.41,-0.90,-0.36,0.28,0.12,-0.00,-0.62,-0.62,-0.49
522.93,-0.92,-0.35,-0.92,-0.36,0.31,0.15,0.02,-0.61,-0.61,-0.56
528.16,-0.93,-0.30,-0.93,-0.31,0.33,0.19,0.04,-0.60,-0.60,-0.63
