frequency,raw,error,smoothed,error_smoothed,equalization,parametric_eq,fixed_band_eq,equalized_raw,equalized_smoothed,target
20.00,19.43,6.05,19.42,6.05,-6.05,-5.82,-2.76,13.38,13.38,13.37
20.20,19.44,6.06,19.44,6.07,-6.07,-5.89,-2.84,13.37,13.37,13.37
20.40,19.45,6.08,19.46,6.08,-6.09,-5.96,-2.92,13.37,13.37,13.37
20.61,19.47,6.10,19.47,6.10,-6.10,-6.01,-3.00,13.37,13.37,13.37
20.81,19.49,6.12,19.49,6.12,-6.12,-6.06,-3.08,13.37,13.37,13.37
21.02,19.50,6.14,19.50,6.14,-6.13,-6.10,-3.17,13.37,13.37,13.37
21.23,19.51,6.15,19.51,6.15,-6.14,-6.14,-3.26,13.37,13.37,13.36
21.44,19.52,6.16,19.52,6.16,-6.15,-6.17,-3.35,13.37,13.37,13.36
21.66,19.52,6.16,19.52,6.16,-6.16,-6.20,-3.44,13.36,13.36,13.36
21.87,19.52,6.17,19.52,6.17,-6.17,-6.21,-3.54,13.36,13.36,13.36
22.09,19.52,6.17,19.52,6.17,-6.17,-6.22,-3.64,13.35,13.35,13.35
22.31,19.52,6.17,19.52,6.17,-6.18,-6.23,-3.74,13.35,13.35,13.35
22.54,19.52,6.18,19.52,6.18,-6.18,-6.23,-3.85,13.34,13.34,13.34
22.76,19.52,6.18,19.52,6.18,-6.18,-6.23,-3.96,13.34,13.34,13.34
22.99,19.52,6.18,19.52,6.18,-6.18,-6.23,-4.07,13.34,13.34,13.33
23.22,19.51,6.19,19.51,6.18,-6.18,-6.22,-4.18,13.33,13.33,13.33
23.45,19.51,6.19,19.51,6.19,-6.18,-6.21,-4.29,13.32,13.32,13.32
23.69,19.50,6.19,19.50,6.19,-6.19,-6.20,-4.41,13.31,13.31,13.31
23.92,19.49,6.19,19.49,6.19,-6.19,-6.19,-4.53,13.30,13.30,13.30
24.16,19.48,6.19,19.48,6.19,-6.19,-6.18,-4.66,13.28,13.28,13.29
24.40,19.46,6.19,19.46,6.19,-6.20,-6.17,-4.78,13.26,13.26,13.27
24.65,19.44,6.20,19.44,6.20,-6.20,-6.16,-4.91,13.24,13.24,13.25
24.89,19.42,6.20,19.42,6.20,-6.21,-6.15,-5.03,13.22,13.22,13.22
25.14,19.40,6.21,19.40,6.21,-6.21,-6.14,-5.16,13.19,13.19,13.19
25.39,19.37,6.22,19.37,6.21,-6.20,-6.13,-5.30,13.17,13.17,13.16
25.65,19.35,6.21,19.35,6.21,-6.19,-6.13,-5.43,13.15,13.15,13.14
25.91,19.32,6.19,19.32,6.19,-6.18,-6.12,-5.56,13.14,13.14,13.12
26.16,19.29,6.17,19.29,6.17,-6.16,-6.12,-5.69,13.13,13.13,13.12
26.43,19.26,6.14,19.26,6.14,-6.13,-6.12,-5.83,13.12,13.12,13.12
26.69,19.23,6.11,19.23,6.11,-6.11,-6.12,-5.96,13.12,13.12,13.12
26.96,19.20,6.08,19.20,6.08,-6.09,-6.12,-6.09,13.11,13.11,13.13
27.23,19.18,6.05,19.18,6.06,-6.07,-6.12,-6.22,13.10,13.10,13.12
27.50,19.15,6.05,19.15,6.05,-6.06,-6.13,-6.34,13.09,13.09,13.10
27.77,19.13,6.05,19.13,6.05,-6.06,-6.13,-6.46,13.07,13.07,13.08
28.05,19.11,6.06,19.11,6.07,-6.07,-6.14,-6.58,13.04,13.04,13.04
28.33,19.08,6.08,19.08,6.08,-6.07,-6.15,-6.70,13.01,13.01,13.00
28.62,19.06,6.10,19.06,6.10,-6.09,-6.16,-6.81,12.97,12.97,12.96
28.90,19.04,6.11,19.04,6.11,-6.10,-6.17,-6.91,12.94,12.94,12.93
29.19,19.02,6.12,19.02,6.12,-6.12,-6.18,-7.01,12.90,12.90,12.90
29.48,19.00,6.13,19.00,6.13,-6.13,-6.19,-7.10,12.86,12.86,12.86
29.78,18.97,6.14,18.97,6.14,-6.15,-6.20,-7.18,12.83,12.83,12.83
30.08,18.95,6.15,18.95,6.16,-6.16,-6.22,-7.25,12.79,12.79,12.80
30.38,18.93,6.17,18.93,6.17,-6.17,-6.23,-7.32,12.76,12.76,12.76
30.68,18.91,6.19,18.91,6.19,-6.18,-6.25,-7.37,12.73,12.73,12.73
30.99,18.90,6.20,18.90,6.20,-6.19,-6.26,-7.42,12.71,12.71,12.69
31.30,18.88,6.21,18.88,6.21,-6.20,-6.28,-7.46,12.68,12.68,12.67
31.61,18.86,6.21,18.86,6.21,-6.20,-6.30,-7.48,12.66,12.66,12.65
31.93,18.85,6.21,18.85,6.21,-6.21,-6.32,-7.50,12.64,12.64,12.64
32.24,18.84,6.21,18.84,6.21,-6.22,-6.33,-7.51,12.62,12.62,12.62
32.57,18.82,6.22,18.82,6.22,-6.23,-6.35,-7.51,12.59,12.59,12.61
32.89,18.81,6.23,18.81,6.23,-6.25,-6.37,-7.50,12.57,12.57,12.58
33.22,18.80,6.26,18.80,6.26,-6.27,-6.39,-7.48,12.53,12.53,12.54
33.55,18.79,6.29,18.79,6.29,-6.29,-6.41,-7.46,12.50,12.50,12.50
33.89,18.78,6.32,18.78,6.32,-6.32,-6.43,-7.43,12.46,12.46,12.46
34.23,18.77,6.35,18.77,6.35,-6.34,-6.45,-7.40,12.42,12.42,12.41
34.57,18.75,6.38,18.75,6.38,-6.37,-6.47,-7.35,12.38,12.38,12.37
34.92,18.74,6.41,18.74,6.41,-6.40,-6.49,-7.31,12.34,12.34,12.34
35.27,18.73,6.43,18.73,6.43,-6.43,-6.51,-7.26,12.31,12.31,12.30
35.62,18.72,6.45,18.72,6.45,-6.45,-6.53,-7.21,12.27,12.27,12.27
35.97,18.71,6.47,18.71,6.47,-6.47,-6.55,-7.15,12.24,12.24,12.24
36.33,18.70,6.49,18.70,6.49,-6.50,-6.57,-7.10,12.20,12.20,12.21
36.70,18.69,6.52,18.69,6.52,-6.52,-6.59,-7.04,12.17,12.17,12.17
37.06,18.67,6.54,18.67,6.54,-6.54,-6.61,-6.98,12.13,12.13,12.13
37.43,18.66,6.57,18.66,6.57,-6.57,-6.63,-6.93,12.10,12.10,12.10
37.81,18.65,6.59,18.65,6.59,-6.59,-6.65,-6.87,12.06,12.06,12.06
38.19,18.64,6.61,18.64,6.61,-6.62,-6.67,-6.82,12.02,12.02,12.02
38.57,18.62,6.64,18.62,6.64,-6.65,-6.68,-6.77,11.97,11.97,11.98
38.95,18.61,6.68,18.61,6.68,-6.68,-6.70,-6.72,11.93,11.93,11.93
39.34,18.60,6.71,18.60,6.71,-6.71,-6.72,-6.68,11.89,11.89,11.88
39.74,18.58,6.75,18.58,6.74,-6.73,-6.74,-6.63,11.85,11.85,11.84
40.14,18.57,6.77,18.57,6.77,-6.76,-6.76,-6.59,11.81,11.81,11.80
40.54,18.56,6.79,18.56,6.79,-6.79,-6.78,-6.56,11.77,11.77,11.76
40.94,18.54,6.81,18.54,6.81,-6.81,-6.80,-6.53,11.73,11.73,11.73
41.35,18.52,6.83,18.52,6.83,-6.84,-6.82,-6.50,11.69,11.69,11.70
41.76,18.51,6.85,18.51,6.85,-6.87,-6.83,-6.47,11.64,11.64,11.66
42.18,18.49,6.88,18.49,6.88,-6.90,-6.85,-6.46,11.59,11.59,11.61
42.60,18.47,6.92,18.47,6.92,-6.93,-6.87,-6.44,11.54,11.54,11.55
43.03,18.45,6.96,18.45,6.96,-6.95,-6.89,-6.43,11.49,11.49,11.49
43.46,18.42,7.00,18.42,7.00,-6.98,-6.90,-6.43,11.44,11.44,11.43
43.90,18.40,7.03,18.40,7.02,-7.01,-6.92,-6.43,11.39,11.39,11.37
44.33,18.37,7.04,18.37,7.04,-7.03,-6.94,-6.43,11.34,11.34,11.33
44.78,18.35,7.05,18.35,7.05,-7.05,-6.95,-6.44,11.30,11.30,11.30
45.23,18.32,7.06,18.32,7.06,-7.07,-6.97,-6.45,11.25,11.25,11.26
45.68,18.29,7.07,18.29,7.07,-7.08,-6.98,-6.47,11.21,11.21,11.22
46.13,18.26,7.09,18.26,7.09,-7.10,-7.00,-6.49,11.16,11.16,11.17
46.60,18.23,7.12,18.23,7.11,-7.11,-7.02,-6.52,11.11,11.11,11.11
47.06,18.19,7.13,18.19,7.13,-7.13,-7.03,-6.56,11.06,11.06,11.06
47.53,18.16,7.15,18.16,7.15,-7.15,-7.05,-6.59,11.01,11.01,11.01
48.01,18.12,7.17,18.12,7.17,-7.17,-7.06,-6.63,10.95,10.95,10.95
48.49,18.09,7.19,18.09,7.19,-7.19,-7.08,-6.68,10.89,10.89,10.90
48.97,18.05,7.21,18.05,7.21,-7.21,-7.09,-6.73,10.84,10.84,10.84
49.46,18.01,7.23,18.01,7.23,-7.23,-7.11,-6.78,10.79,10.79,10.78
49.96,17.98,7.25,17.98,7.25,-7.24,-7.12,-6.84,10.74,10.74,10.73
50.46,17.94,7.26,17.94,7.26,-7.25,-7.13,-6.90,10.69,10.69,10.68
50.96,17.89,7.27,17.89,7.26,-7.26,-7.15,-6.96,10.63,10.63,10.63
51.47,17.85,7.26,17.85,7.26,-7.27,-7.16,-7.02,10.58,10.58,10.59
51.99,17.81,7.27,17.81,7.27,-7.28,-7.17,-7.09,10.53,10.53,10.54
52.51,17.76,7.28,17.76,7.28,-7.29,-7.19,-7.16,10.47,10.47,10.49
53.03,17.72,7.29,17.72,7.29,-7.30,-7.20,-7.23,10.42,10.42,10.42
53.56,17.67,7.31,17.67,7.31,-7.31,-7.21,-7.30,10.36,10.36,10.35
54.10,17.62,7.32,17.62,7.32,-7.32,-7.23,-7.37,10.30,10.30,10.29
54.64,17.57,7.33,17.57,7.33,-7.32,-7.24,-7.45,10.24,10.24,10.24
55.18,17.52,7.33,17.52,7.34,-7.33,-7.25,-7.52,10.18,10.18,10.18
55.74,17.47,7.34,17.47,7.34,-7.34,-7.27,-7.58,10.12,10.12,10.12
56.29,17.41,7.35,17.41,7.34,-7.35,-7.28,-7.65,10.07,10.07,10.07
56.86,17.36,7.35,17.36,7.35,-7.35,-7.29,-7.72,10.01,10.01,10.02
57.42,17.31,7.35,17.31,7.35,-7.35,-7.30,-7.78,9.96,9.96,9.96
58.00,17.26,7.36,17.26,7.36,-7.36,-7.31,-7.83,9.90,9.90,9.90
58.58,17.21,7.37,17.21,7.37,-7.36,-7.33,-7.89,9.85,9.85,9.83
59.16,17.15,7.37,17.15,7.36,-7.36,-7.34,-7.93,9.79,9.79,9.78
59.76,17.10,7.35,17.10,7.36,-7.36,-7.35,-7.97,9.74,9.74,9.75
60.35,17.05,7.35,17.05,7.36,-7.37,-7.36,-8.01,9.68,9.68,9.70
60.96,17.00,7.36,17.00,7.37,-7.38,-7.38,-8.04,9.62,9.62,9.63
61.57,16.94,7.39,16.94,7.38,-7.38,-7.39,-8.06,9.56,9.56,9.55
62.18,16.89,7.40,16.89,7.40,-7.39,-7.40,-8.08,9.49,9.49,9.48
62.80,16.83,7.41,16.83,7.41,-7.41,-7.41,-8.09,9.43,9.43,9.43
63.43,16.78,7.42,16.78,7.42,-7.42,-7.42,-8.09,9.36,9.36,9.36
64.07,16.73,7.43,16.73,7.43,-7.43,-7.44,-8.08,9.30,9.30,9.30
64.71,16.68,7.44,16.68,7.44,-7.44,-7.45,-8.07,9.24,9.24,9.24
65.35,16.63,7.45,16.63,7.45,-7.45,-7.46,-8.05,9.18,9.17,9.17
66.01,16.57,7.46,16.57,7.46,-7.46,-7.47,-8.03,9.11,9.11,9.11
66.67,16.52,7.47,16.52,7.47,-7.47,-7.48,-8.00,9.05,9.05,9.05
67.33,16.47,7.48,16.47,7.47,-7.48,-7.49,-7.97,8.99,8.99,8.99
68.01,16.42,7.48,16.42,7.48,-7.49,-7.51,-7.93,8.93,8.93,8.94
68.69,16.36,7.49,16.36,7.49,-7.49,-7.52,-7.88,8.87,8.87,8.87
69.37,16.31,7.51,16.31,7.50,-7.50,-7.53,-7.84,8.81,8.81,8.81
70.07,16.26,7.52,16.26,7.51,-7.51,-7.54,-7.79,8.75,8.75,8.74
70.77,16.20,7.52,16.20,7.52,-7.52,-7.56,-7.74,8.69,8.69,8.68
71.48,16.15,7.53,16.15,7.53,-7.53,-7.57,-7.69,8.62,8.62,8.62
72.19,16.10,7.54,16.10,7.53,-7.54,-7.58,-7.63,8.56,8.56,8.56
72.91,16.04,7.54,16.04,7.54,-7.55,-7.59,-7.58,8.49,8.49,8.50
73.64,15.99,7.55,15.99,7.56,-7.56,-7.60,-7.53,8.43,8.43,8.44
74.38,15.94,7.57,15.94,7.57,-7.57,-7.62,-7.48,8.37,8.37,8.37
75.12,15.89,7.60,15.89,7.59,-7.59,-7.63,-7.43,8.31,8.31,8.30
75.87,15.84,7.60,15.84,7.61,-7.60,-7.64,-7.38,8.24,8.24,8.24
76.63,15.80,7.62,15.80,7.62,-7.62,-7.65,-7.34,8.18,8.18,8.18
77.40,15.75,7.63,15.75,7.63,-7.63,-7.67,-7.29,8.11,8.11,8.11
78.17,15.70,7.65,15.70,7.65,-7.65,-7.68,-7.25,8.05,8.05,8.05
78.95,15.65,7.67,15.65,7.67,-7.67,-7.69,-7.22,7.98,7.98,7.98
79.74,15.60,7.68,15.60,7.68,-7.68,-7.71,-7.19,7.92,7.92,7.92
80.54,15.55,7.70,15.55,7.70,-7.70,-7.72,-7.16,7.85,7.85,7.85
81.35,15.50,7.72,15.50,7.71,-7.72,-7.73,-7.13,7.79,7.79,7.79
82.16,15.45,7.73,15.45,7.73,-7.73,-7.75,-7.11,7.72,7.72,7.73
82.98,15.41,7.75,15.41,7.75,-7.75,-7.76,-7.10,7.66,7.66,7.66
83.81,15.36,7.77,15.36,7.77,-7.77,-7.77,-7.09,7.59,7.59,7.59
84.65,15.31,7.78,15.31,7.79,-7.79,-7.79,-7.08,7.53,7.53,7.53
85.50,15.26,7.80,15.26,7.80,-7.80,-7.80,-7.09,7.46,7.46,7.47
86.35,15.22,7.82,15.21,7.82,-7.82,-7.81,-7.09,7.40,7.40,7.40
87.22,15.16,7.84,15.16,7.83,-7.83,-7.83,-7.10,7.33,7.33,7.33
88.09,15.11,7.85,15.11,7.85,-7.84,-7.84,-7.12,7.27,7.27,7.26
88.97,15.06,7.86,15.06,7.86,-7.86,-7.85,-7.14,7.21,7.21,7.20
89.86,15.01,7.86,15.01,7.86,-7.87,-7.87,-7.16,7.14,7.14,7.15
90.76,14.96,7.88,14.96,7.88,-7.88,-7.88,-7.20,7.08,7.08,7.08
91.66,14.91,7.89,14.91,7.89,-7.90,-7.89,-7.23,7.01,7.01,7.02
92.58,14.86,7.91,14.86,7.91,-7.91,-7.91,-7.27,6.95,6.95,6.95
93.51,14.81,7.92,14.81,7.93,-7.92,-7.92,-7.32,6.89,6.89,6.89
94.44,14.76,7.94,14.76,7.94,-7.94,-7.93,-7.37,6.82,6.83,6.82
95.39,14.72,7.96,14.72,7.96,-7.95,-7.95,-7.43,6.76,6.76,6.76
96.34,14.67,7.97,14.67,7.97,-7.97,-7.96,-7.49,6.70,6.70,6.70
97.30,14.62,7.98,14.62,7.98,-7.98,-7.97,-7.55,6.63,6.63,6.64
98.28,14.57,7.99,14.57,7.99,-8.00,-7.99,-7.63,6.57,6.57,6.58
99.26,14.52,8.01,14.52,8.01,-8.01,-8.00,-7.70,6.51,6.51,6.51
100.25,14.47,8.02,14.47,8.02,-8.03,-8.01,-7.78,6.44,6.44,6.45
101.25,14.42,8.04,14.42,8.04,-8.04,-8.03,-7.86,6.38,6.38,6.38
102.27,14.37,8.06,14.37,8.06,-8.05,-8.04,-7.94,6.32,6.32,6.31
103.29,14.32,8.07,14.32,8.07,-8.06,-8.05,-8.03,6.25,6.25,6.25
104.32,14.26,8.07,14.26,8.08,-8.07,-8.07,-8.12,6.19,6.19,6.19
105.37,14.21,8.08,14.21,8.08,-8.08,-8.08,-8.21,6.13,6.13,6.13
106.42,14.16,8.09,14.16,8.09,-8.09,-8.09,-8.30,6.07,6.07,6.07
107.48,14.11,8.10,14.11,8.10,-8.10,-8.10,-8.39,6.01,6.01,6.01
108.56,14.05,8.10,14.05,8.10,-8.11,-8.12,-8.49,5.94,5.94,5.95
109.64,14.00,8.11,14.00,8.12,-8.12,-8.13,-8.58,5.88,5.88,5.89
110.74,13.95,8.13,13.95,8.13,-8.13,-8.14,-8.66,5.82,5.82,5.82
111.85,13.89,8.15,13.89,8.14,-8.14,-8.15,-8.75,5.75,5.75,5.74
112.97,13.83,8.15,13.83,8.15,-8.15,-8.16,-8.83,5.69,5.69,5.68
114.10,13.78,8.16,13.78,8.16,-8.15,-8.17,-8.91,5.63,5.63,5.62
115.24,13.72,8.16,13.72,8.16,-8.15,-8.18,-8.98,5.57,5.57,5.56
116.39,13.66,8.16,13.66,8.16,-8.15,-8.19,-9.05,5.51,5.51,5.51
117.55,13.61,8.15,13.61,8.15,-8.15,-8.20,-9.11,5.45,5.45,5.45
118.73,13.54,8.15,13.54,8.14,-8.15,-8.21,-9.17,5.39,5.39,5.40
119.92,13.48,8.13,13.48,8.13,-8.15,-8.22,-9.21,5.33,5.33,5.35
121.12,13.41,8.13,13.41,8.14,-8.15,-8.23,-9.25,5.27,5.27,5.29
122.33,13.35,8.14,13.35,8.14,-8.15,-8.24,-9.27,5.20,5.20,5.20
123.55,13.28,8.16,13.28,8.15,-8.14,-8.25,-9.29,5.13,5.13,5.12
124.79,13.20,8.15,13.20,8.15,-8.14,-8.26,-9.29,5.07,5.07,5.06
126.03,13.13,8.14,13.13,8.14,-8.13,-8.26,-9.29,5.00,5.00,4.99
127.29,13.06,8.13,13.06,8.13,-8.13,-8.27,-9.27,4.93,4.93,4.93
128.57,12.99,8.12,12.99,8.12,-8.12,-8.28,-9.25,4.87,4.87,4.87
129.85,12.92,8.10,12.92,8.10,-8.10,-8.28,-9.21,4.82,4.82,4.81
131.15,12.84,8.09,12.84,8.09,-8.08,-8.29,-9.17,4.76,4.76,4.76
132.46,12.77,8.08,12.77,8.08,-8.06,-8.29,-9.11,4.70,4.70,4.69
133.79,12.69,8.07,12.69,8.06,-8.05,-8.30,-9.06,4.64,4.64,4.63
135.12,12.62,8.05,12.62,8.05,-8.05,-8.30,-8.99,4.57,4.57,4.57
136.48,12.56,8.05,12.56,8.05,-8.06,-8.30,-8.92,4.50,4.50,4.52
137.84,12.51,8.05,12.52,8.06,-8.08,-8.30,-8.83,4.43,4.43,4.46
139.22,12.49,8.09,12.49,8.09,-8.12,-8.30,-8.75,4.36,4.37,4.40
140.61,12.49,8.16,12.49,8.15,-8.18,-8.31,-8.66,4.31,4.31,4.33
142.02,12.51,8.23,12.51,8.24,-8.25,-8.31,-8.57,4.26,4.26,4.28
143.44,12.54,8.32,12.54,8.33,-8.33,-8.30,-8.48,4.21,4.21,4.22
144.87,12.58,8.44,12.58,8.42,-8.42,-8.30,-8.39,4.16,4.16,4.14
146.32,12.61,8.51,12.61,8.51,-8.49,-8.30,-8.29,4.11,4.11,4.10
147.78,12.63,8.57,12.62,8.59,-8.56,-8.30,-8.20,4.07,4.06,4.05
149.26,12.62,8.66,12.62,8.64,-8.61,-8.29,-8.10,4.01,4.01,3.96
150.75,12.60,8.68,12.60,8.66,-8.65,-8.29,-8.01,3.96,3.96,3.92
152.26,12.57,8.63,12.57,8.65,-8.66,-8.28,-7.92,3.91,3.91,3.94
153.78,12.53,8.62,12.53,8.63,-8.64,-8.27,-7.83,3.89,3.89,3.91
155.32,12.49,8.62,12.49,8.62,-8.61,-8.27,-7.75,3.88,3.88,3.87
156.88,12.44,8.60,12.44,8.58,-8.55,-8.26,-7.66,3.89,3.89,3.85
158.44,12.39,8.52,12.39,8.51,-8.48,-8.25,-7.59,3.91,3.91,3.88
160.03,12.34,8.40,12.34,8.42,-8.40,-8.24,-7.51,3.94,3.93,3.94
161.63,12.28,8.32,12.28,8.32,-8.32,-8.22,-7.44,3.96,3.96,3.96
163.24,12.22,8.24,12.22,8.23,-8.24,-8.21,-7.38,3.97,3.97,3.98
164.88,12.15,8.15,12.15,8.14,-8.17,-8.20,-7.32,3.99,3.99,4.01
166.53,12.09,8.06,12.09,8.07,-8.10,-8.18,-7.26,3.99,3.99,4.03
168.19,12.03,8.01,12.03,8.02,-8.05,-8.17,-7.21,3.99,3.99,4.02
169.87,11.97,8.00,11.97,8.00,-8.01,-8.15,-7.16,3.96,3.96,3.97
171.57,11.91,7.99,11.91,7.99,-7.99,-8.13,-7.12,3.92,3.92,3.91
173.29,11.84,7.98,11.84,7.98,-7.98,-8.11,-7.09,3.86,3.86,3.86
175.02,11.78,7.97,11.78,7.96,-7.97,-8.09,-7.06,3.81,3.81,3.81
176.77,11.72,7.95,11.72,7.97,-7.97,-8.07,-7.03,3.75,3.75,3.76
178.54,11.65,7.98,11.65,7.98,-7.96,-8.05,-7.01,3.69,3.69,3.67
180.32,11.59,8.01,11.59,7.98,-7.95,-8.02,-7.00,3.64,3.64,3.58
182.13,11.53,7.94,11.53,7.96,-7.94,-8.00,-6.99,3.59,3.59,3.58
183.95,11.46,7.91,11.46,7.92,-7.92,-7.97,-6.98,3.55,3.55,3.55
185.79,11.40,7.88,11.40,7.88,-7.89,-7.95,-6.99,3.51,3.51,3.52
187.65,11.34,7.85,11.34,7.85,-7.87,-7.92,-6.99,3.47,3.47,3.49
189.52,11.27,7.83,11.27,7.83,-7.83,-7.89,-7.00,3.44,3.44,3.44
191.42,11.21,7.81,11.21,7.80,-7.80,-7.86,-7.02,3.40,3.40,3.40
193.33,11.14,7.78,11.14,7.78,-7.78,-7.83,-7.04,3.37,3.37,3.37
195.27,11.08,7.75,11.08,7.75,-7.75,-7.79,-7.06,3.33,3.33,3.33
197.22,11.01,7.72,11.01,7.72,-7.72,-7.76,-7.09,3.29,3.29,3.29
199.19,10.94,7.69,10.94,7.69,-7.69,-7.72,-7.12,3.25,3.25,3.25
201.18,10.88,7.67,10.88,7.67,-7.66,-7.69,-7.15,3.22,3.22,3.21
203.19,10.81,7.64,10.81,7.63,-7.63,-7.65,-7.19,3.18,3.18,3.17
205.23,10.75,7.59,10.75,7.59,-7.60,-7.61,-7.23,3.15,3.15,3.16
207.28,10.69,7.55,10.69,7.56,-7.56,-7.57,-7.27,3.13,3.13,3.14
209.35,10.62,7.52,10.62,7.52,-7.53,-7.53,-7.32,3.10,3.10,3.10
211.44,10.56,7.50,10.56,7.49,-7.49,-7.49,-7.36,3.07,3.07,3.06
213.56,10.49,7.44,10.49,7.45,-7.45,-7.45,-7.41,3.05,3.05,3.05
215.69,10.43,7.41,10.43,7.41,-7.41,-7.40,-7.45,3.02,3.02,3.02
217.85,10.36,7.37,10.36,7.37,-7.37,-7.36,-7.50,3.00,3.00,2.99
220.03,10.30,7.32,10.30,7.32,-7.32,-7.31,-7.54,2.98,2.98,2.98
222.23,10.24,7.28,10.24,7.28,-7.28,-7.27,-7.58,2.96,2.95,2.96
224.45,10.17,7.23,10.17,7.23,-7.24,-7.22,-7.62,2.93,2.93,2.94
226.70,10.10,7.19,10.10,7.19,-7.19,-7.17,-7.65,2.91,2.91,2.91
228.96,10.04,7.15,10.04,7.15,-7.15,-7.12,-7.68,2.89,2.89,2.89
231.25,9.97,7.10,9.97,7.10,-7.10,-7.07,-7.71,2.87,2.87,2.87
233.57,9.91,7.05,9.91,7.05,-7.06,-7.02,-7.72,2.85,2.85,2.86
235.90,9.84,6.99,9.84,7.01,-7.01,-6.96,-7.73,2.84,2.84,2.85
238.26,9.78,6.97,9.78,6.96,-6.96,-6.91,-7.74,2.82,2.82,2.81
240.64,9.71,6.93,9.71,6.92,-6.91,-6.85,-7.73,2.80,2.80,2.78
243.05,9.65,6.85,9.65,6.86,-6.86,-6.80,-7.72,2.79,2.79,2.79
245.48,9.58,6.80,9.58,6.80,-6.80,-6.74,-7.69,2.78,2.78,2.78
247.93,9.51,6.74,9.51,6.74,-6.75,-6.68,-7.66,2.77,2.77,2.77
250.41,9.44,6.69,9.44,6.69,-6.69,-6.63,-7.61,2.76,2.76,2.76
252.92,9.38,6.63,9.38,6.63,-6.63,-6.57,-7.56,2.75,2.75,2.75
255.45,9.31,6.57,9.31,6.57,-6.56,-6.50,-7.49,2.74,2.74,2.74
258.00,9.24,6.50,9.24,6.50,-6.50,-6.44,-7.42,2.74,2.74,2.74
260.58,9.17,6.44,9.17,6.44,-6.44,-6.38,-7.34,2.73,2.73,2.74
263.19,9.10,6.37,9.10,6.37,-6.37,-6.32,-7.25,2.73,2.73,2.73
265.82,9.04,6.30,9.03,6.30,-6.31,-6.25,-7.14,2.73,2.73,2.73
268.48,8.96,6.24,8.97,6.24,-6.24,-6.19,-7.04,2.73,2.73,2.73
271.16,8.89,6.17,8.89,6.17,-6.17,-6.12,-6.92,2.72,2.72,2.72
273.87,8.82,6.11,8.82,6.10,-6.10,-6.05,-6.80,2.73,2.73,2.72
276.61,8.75,6.03,8.75,6.03,-6.02,-5.98,-6.66,2.73,2.73,2.72
279.38,8.68,5.95,8.68,5.95,-5.95,-5.91,-6.53,2.73,2.73,2.74
282.17,8.61,5.87,8.61,5.87,-5.87,-5.84,-6.39,2.74,2.74,2.74
284.99,8.54,5.80,8.54,5.80,-5.80,-5.77,-6.25,2.74,2.74,2.74
287.84,8.47,5.72,8.47,5.72,-5.73,-5.69,-6.10,2.74,2.74,2.75
290.72,8.40,5.64,8.40,5.63,-5.65,-5.62,-5.95,2.75,2.75,2.76
293.63,8.33,5.55,8.33,5.57,-5.57,-5.54,-5.80,2.76,2.76,2.78
296.57,8.26,5.49,8.26,5.51,-5.49,-5.46,-5.65,2.77,2.77,2.76
299.53,8.19,5.47,8.19,5.43,-5.41,-5.39,-5.50,2.78,2.78,2.72
302.53,8.12,5.33,8.12,5.34,-5.32,-5.31,-5.34,2.79,2.79,2.78
305.55,8.05,5.21,8.05,5.23,-5.23,-5.22,-5.19,2.81,2.81,2.84
308.61,7.97,5.13,7.97,5.13,-5.14,-5.14,-5.04,2.83,2.83,2.84
311.69,7.90,5.05,7.90,5.04,-5.05,-5.06,-4.88,2.85,2.85,2.85
314.81,7.83,4.95,7.83,4.95,-4.96,-4.97,-4.73,2.87,2.88,2.88
317.96,7.76,4.86,7.76,4.86,-4.86,-4.88,-4.58,2.90,2.90,2.90
321.14,7.69,4.77,7.69,4.77,-4.77,-4.79,-4.43,2.92,2.92,2.92
324.35,7.62,4.68,7.62,4.68,-4.67,-4.70,-4.29,2.94,2.94,2.94
327.59,7.55,4.58,7.55,4.58,-4.58,-4.61,-4.14,2.96,2.96,2.96
330.87,7.47,4.49,7.47,4.49,-4.49,-4.52,-4.00,2.98,2.98,2.98
334.18,7.40,4.39,7.40,4.39,-4.39,-4.42,-3.86,3.00,3.00,3.01
337.52,7.33,4.29,7.33,4.29,-4.30,-4.33,-3.72,3.03,3.03,3.03
340.90,7.25,4.20,7.25,4.20,-4.20,-4.23,-3.59,3.05,3.05,3.05
344.30,7.18,4.11,7.18,4.10,-4.10,-4.13,-3.45,3.08,3.08,3.07
347.75,7.10,4.01,7.10,4.01,-4.00,-4.03,-3.32,3.11,3.11,3.10
351.23,7.03,3.90,7.03,3.90,-3.90,-3.93,-3.19,3.14,3.14,3.13
354.74,6.96,3.79,6.96,3.79,-3.79,-3.82,-3.07,3.16,3.16,3.17
358.28,6.88,3.67,6.88,3.68,-3.69,-3.72,-2.94,3.19,3.19,3.21
361.87,6.81,3.58,6.81,3.58,-3.59,-3.61,-2.82,3.22,3.22,3.23
365.49,6.74,3.50,6.74,3.49,-3.49,-3.51,-2.70,3.25,3.25,3.24
369.14,6.67,3.40,6.67,3.40,-3.39,-3.40,-2.58,3.28,3.28,3.27
372.83,6.60,3.30,6.60,3.30,-3.30,-3.29,-2.47,3.30,3.30,3.30
376.56,6.53,3.20,6.53,3.20,-3.20,-3.18,-2.35,3.33,3.33,3.33
380.33,6.46,3.10,6.46,3.10,-3.10,-3.07,-2.24,3.36,3.36,3.36
384.13,6.39,3.00,6.39,3.00,-3.00,-2.96,-2.13,3.39,3.39,3.39
387.97,6.32,2.90,6.32,2.90,-2.90,-2.85,-2.02,3.42,3.42,3.42
391.85,6.24,2.80,6.24,2.80,-2.80,-2.74,-1.92,3.44,3.44,3.44
395.77,6.17,2.70,6.17,2.70,-2.70,-2.63,-1.82,3.47,3.47,3.47
399.73,6.10,2.59,6.09,2.59,-2.59,-2.51,-1.71,3.50,3.50,3.50
403.72,6.02,2.49,6.02,2.49,-2.49,-2.40,-1.61,3.53,3.53,3.53
407.76,5.95,2.38,5.95,2.38,-2.39,-2.29,-1.51,3.56,3.56,3.56
411.84,5.87,2.28,5.87,2.28,-2.28,-2.17,-1.42,3.59,3.59,3.59
415.96,5.80,2.17,5.80,2.17,-2.17,-2.06,-1.32,3.62,3.62,3.62
420.12,5.72,2.06,5.72,2.07,-2.06,-1.95,-1.23,3.66,3.66,3.66
424.32,5.64,1.96,5.64,1.96,-1.95,-1.83,-1.14,3.70,3.70,3.68
428.56,5.57,1.84,5.57,1.84,-1.83,-1.72,-1.05,3.74,3.74,3.73
432.85,5.49,1.72,5.49,1.72,-1.72,-1.61,-0.96,3.78,3.78,3.78
437.18,5.42,1.59,5.42,1.59,-1.60,-1.49,-0.87,3.82,3.82,3.83
441.55,5.35,1.48,5.35,1.48,-1.48,-1.38,-0.79,3.86,3.86,3.87
445.96,5.27,1.36,5.27,1.36,-1.37,-1.27,-0.70,3.91,3.91,3.91
450.42,5.20,1.25,5.20,1.25,-1.25,-1.15,-0.62,3.95,3.95,3.95
454.93,5.12,1.14,5.12,1.14,-1.14,-1.04,-0.54,3.98,3.99,3.99
459.48,5.05,1.03,5.05,1.03,-1.03,-0.93,-0.46,4.02,4.02,4.02
464.07,4.98,0.92,4.98,0.92,-0.92,-0.82,-0.38,4.06,4.06,4.06
468.71,4.90,0.81,4.90,0.81,-0.81,-0.71,-0.30,4.09,4.09,4.09
473.40,4.82,0.70,4.82,0.70,-0.69,-0.60,-0.23,4.13,4.13,4.12
478.13,4.75,0.59,4.75,0.58,-0.58,-0.49,-0.16,4.16,4.16,4.16
