frequency,raw,error,smoothed,error_smoothed,equalization,parametric_eq,fixed_band_eq,equalized_raw,equalized_smoothed,target
20.00,-0.41,-9.12,-0.41,-9.11,6.00,6.56,2.78,5.59,5.59,8.71
20.20,-0.38,-9.09,-0.39,-9.10,6.00,6.56,2.86,5.62,5.61,8.71
20.40,-0.36,-9.06,-0.36,-9.07,6.00,6.56,2.94,5.64,5.64,8.71
20.61,-0.33,-9.04,-0.32,-9.02,6.00,6.45,3.02,5.67,5.68,8.71
20.81,-0.27,-8.97,-0.27,-8.97,6.00,6.33,3.11,5.73,5.73,8.70
21.02,-0.20,-8.90,-0.21,-8.91,6.00,6.19,3.20,5.80,5.79,8.70
21.23,-0.14,-8.83,-0.14,-8.83,6.00,6.04,3.29,5.86,5.86,8.70
21.44,-0.07,-8.76,-0.07,-8.76,6.00,5.93,3.38,5.93,5.93,8.69
21.66,0.02,-8.68,0.01,-8.68,6.00,5.82,3.48,6.02,6.01,8.69
21.87,0.11,-8.58,0.12,-8.57,6.00,5.75,3.58,6.11,6.12,8.69
22.09,0.24,-8.44,0.25,-8.44,6.00,5.69,3.68,6.24,6.25,8.69
22.31,0.40,-8.28,0.40,-8.28,6.00,5.67,3.79,6.40,6.40,8.68
22.54,0.57,-8.11,0.57,-8.11,6.00,5.65,3.89,6.57,6.57,8.68
22.76,0.74,-7.93,0.74,-7.93,6.00,5.66,4.00,6.74,6.74,8.67
22.99,0.90,-7.77,0.89,-7.77,6.00,5.68,4.12,6.90,6.89,8.67
23.22,1.01,-7.65,1.01,-7.66,6.00,5.72,4.23,7.01,7.01,8.66
23.45,1.06,-7.59,1.06,-7.59,6.00,5.75,4.35,7.06,7.06,8.65
23.69,1.06,-7.59,1.06,-7.59,6.00,5.80,4.47,7.06,7.06,8.65
23.92,0.99,-7.64,0.99,-7.64,6.00,5.85,4.59,6.99,6.99,8.64
24.16,0.89,-7.74,0.88,-7.74,6.00,5.91,4.72,6.89,6.88,8.62
24.40,0.75,-7.85,0.75,-7.86,6.00,5.96,4.85,6.75,6.75,8.60
24.65,0.61,-7.97,0.62,-7.96,6.00,6.01,4.98,6.61,6.62,8.58
24.89,0.51,-8.04,0.52,-8.03,6.00,6.06,5.11,6.51,6.52,8.55
25.14,0.47,-8.05,0.47,-8.05,6.00,6.10,5.24,6.47,6.47,8.52
25.39,0.46,-8.03,0.47,-8.02,6.00,6.14,5.38,6.46,6.47,8.49
25.65,0.52,-7.95,0.52,-7.95,6.00,6.17,5.51,6.52,6.52,8.47
25.91,0.59,-7.87,0.59,-7.87,6.00,6.19,5.65,6.59,6.59,8.46
26.16,0.65,-7.80,0.65,-7.81,6.00,6.20,5.78,6.65,6.65,8.45
26.43,0.69,-7.77,0.68,-7.77,6.00,6.21,5.92,6.69,6.68,8.45
26.69,0.69,-7.77,0.69,-7.77,6.00,6.21,6.05,6.69,6.69,8.46
26.96,0.68,-7.78,0.68,-7.78,6.00,6.20,6.19,6.68,6.68,8.46
27.23,0.67,-7.79,0.67,-7.78,6.00,6.19,6.31,6.67,6.67,8.46
27.50,0.67,-7.76,0.68,-7.76,6.00,6.18,6.44,6.67,6.68,8.44
27.77,0.71,-7.70,0.72,-7.69,6.00,6.16,6.56,6.71,6.72,8.41
28.05,0.78,-7.60,0.78,-7.59,6.00,6.14,6.68,6.78,6.78,8.38
28.33,0.87,-7.47,0.86,-7.47,6.00,6.11,6.79,6.87,6.86,8.34
28.62,0.95,-7.35,0.94,-7.35,6.00,6.09,6.90,6.95,6.94,8.30
28.90,1.01,-7.25,1.01,-7.25,6.00,6.06,7.00,7.01,7.01,8.26
29.19,1.05,-7.18,1.05,-7.18,6.00,6.04,7.09,7.05,7.05,8.23
29.48,1.08,-7.12,1.08,-7.12,6.00,6.01,7.17,7.08,7.08,8.20
29.78,1.10,-7.06,1.10,-7.06,6.00,5.99,7.25,7.10,7.10,8.17
30.08,1.14,-7.00,1.14,-6.99,6.00,5.97,7.31,7.14,7.14,8.13
30.38,1.19,-6.90,1.20,-6.90,6.00,5.95,7.36,7.19,7.20,8.10
30.68,1.26,-6.80,1.26,-6.80,6.00,5.93,7.40,7.26,7.26,8.06
30.99,1.30,-6.72,1.30,-6.73,6.00,5.92,7.43,7.30,7.30,8.03
31.30,1.31,-6.69,1.30,-6.70,6.00,5.90,7.44,7.31,7.30,8.00
31.61,1.27,-6.72,1.26,-6.73,6.00,5.89,7.45,7.27,7.26,7.99
31.93,1.18,-6.79,1.18,-6.79,6.00,5.88,7.44,7.18,7.18,7.97
32.24,1.09,-6.87,1.09,-6.87,6.00,5.87,7.43,7.09,7.09,7.96
32.57,1.01,-6.93,1.02,-6.92,6.00,5.86,7.39,7.01,7.02,7.94
32.89,1.00,-6.91,1.01,-6.90,6.00,5.85,7.36,7.00,7.01,7.91
33.22,1.06,-6.82,1.06,-6.81,6.00,5.85,7.30,7.06,7.06,7.88
33.55,1.16,-6.68,1.16,-6.68,6.00,5.84,7.25,7.16,7.16,7.84
33.89,1.27,-6.52,1.26,-6.53,6.00,5.84,7.18,7.27,7.26,7.79
34.23,1.34,-6.41,1.33,-6.41,6.00,5.83,7.10,7.34,7.33,7.75
34.57,1.37,-6.33,1.36,-6.34,6.00,5.83,7.02,7.37,7.36,7.70
34.92,1.35,-6.32,1.35,-6.32,6.00,5.82,6.93,7.35,7.35,7.67
35.27,1.31,-6.33,1.31,-6.33,6.00,5.82,6.84,7.31,7.31,7.64
35.62,1.26,-6.35,1.27,-6.34,6.00,5.81,6.74,7.26,7.27,7.61
35.97,1.23,-6.35,1.23,-6.34,6.00,5.81,6.64,7.23,7.23,7.57
36.33,1.21,-6.33,1.21,-6.33,6.00,5.80,6.54,7.21,7.21,7.54
36.70,1.19,-6.32,1.18,-6.32,6.00,5.80,6.43,7.19,7.18,7.50
37.06,1.16,-6.31,1.16,-6.31,6.00,5.79,6.33,7.16,7.16,7.46
37.43,1.12,-6.30,1.13,-6.30,6.00,5.78,6.22,7.12,7.13,7.43
37.81,1.10,-6.29,1.10,-6.29,6.00,5.77,6.12,7.10,7.10,7.39
38.19,1.08,-6.28,1.08,-6.27,6.01,5.76,6.01,7.09,7.09,7.36
38.57,1.07,-6.25,1.06,-6.25,6.02,5.74,5.91,7.08,7.08,7.31
38.95,1.05,-6.22,1.04,-6.23,6.03,5.73,5.81,7.07,7.07,7.27
39.34,1.02,-6.20,1.02,-6.20,6.03,5.71,5.71,7.04,7.04,7.22
39.74,1.00,-6.18,1.00,-6.18,6.01,5.69,5.61,7.00,7.00,7.17
40.14,1.00,-6.13,1.00,-6.13,5.97,5.67,5.51,6.97,6.98,7.13
40.54,1.04,-6.06,1.05,-6.05,5.92,5.65,5.42,6.96,6.97,7.10
40.94,1.14,-5.93,1.14,-5.93,5.84,5.62,5.33,6.98,6.98,7.06
41.35,1.25,-5.78,1.25,-5.78,5.74,5.60,5.25,6.99,6.99,7.03
41.76,1.36,-5.63,1.35,-5.64,5.64,5.57,5.16,7.01,7.00,6.99
42.18,1.44,-5.50,1.44,-5.50,5.54,5.54,5.08,6.98,6.98,6.94
42.60,1.49,-5.39,1.49,-5.39,5.46,5.51,5.01,6.95,6.95,6.89
43.03,1.51,-5.31,1.51,-5.31,5.40,5.47,4.93,6.91,6.91,6.82
43.46,1.49,-5.27,1.49,-5.27,5.35,5.44,4.86,6.85,6.85,6.76
43.90,1.44,-5.26,1.44,-5.27,5.33,5.40,4.80,6.77,6.77,6.71
44.33,1.36,-5.30,1.36,-5.31,5.31,5.36,4.74,6.67,6.67,6.66
44.78,1.28,-5.35,1.28,-5.35,5.28,5.32,4.68,6.55,6.56,6.63
45.23,1.23,-5.36,1.25,-5.35,5.22,5.28,4.63,6.45,6.47,6.60
45.68,1.27,-5.28,1.28,-5.27,5.14,5.23,4.57,6.41,6.42,6.55
46.13,1.38,-5.12,1.38,-5.12,5.03,5.19,4.53,6.41,6.42,6.50
46.60,1.54,-4.91,1.53,-4.92,4.92,5.14,4.48,6.45,6.45,6.45
47.06,1.67,-4.72,1.67,-4.72,4.79,5.09,4.44,6.47,6.46,6.39
47.53,1.78,-4.56,1.77,-4.57,4.68,5.04,4.41,6.46,6.45,6.34
48.01,1.80,-4.49,1.80,-4.49,4.59,4.98,4.37,6.39,6.39,6.29
48.49,1.77,-4.46,1.77,-4.46,4.54,4.93,4.34,6.31,6.31,6.23
48.97,1.69,-4.48,1.69,-4.48,4.52,4.87,4.31,6.21,6.21,6.17
49.46,1.59,-4.52,1.59,-4.52,4.52,4.82,4.29,6.11,6.11,6.12
49.96,1.49,-4.57,1.50,-4.56,4.53,4.76,4.26,6.02,6.03,6.06
50.46,1.42,-4.59,1.42,-4.59,4.52,4.70,4.24,5.95,5.95,6.01
50.96,1.38,-4.58,1.39,-4.58,4.49,4.64,4.22,5.88,5.88,5.96
51.47,1.39,-4.53,1.40,-4.52,4.43,4.58,4.21,5.82,5.83,5.92
51.99,1.46,-4.42,1.46,-4.41,4.35,4.52,4.19,5.80,5.81,5.88
52.51,1.55,-4.27,1.56,-4.26,4.24,4.46,4.18,5.80,5.80,5.82
53.03,1.66,-4.10,1.65,-4.10,4.14,4.39,4.16,5.80,5.80,5.75
53.56,1.73,-3.96,1.72,-3.97,4.05,4.33,4.15,5.78,5.77,5.69
54.10,1.75,-3.88,1.74,-3.89,3.98,4.27,4.14,5.73,5.72,5.63
54.64,1.71,-3.86,1.70,-3.87,3.94,4.20,4.13,5.64,5.64,5.57
55.18,1.61,-3.91,1.62,-3.90,3.92,4.14,4.11,5.54,5.54,5.52
55.74,1.50,-3.95,1.51,-3.95,3.94,4.07,4.10,5.44,5.45,5.46
56.29,1.40,-4.00,1.41,-4.00,3.97,4.01,4.09,5.38,5.38,5.40
56.86,1.31,-4.04,1.30,-4.04,4.02,3.94,4.07,5.33,5.32,5.35
57.42,1.22,-4.07,1.21,-4.08,4.06,3.87,4.06,5.28,5.27,5.29
58.00,1.13,-4.10,1.14,-4.09,4.09,3.81,4.04,5.22,5.22,5.23
58.58,1.08,-4.09,1.08,-4.09,4.09,3.74,4.02,5.17,5.17,5.17
59.16,1.05,-4.07,1.05,-4.07,4.06,3.67,3.99,5.11,5.11,5.11
59.76,1.04,-4.04,1.04,-4.04,4.01,3.61,3.97,5.05,5.05,5.08
60.35,1.06,-3.97,1.06,-3.97,3.93,3.54,3.94,4.99,4.99,5.03
60.96,1.10,-3.87,1.10,-3.86,3.82,3.48,3.91,4.92,4.93,4.97
61.57,1.17,-3.72,1.17,-3.72,3.70,3.41,3.87,4.87,4.87,4.88
62.18,1.26,-3.56,1.26,-3.57,3.56,3.34,3.83,4.82,4.82,4.82
62.80,1.35,-3.41,1.35,-3.40,3.42,3.28,3.79,4.77,4.77,4.76
63.43,1.44,-3.26,1.44,-3.25,3.28,3.21,3.74,4.72,4.72,4.70
64.07,1.52,-3.11,1.52,-3.12,3.15,3.15,3.69,4.67,4.67,4.63
64.71,1.57,-3.00,1.57,-3.00,3.05,3.08,3.64,4.62,4.62,4.57
65.35,1.58,-2.92,1.58,-2.92,2.97,3.01,3.58,4.56,4.55,4.51
66.01,1.58,-2.87,1.57,-2.88,2.91,2.95,3.52,4.49,4.48,4.44
66.67,1.53,-2.86,1.53,-2.86,2.86,2.89,3.45,4.38,4.38,4.38
67.33,1.48,-2.85,1.48,-2.85,2.81,2.82,3.39,4.29,4.29,4.33
68.01,1.43,-2.85,1.44,-2.83,2.77,2.76,3.32,4.20,4.21,4.27
68.69,1.42,-2.78,1.43,-2.78,2.73,2.69,3.24,4.15,4.16,4.21
69.37,1.44,-2.70,1.44,-2.70,2.69,2.63,3.17,4.13,4.13,4.14
70.07,1.46,-2.62,1.45,-2.62,2.66,2.57,3.09,4.11,4.11,4.07
70.77,1.46,-2.56,1.45,-2.56,2.62,2.51,3.01,4.08,4.07,4.02
71.48,1.43,-2.52,1.43,-2.53,2.58,2.44,2.93,4.01,4.00,3.95
72.19,1.38,-2.51,1.38,-2.52,2.53,2.38,2.84,3.91,3.91,3.89
72.91,1.32,-2.52,1.32,-2.51,2.49,2.32,2.76,3.81,3.81,3.84
73.64,1.28,-2.49,1.28,-2.49,2.44,2.26,2.67,3.72,3.72,3.77
74.38,1.27,-2.43,1.27,-2.43,2.39,2.20,2.59,3.66,3.66,3.70
75.12,1.28,-2.35,1.28,-2.35,2.33,2.14,2.50,3.61,3.61,3.63
75.87,1.32,-2.26,1.31,-2.26,2.25,2.08,2.42,3.57,3.57,3.57
76.63,1.35,-2.16,1.35,-2.16,2.17,2.02,2.33,3.52,3.52,3.51
77.40,1.38,-2.06,1.38,-2.06,2.08,1.96,2.24,3.47,3.46,3.45
78.17,1.40,-1.98,1.40,-1.98,2.00,1.90,2.16,3.40,3.40,3.38
78.95,1.42,-1.90,1.42,-1.90,1.92,1.84,2.07,3.34,3.34,3.31
79.74,1.42,-1.83,1.42,-1.83,1.85,1.79,1.98,3.27,3.27,3.25
80.54,1.41,-1.78,1.41,-1.78,1.79,1.73,1.90,3.20,3.20,3.19
81.35,1.39,-1.73,1.39,-1.73,1.73,1.67,1.81,3.12,3.12,3.12
82.16,1.37,-1.69,1.37,-1.69,1.67,1.61,1.73,3.04,3.04,3.06
82.98,1.35,-1.64,1.35,-1.64,1.61,1.56,1.65,2.96,2.96,2.99
83.81,1.35,-1.57,1.36,-1.57,1.54,1.50,1.56,2.89,2.90,2.92
84.65,1.38,-1.48,1.38,-1.48,1.47,1.45,1.48,2.85,2.85,2.86
85.50,1.41,-1.39,1.41,-1.39,1.40,1.39,1.40,2.81,2.81,2.80
86.35,1.44,-1.29,1.43,-1.30,1.32,1.33,1.32,2.76,2.76,2.73
87.22,1.44,-1.22,1.44,-1.22,1.25,1.28,1.24,2.69,2.69,2.66
88.09,1.43,-1.16,1.44,-1.16,1.16,1.22,1.16,2.60,2.60,2.60
88.97,1.43,-1.11,1.43,-1.11,1.09,1.17,1.08,2.52,2.52,2.54
89.86,1.43,-1.05,1.43,-1.04,1.02,1.11,1.00,2.45,2.45,2.48
90.76,1.45,-0.97,1.45,-0.97,0.96,1.06,0.93,2.40,2.41,2.42
91.66,1.47,-0.88,1.47,-0.88,0.91,1.00,0.85,2.37,2.37,2.35
92.58,1.48,-0.80,1.47,-0.82,0.86,0.95,0.78,2.34,2.33,2.28
93.51,1.45,-0.77,1.45,-0.77,0.82,0.90,0.70,2.27,2.26,2.22
94.44,1.40,-0.76,1.40,-0.76,0.77,0.84,0.63,2.17,2.17,2.16
95.39,1.34,-0.75,1.34,-0.75,0.72,0.79,0.56,2.06,2.07,2.09
96.34,1.30,-0.73,1.31,-0.72,0.67,0.73,0.48,1.97,1.98,2.03
97.30,1.31,-0.67,1.31,-0.66,0.61,0.68,0.41,1.92,1.93,1.98
98.28,1.34,-0.57,1.34,-0.57,0.55,0.62,0.34,1.89,1.89,1.91
99.26,1.38,-0.47,1.37,-0.47,0.48,0.57,0.27,1.85,1.85,1.84
100.25,1.41,-0.37,1.40,-0.38,0.40,0.51,0.20,1.81,1.80,1.78
101.25,1.42,-0.29,1.42,-0.29,0.31,0.46,0.14,1.74,1.74,1.71
102.27,1.43,-0.21,1.43,-0.21,0.23,0.40,0.07,1.66,1.66,1.65
103.29,1.44,-0.14,1.44,-0.14,0.15,0.35,0.00,1.59,1.59,1.58
104.32,1.45,-0.08,1.45,-0.07,0.07,0.29,-0.06,1.52,1.52,1.52
105.37,1.46,-0.01,1.46,-0.01,-0.00,0.23,-0.13,1.46,1.46,1.47
106.42,1.47,0.06,1.47,0.06,-0.07,0.17,-0.19,1.39,1.39,1.40
107.48,1.47,0.13,1.48,0.13,-0.14,0.11,-0.25,1.33,1.33,1.34
108.56,1.48,0.20,1.49,0.20,-0.21,0.05,-0.31,1.27,1.28,1.29
109.64,1.49,0.27,1.50,0.28,-0.28,-0.01,-0.37,1.22,1.22,1.22
110.74,1.50,0.35,1.50,0.35,-0.34,-0.07,-0.43,1.17,1.16,1.15
111.85,1.49,0.42,1.49,0.41,-0.39,-0.13,-0.49,1.10,1.10,1.08
112.97,1.47,0.45,1.47,0.45,-0.44,-0.19,-0.54,1.03,1.03,1.02
114.10,1.44,0.48,1.44,0.48,-0.48,-0.26,-0.59,0.96,0.96,0.96
115.24,1.41,0.51,1.41,0.51,-0.51,-0.33,-0.64,0.90,0.90,0.89
116.39,1.39,0.54,1.38,0.54,-0.54,-0.39,-0.69,0.84,0.84,0.84
117.55,1.36,0.57,1.36,0.57,-0.57,-0.47,-0.74,0.79,0.79,0.79
118.73,1.33,0.60,1.33,0.60,-0.60,-0.54,-0.79,0.73,0.73,0.73
119.92,1.30,0.62,1.30,0.62,-0.63,-0.61,-0.83,0.67,0.67,0.68
121.12,1.28,0.66,1.27,0.66,-0.67,-0.69,-0.87,0.60,0.60,0.62
122.33,1.25,0.71,1.25,0.71,-0.72,-0.77,-0.91,0.53,0.53,0.54
123.55,1.23,0.78,1.23,0.77,-0.76,-0.85,-0.95,0.46,0.46,0.45
124.79,1.21,0.82,1.21,0.82,-0.82,-0.93,-0.98,0.39,0.39,0.39
126.03,1.20,0.88,1.20,0.88,-0.89,-1.01,-1.02,0.32,0.32,0.32
127.29,1.21,0.95,1.21,0.94,-0.96,-1.10,-1.05,0.25,0.25,0.26
128.57,1.22,1.02,1.23,1.02,-1.03,-1.18,-1.08,0.20,0.20,0.21
129.85,1.25,1.10,1.25,1.10,-1.10,-1.27,-1.10,0.15,0.15,0.15
131.15,1.27,1.18,1.27,1.18,-1.17,-1.35,-1.13,0.10,0.10,0.09
132.46,1.28,1.26,1.28,1.26,-1.24,-1.43,-1.15,0.04,0.04,0.02
133.79,1.29,1.32,1.29,1.32,-1.31,-1.51,-1.17,-0.02,-0.02,-0.04
135.12,1.29,1.38,1.29,1.38,-1.38,-1.58,-1.19,-0.09,-0.09,-0.10
136.48,1.29,1.44,1.29,1.44,-1.44,-1.65,-1.21,-0.15,-0.15,-0.15
137.84,1.29,1.49,1.28,1.49,-1.50,-1.71,-1.23,-0.21,-0.21,-0.20
139.22,1.28,1.55,1.28,1.55,-1.56,-1.77,-1.25,-0.28,-0.28,-0.27
140.61,1.28,1.61,1.28,1.61,-1.62,-1.81,-1.26,-0.34,-0.34,-0.33
142.02,1.28,1.67,1.28,1.67,-1.68,-1.85,-1.28,-0.40,-0.40,-0.39
143.44,1.28,1.73,1.28,1.73,-1.73,-1.87,-1.29,-0.46,-0.46,-0.45
144.87,1.28,1.80,1.28,1.78,-1.79,-1.89,-1.31,-0.51,-0.51,-0.52
146.32,1.27,1.84,1.27,1.84,-1.84,-1.90,-1.32,-0.57,-0.57,-0.56
147.78,1.27,1.88,1.26,1.90,-1.89,-1.91,-1.33,-0.62,-0.62,-0.61
149.26,1.25,1.96,1.25,1.94,-1.93,-1.91,-1.35,-0.68,-0.68,-0.70
150.75,1.24,1.98,1.24,1.96,-1.96,-1.91,-1.36,-0.72,-0.72,-0.74
152.26,1.23,1.95,1.23,1.98,-1.98,-1.90,-1.38,-0.76,-0.75,-0.73
153.78,1.22,1.97,1.22,1.98,-1.99,-1.90,-1.39,-0.77,-0.77,-0.76
155.32,1.20,2.00,1.20,2.00,-1.98,-1.90,-1.41,-0.78,-0.78,-0.79
156.88,1.19,2.01,1.19,1.99,-1.97,-1.90,-1.42,-0.77,-0.77,-0.82
158.44,1.18,1.97,1.18,1.96,-1.93,-1.90,-1.44,-0.75,-0.75,-0.79
160.03,1.17,1.89,1.17,1.91,-1.90,-1.90,-1.46,-0.73,-0.73,-0.72
161.63,1.15,1.86,1.15,1.86,-1.86,-1.90,-1.48,-0.71,-0.71,-0.71
163.24,1.14,1.83,1.14,1.82,-1.83,-1.90,-1.50,-0.70,-0.70,-0.69
164.88,1.12,1.78,1.13,1.78,-1.81,-1.91,-1.52,-0.68,-0.68,-0.66
166.53,1.12,1.75,1.12,1.76,-1.79,-1.92,-1.55,-0.67,-0.67,-0.64
168.19,1.11,1.76,1.11,1.77,-1.79,-1.93,-1.57,-0.68,-0.68,-0.65
169.87,1.11,1.81,1.10,1.80,-1.81,-1.94,-1.59,-0.70,-0.70,-0.70
171.57,1.10,1.85,1.10,1.84,-1.84,-1.95,-1.62,-0.74,-0.74,-0.75
173.29,1.08,1.89,1.08,1.88,-1.88,-1.96,-1.65,-0.80,-0.80,-0.80
175.02,1.07,1.92,1.07,1.92,-1.93,-1.98,-1.68,-0.86,-0.86,-0.85
176.77,1.05,1.96,1.05,1.98,-1.98,-1.99,-1.71,-0.92,-0.92,-0.90
178.54,1.04,2.03,1.04,2.04,-2.02,-2.01,-1.74,-0.98,-0.98,-1.00
180.32,1.03,2.12,1.03,2.08,-2.06,-2.03,-1.78,-1.03,-1.03,-1.09
182.13,1.01,2.10,1.01,2.11,-2.09,-2.04,-1.81,-1.08,-1.08,-1.09
183.95,1.00,2.12,1.00,2.12,-2.12,-2.06,-1.85,-1.12,-1.12,-1.12
185.79,0.99,2.13,0.99,2.13,-2.14,-2.08,-1.89,-1.16,-1.16,-1.15
187.65,0.97,2.15,0.97,2.15,-2.16,-2.10,-1.93,-1.19,-1.19,-1.18
189.52,0.95,2.18,0.95,2.17,-2.18,-2.12,-1.97,-1.23,-1.23,-1.22
191.42,0.94,2.20,0.94,2.20,-2.20,-2.14,-2.01,-1.26,-1.26,-1.26
193.33,0.92,2.22,0.92,2.22,-2.22,-2.16,-2.05,-1.30,-1.30,-1.30
195.27,0.90,2.24,0.90,2.24,-2.24,-2.18,-2.10,-1.34,-1.34,-1.34
197.22,0.88,2.26,0.88,2.26,-2.26,-2.20,-2.14,-1.38,-1.38,-1.37
199.19,0.87,2.29,0.87,2.29,-2.29,-2.21,-2.19,-1.41,-1.41,-1.42
201.18,0.86,2.32,0.86,2.31,-2.30,-2.23,-2.24,-1.45,-1.45,-1.46
203.19,0.84,2.34,0.84,2.33,-2.32,-2.25,-2.28,-1.48,-1.48,-1.49
205.23,0.82,2.33,0.83,2.34,-2.34,-2.27,-2.33,-1.51,-1.51,-1.51
207.28,0.81,2.34,0.81,2.34,-2.35,-2.28,-2.37,-1.54,-1.54,-1.53
209.35,0.79,2.35,0.79,2.35,-2.36,-2.30,-2.42,-1.57,-1.57,-1.56
211.44,0.77,2.38,0.77,2.37,-2.37,-2.31,-2.47,-1.60,-1.60,-1.60
213.56,0.76,2.37,0.76,2.38,-2.38,-2.32,-2.51,-1.62,-1.62,-1.62
215.69,0.74,2.39,0.74,2.39,-2.39,-2.34,-2.56,-1.64,-1.64,-1.64
217.85,0.73,2.40,0.73,2.39,-2.39,-2.35,-2.60,-1.67,-1.67,-1.67
220.03,0.71,2.40,0.71,2.40,-2.40,-2.36,-2.64,-1.69,-1.69,-1.69
222.23,0.69,2.40,0.69,2.40,-2.40,-2.37,-2.68,-1.71,-1.71,-1.71
224.45,0.67,2.40,0.67,2.41,-2.41,-2.37,-2.71,-1.73,-1.73,-1.73
226.70,0.66,2.41,0.66,2.41,-2.41,-2.38,-2.75,-1.75,-1.75,-1.75
228.96,0.64,2.41,0.64,2.41,-2.41,-2.39,-2.78,-1.77,-1.77,-1.78
231.25,0.62,2.41,0.62,2.41,-2.41,-2.39,-2.80,-1.79,-1.79,-1.79
233.57,0.59,2.40,0.59,2.40,-2.41,-2.39,-2.83,-1.81,-1.81,-1.81
235.90,0.57,2.39,0.57,2.40,-2.41,-2.39,-2.84,-1.83,-1.83,-1.82
238.26,0.55,2.41,0.55,2.40,-2.40,-2.39,-2.86,-1.85,-1.85,-1.86
240.64,0.53,2.42,0.53,2.40,-2.40,-2.39,-2.87,-1.86,-1.86,-1.88
243.05,0.51,2.38,0.51,2.39,-2.39,-2.39,-2.87,-1.88,-1.88,-1.87
245.48,0.49,2.37,0.49,2.38,-2.38,-2.38,-2.87,-1.89,-1.89,-1.88
247.93,0.47,2.36,0.47,2.36,-2.37,-2.37,-2.87,-1.90,-1.90,-1.90
250.41,0.45,2.36,0.45,2.36,-2.36,-2.36,-2.85,-1.91,-1.91,-1.91
252.92,0.43,2.34,0.43,2.34,-2.34,-2.35,-2.84,-1.92,-1.92,-1.92
255.45,0.40,2.33,0.40,2.33,-2.33,-2.34,-2.82,-1.92,-1.92,-1.92
258.00,0.38,2.31,0.38,2.31,-2.31,-2.33,-2.79,-1.93,-1.93,-1.93
260.58,0.36,2.29,0.36,2.29,-2.29,-2.31,-2.76,-1.93,-1.93,-1.93
263.19,0.34,2.27,0.34,2.27,-2.28,-2.30,-2.72,-1.94,-1.94,-1.93
265.82,0.32,2.25,0.32,2.25,-2.26,-2.28,-2.68,-1.94,-1.94,-1.94
268.48,0.30,2.24,0.30,2.24,-2.24,-2.26,-2.63,-1.94,-1.94,-1.94
271.16,0.28,2.22,0.28,2.22,-2.22,-2.23,-2.58,-1.94,-1.94,-1.94
273.87,0.25,2.20,0.25,2.20,-2.19,-2.21,-2.53,-1.94,-1.94,-1.95
276.61,0.23,2.18,0.23,2.17,-2.17,-2.18,-2.47,-1.94,-1.94,-1.95
279.38,0.21,2.14,0.21,2.14,-2.14,-2.16,-2.41,-1.93,-1.93,-1.93
282.17,0.18,2.11,0.18,2.11,-2.11,-2.13,-2.35,-1.93,-1.93,-1.93
284.99,0.16,2.08,0.16,2.08,-2.08,-2.10,-2.28,-1.93,-1.93,-1.93
287.84,0.13,2.05,0.13,2.04,-2.06,-2.06,-2.21,-1.93,-1.93,-1.92
290.72,0.11,2.01,0.11,2.01,-2.02,-2.03,-2.14,-1.92,-1.92,-1.90
293.63,0.08,1.97,0.08,1.99,-1.99,-1.99,-2.06,-1.91,-1.91,-1.89
296.57,0.06,1.96,0.06,1.97,-1.96,-1.96,-1.99,-1.90,-1.90,-1.90
299.53,0.03,1.98,0.03,1.94,-1.92,-1.92,-1.91,-1.88,-1.89,-1.95
302.53,0.01,1.89,0.01,1.89,-1.88,-1.88,-1.83,-1.87,-1.87,-1.88
305.55,-0.02,1.81,-0.02,1.84,-1.84,-1.84,-1.76,-1.86,-1.86,-1.83
308.61,-0.05,1.78,-0.05,1.77,-1.79,-1.79,-1.68,-1.84,-1.84,-1.82
311.69,-0.07,1.74,-0.07,1.73,-1.74,-1.75,-1.60,-1.82,-1.82,-1.81
314.81,-0.10,1.69,-0.10,1.69,-1.69,-1.70,-1.52,-1.79,-1.79,-1.79
317.96,-0.12,1.64,-0.12,1.65,-1.64,-1.65,-1.44,-1.77,-1.77,-1.77
321.14,-0.15,1.60,-0.15,1.60,-1.60,-1.60,-1.36,-1.74,-1.74,-1.75
324.35,-0.17,1.55,-0.17,1.55,-1.55,-1.55,-1.28,-1.72,-1.72,-1.73
327.59,-0.20,1.51,-0.20,1.51,-1.50,-1.50,-1.20,-1.70,-1.70,-1.70
330.87,-0.23,1.46,-0.23,1.46,-1.46,-1.45,-1.12,-1.68,-1.68,-1.68
334.18,-0.25,1.41,-0.25,1.41,-1.41,-1.40,-1.04,-1.66,-1.66,-1.66
337.52,-0.28,1.36,-0.28,1.36,-1.36,-1.34,-0.96,-1.64,-1.64,-1.63
340.90,-0.31,1.31,-0.31,1.31,-1.31,-1.29,-0.88,-1.61,-1.61,-1.61
344.30,-0.33,1.26,-0.33,1.26,-1.25,-1.23,-0.81,-1.59,-1.59,-1.59
347.75,-0.36,1.21,-0.36,1.21,-1.20,-1.17,-0.73,-1.56,-1.56,-1.57
351.23,-0.39,1.15,-0.39,1.15,-1.14,-1.11,-0.65,-1.53,-1.53,-1.54
354.74,-0.42,1.08,-0.42,1.08,-1.09,-1.05,-0.57,-1.50,-1.50,-1.50
358.28,-0.45,1.01,-0.45,1.02,-1.03,-0.99,-0.50,-1.47,-1.47,-1.45
361.87,-0.47,0.96,-0.47,0.96,-0.97,-0.93,-0.42,-1.45,-1.45,-1.43
365.49,-0.50,0.93,-0.50,0.91,-0.91,-0.87,-0.35,-1.42,-1.42,-1.43
369.14,-0.53,0.86,-0.53,0.86,-0.86,-0.81,-0.27,-1.39,-1.39,-1.39
372.83,-0.56,0.80,-0.56,0.81,-0.80,-0.75,-0.20,-1.36,-1.36,-1.36
376.56,-0.59,0.75,-0.59,0.75,-0.74,-0.69,-0.12,-1.34,-1.34,-1.34
380.33,-0.62,0.69,-0.62,0.69,-0.69,-0.62,-0.05,-1.31,-1.31,-1.31
384.13,-0.65,0.63,-0.65,0.63,-0.63,-0.56,0.02,-1.28,-1.28,-1.28
387.97,-0.68,0.57,-0.68,0.57,-0.57,-0.49,0.09,-1.25,-1.25,-1.25
391.85,-0.71,0.52,-0.71,0.52,-0.52,-0.43,0.16,-1.22,-1.22,-1.22
395.77,-0.74,0.46,-0.74,0.46,-0.46,-0.36,0.23,-1.19,-1.19,-1.19
399.73,-0.77,0.40,-0.76,0.40,-0.40,-0.30,0.30,-1.17,-1.17,-1.16
403.72,-0.79,0.34,-0.79,0.34,-0.34,-0.23,0.37,-1.14,-1.14,-1.13
407.76,-0.82,0.28,-0.82,0.28,-0.29,-0.17,0.44,-1.11,-1.11,-1.10
411.84,-0.85,0.23,-0.85,0.23,-0.23,-0.10,0.51,-1.08,-1.08,-1.08
415.96,-0.88,0.17,-0.88,0.17,-0.17,-0.04,0.57,-1.04,-1.04,-1.04
420.12,-0.90,0.11,-0.90,0.11,-0.10,0.03,0.64,-1.01,-1.01,-1.01
424.32,-0.93,0.05,-0.93,0.04,-0.04,0.09,0.70,-0.97,-0.97,-0.98
428.56,-0.96,-0.02,-0.96,-0.03,0.03,0.16,0.77,-0.93,-0.93,-0.94
432.85,-0.99,-0.10,-0.99,-0.10,0.10,0.22,0.83,-0.89,-0.89,-0.89
437.18,-1.02,-0.18,-1.02,-0.18,0.18,0.29,0.89,-0.85,-0.85,-0.84
441.55,-1.05,-0.25,-1.05,-0.25,0.25,0.35,0.94,-0.80,-0.80,-0.80
445.96,-1.08,-0.32,-1.08,-0.32,0.32,0.41,1.00,-0.76,-0.76,-0.76
450.42,-1.11,-0.39,-1.11,-0.39,0.39,0.48,1.05,-0.72,-0.72,-0.72
454.93,-1.14,-0.46,-1.14,-0.46,0.46,0.54,1.10,-0.68,-0.68,-0.68
459.48,-1.17,-0.53,-1.17,-0.52,0.52,0.60,1.15,-0.64,-0.64,-0.64
464.07,-1.20,-0.59,-1.20,-0.59,0.59,0.66,1.20,-0.61,-0.61,-0.61
468.71,-1.23,-0.65,-1.23,-0.65,0.65,0.72,1.24,-0.57,-0.57,-0.58
473.40,-1.26,-0.71,-1.26,-0.71,0.72,0.78,1.28,-0.54,-0.54,-0.54
478.13,-1.29,-0.78,-1.29,-0.78,0.78,0.84,1.32,-0.50,-0.50,-0.50
482.91,-1.31,-0.85,-1.31,-0.85,0.85,0.90,1.36,-0.47,-0.47,-0.46
487.74,-1.34,-0.91,-1.34,-0.91,0.91,0.96,1.39,-0.43,-0.43,-0.43
492.62,-1.37,-0.98,-1.37,-0.98,0.98,1.01,1.42,-0.40,-0.40,-0.40
497.55,-1.40,-1.04,-1.40,-1.04,1.04,1.07,1.44,-0.36,-0.36,-0.36
502.52,-1.43,-1.11,-1.43,-1.10,1.11,1.12,1.46,-0.32,-0.32,-0.32
507.55,-1.46,-1.17,-1.46,-1.17,1.17,1.17,1.48,-0.29,-0.29,-0.29
512.62,-1.49,-1.23,-1.49,-1.23,1.23,1.22,1.50,-0.26,-0.26,-0.26
517.75,-1.52,-1.30,-1.52,-1.30,1.30,1.27,1.51,-0.23,-0.23,-0.22
