frequency,raw,error,smoothed,error_smoothed,equalization,parametric_eq,fixed_band_eq,equalized_raw,equalized_smoothed,target
20.00,5.38,-3.92,5.39,-3.92,3.94,-0.00,1.32,9.33,9.33,9.31
20.20,5.40,-3.92,5.40,-3.93,3.93,-0.00,1.36,9.33,9.33,9.33
20.40,5.42,-3.93,5.41,-3.93,3.92,-0.00,1.40,9.33,9.33,9.34
20.61,5.43,-3.93,5.44,-3.92,3.90,-0.00,1.44,9.33,9.34,9.36
20.81,5.48,-3.90,5.48,-3.90,3.88,-0.00,1.48,9.36,9.36,9.37
21.02,5.52,-3.87,5.52,-3.87,3.86,-0.00,1.53,9.38,9.38,9.39
21.23,5.57,-3.83,5.57,-3.83,3.84,-0.00,1.57,9.41,9.41,9.41
21.44,5.62,-3.80,5.62,-3.80,3.81,-0.00,1.62,9.43,9.43,9.42
21.66,5.66,-3.77,5.66,-3.77,3.78,-0.00,1.67,9.44,9.44,9.44
21.87,5.71,-3.74,5.71,-3.74,3.75,-0.00,1.72,9.45,9.45,9.45
22.09,5.75,-3.71,5.75,-3.71,3.71,-0.00,1.77,9.47,9.47,9.46
22.31,5.79,-3.69,5.79,-3.68,3.68,-0.00,1.82,9.48,9.48,9.48
22.54,5.84,-3.65,5.84,-3.65,3.65,-0.00,1.88,9.49,9.49,9.49
22.76,5.88,-3.62,5.88,-3.62,3.62,-0.00,1.93,9.50,9.50,9.50
22.99,5.92,-3.59,5.92,-3.59,3.59,-0.00,1.99,9.51,9.51,9.51
23.22,5.97,-3.56,5.97,-3.56,3.56,-0.00,2.05,9.52,9.52,9.52
23.45,6.01,-3.53,6.01,-3.53,3.53,-0.00,2.10,9.53,9.53,9.53
23.69,6.05,-3.50,6.04,-3.50,3.50,-0.00,2.17,9.55,9.55,9.54
23.92,6.08,-3.47,6.08,-3.47,3.47,-0.00,2.23,9.56,9.56,9.55
24.16,6.12,-3.45,6.12,-3.45,3.45,-0.00,2.29,9.56,9.56,9.56
24.40,6.15,-3.42,6.15,-3.42,3.42,-0.00,2.35,9.57,9.57,9.57
24.65,6.18,-3.40,6.18,-3.40,3.40,-0.00,2.42,9.58,9.58,9.58
24.89,6.21,-3.38,6.21,-3.38,3.38,-0.00,2.48,9.59,9.59,9.59
25.14,6.24,-3.36,6.24,-3.36,3.35,-0.00,2.55,9.59,9.59,9.60
25.39,6.27,-3.33,6.27,-3.33,3.33,-0.00,2.61,9.60,9.60,9.60
25.65,6.30,-3.31,6.30,-3.31,3.30,-0.00,2.68,9.60,9.61,9.61
25.91,6.33,-3.28,6.33,-3.28,3.28,-0.00,2.74,9.61,9.61,9.61
26.16,6.36,-3.25,6.36,-3.25,3.25,-0.00,2.81,9.62,9.62,9.61
26.43,6.40,-3.22,6.39,-3.22,3.23,-0.00,2.87,9.62,9.62,9.62
26.69,6.43,-3.20,6.43,-3.20,3.20,-0.00,2.94,9.63,9.63,9.62
26.96,6.45,-3.18,6.45,-3.18,3.18,-0.00,3.00,9.63,9.63,9.63
27.23,6.48,-3.15,6.48,-3.15,3.15,-0.00,3.06,9.63,9.63,9.64
27.50,6.51,-3.13,6.51,-3.13,3.12,-0.00,3.12,9.63,9.63,9.64
27.77,6.54,-3.10,6.54,-3.10,3.09,-0.00,3.18,9.63,9.63,9.64
28.05,6.58,-3.06,6.58,-3.06,3.06,-0.00,3.23,9.63,9.63,9.64
28.33,6.61,-3.02,6.61,-3.02,3.02,-0.00,3.28,9.63,9.63,9.63
28.62,6.64,-2.99,6.64,-2.99,2.99,-0.00,3.33,9.63,9.63,9.63
28.90,6.67,-2.95,6.67,-2.95,2.96,-0.00,3.37,9.63,9.63,9.62
29.19,6.71,-2.92,6.71,-2.92,2.93,-0.00,3.41,9.63,9.63,9.62
29.48,6.73,-2.89,6.73,-2.89,2.90,-0.00,3.45,9.63,9.63,9.63
29.78,6.76,-2.87,6.76,-2.87,2.87,-0.00,3.48,9.63,9.63,9.63
30.08,6.79,-2.85,6.79,-2.85,2.85,-0.00,3.50,9.63,9.63,9.64
30.38,6.81,-2.83,6.81,-2.83,2.82,-0.00,3.52,9.64,9.64,9.64
30.68,6.84,-2.81,6.84,-2.81,2.80,-0.00,3.54,9.64,9.64,9.64
30.99,6.86,-2.78,6.86,-2.78,2.78,-0.00,3.55,9.64,9.64,9.64
31.30,6.88,-2.76,6.88,-2.76,2.76,-0.00,3.55,9.64,9.64,9.64
31.61,6.90,-2.73,6.90,-2.73,2.73,-0.00,3.55,9.64,9.64,9.63
31.93,6.93,-2.71,6.93,-2.71,2.71,-0.00,3.54,9.63,9.63,9.63
32.24,6.95,-2.68,6.95,-2.68,2.68,-0.00,3.53,9.63,9.63,9.63
32.57,6.97,-2.66,6.97,-2.66,2.66,-0.01,3.51,9.62,9.62,9.62
32.89,6.99,-2.63,6.99,-2.63,2.63,-0.01,3.49,9.62,9.62,9.62
33.22,7.01,-2.61,7.01,-2.61,2.61,-0.01,3.46,9.61,9.61,9.61
33.55,7.02,-2.58,7.02,-2.58,2.58,-0.01,3.43,9.61,9.61,9.61
33.89,7.04,-2.56,7.04,-2.56,2.56,-0.01,3.39,9.60,9.60,9.60
34.23,7.06,-2.53,7.06,-2.53,2.53,-0.01,3.36,9.59,9.59,9.59
34.57,7.08,-2.50,7.08,-2.50,2.50,-0.01,3.31,9.59,9.59,9.58
34.92,7.10,-2.48,7.10,-2.48,2.48,-0.01,3.26,9.58,9.58,9.58
35.27,7.12,-2.45,7.12,-2.45,2.45,-0.01,3.21,9.57,9.57,9.57
35.62,7.13,-2.43,7.13,-2.43,2.43,-0.01,3.16,9.56,9.56,9.56
35.97,7.15,-2.40,7.15,-2.40,2.40,-0.01,3.11,9.55,9.55,9.55
36.33,7.17,-2.37,7.17,-2.37,2.38,-0.01,3.05,9.54,9.54,9.54
36.70,7.18,-2.35,7.18,-2.35,2.35,-0.01,2.99,9.53,9.53,9.53
37.06,7.20,-2.32,7.20,-2.32,2.33,-0.01,2.93,9.52,9.52,9.52
37.43,7.21,-2.30,7.21,-2.30,2.30,-0.01,2.87,9.51,9.51,9.51
37.81,7.22,-2.28,7.22,-2.28,2.27,-0.01,2.81,9.50,9.50,9.50
38.19,7.24,-2.25,7.24,-2.25,2.25,-0.01,2.75,9.49,9.49,9.49
38.57,7.25,-2.22,7.25,-2.22,2.22,-0.01,2.69,9.48,9.48,9.47
38.95,7.26,-2.20,7.26,-2.20,2.20,-0.01,2.63,9.46,9.46,9.46
39.34,7.27,-2.17,7.27,-2.17,2.18,-0.01,2.57,9.45,9.45,9.45
39.74,7.29,-2.15,7.29,-2.15,2.15,-0.01,2.51,9.44,9.44,9.43
40.14,7.30,-2.13,7.30,-2.13,2.13,-0.01,2.46,9.42,9.42,9.42
40.54,7.31,-2.11,7.31,-2.11,2.10,-0.01,2.40,9.41,9.41,9.41
40.94,7.32,-2.08,7.32,-2.08,2.08,-0.01,2.34,9.39,9.39,9.40
41.35,7.32,-2.05,7.32,-2.05,2.05,-0.01,2.29,9.38,9.38,9.38
41.76,7.33,-2.02,7.33,-2.02,2.03,-0.01,2.24,9.36,9.36,9.35
42.18,7.34,-2.00,7.34,-2.00,2.01,-0.01,2.18,9.35,9.35,9.34
42.60,7.35,-1.98,7.35,-1.98,1.98,-0.01,2.13,9.33,9.33,9.32
43.03,7.35,-1.96,7.35,-1.96,1.96,-0.01,2.08,9.31,9.31,9.32
43.46,7.36,-1.94,7.36,-1.94,1.93,-0.01,2.04,9.29,9.29,9.30
43.90,7.37,-1.91,7.37,-1.91,1.90,-0.01,1.99,9.27,9.27,9.28
44.33,7.38,-1.88,7.38,-1.88,1.88,-0.01,1.95,9.26,9.26,9.26
44.78,7.38,-1.85,7.38,-1.85,1.85,-0.01,1.90,9.24,9.24,9.23
45.23,7.39,-1.82,7.39,-1.82,1.83,-0.01,1.86,9.22,9.22,9.21
45.68,7.39,-1.80,7.39,-1.80,1.81,-0.01,1.82,9.20,9.20,9.19
46.13,7.39,-1.78,7.39,-1.78,1.78,-0.01,1.78,9.17,9.17,9.18
46.60,7.39,-1.76,7.40,-1.76,1.76,-0.01,1.74,9.15,9.15,9.16
47.06,7.40,-1.74,7.40,-1.74,1.74,-0.01,1.71,9.13,9.13,9.14
47.53,7.40,-1.72,7.40,-1.72,1.71,-0.01,1.68,9.11,9.11,9.11
48.01,7.40,-1.69,7.40,-1.69,1.69,-0.01,1.64,9.09,9.09,9.09
48.49,7.41,-1.66,7.41,-1.66,1.66,-0.01,1.61,9.07,9.07,9.07
48.97,7.41,-1.64,7.41,-1.64,1.64,-0.01,1.58,9.04,9.04,9.05
49.46,7.41,-1.61,7.41,-1.61,1.61,-0.01,1.55,9.02,9.02,9.02
49.96,7.41,-1.58,7.41,-1.58,1.59,-0.01,1.52,9.00,9.00,8.99
50.46,7.41,-1.56,7.41,-1.56,1.56,-0.01,1.50,8.97,8.97,8.97
50.96,7.41,-1.53,7.41,-1.54,1.54,-0.01,1.47,8.94,8.95,8.94
51.47,7.41,-1.52,7.41,-1.52,1.51,-0.01,1.45,8.92,8.92,8.92
51.99,7.41,-1.50,7.41,-1.49,1.49,-0.01,1.42,8.89,8.89,8.90
52.51,7.40,-1.47,7.40,-1.47,1.46,-0.01,1.40,8.87,8.87,8.87
53.03,7.40,-1.44,7.40,-1.44,1.44,-0.01,1.38,8.84,8.84,8.84
53.56,7.39,-1.41,7.39,-1.41,1.42,-0.01,1.36,8.81,8.81,8.80
54.10,7.39,-1.39,7.39,-1.39,1.40,-0.01,1.34,8.79,8.79,8.78
54.64,7.38,-1.38,7.38,-1.37,1.38,-0.02,1.32,8.76,8.76,8.76
55.18,7.38,-1.36,7.38,-1.36,1.36,-0.02,1.30,8.74,8.74,8.73
55.74,7.37,-1.34,7.37,-1.34,1.34,-0.02,1.28,8.71,8.71,8.71
56.29,7.37,-1.32,7.37,-1.33,1.31,-0.02,1.26,8.68,8.68,8.69
56.86,7.37,-1.31,7.37,-1.30,1.29,-0.02,1.24,8.66,8.66,8.68
57.42,7.36,-1.28,7.36,-1.27,1.27,-0.02,1.23,8.63,8.63,8.64
58.00,7.35,-1.23,7.35,-1.24,1.24,-0.02,1.21,8.60,8.60,8.59
58.58,7.35,-1.20,7.35,-1.21,1.22,-0.02,1.19,8.56,8.56,8.55
59.16,7.34,-1.18,7.34,-1.18,1.19,-0.02,1.17,8.53,8.53,8.52
59.76,7.33,-1.17,7.33,-1.16,1.17,-0.02,1.15,8.50,8.50,8.50
60.35,7.32,-1.15,7.32,-1.14,1.14,-0.02,1.14,8.46,8.46,8.47
60.96,7.31,-1.12,7.31,-1.12,1.12,-0.02,1.12,8.43,8.43,8.44
61.57,7.30,-1.10,7.30,-1.10,1.10,-0.02,1.10,8.40,8.40,8.40
62.18,7.29,-1.08,7.29,-1.07,1.07,-0.02,1.08,8.37,8.37,8.37
62.80,7.28,-1.05,7.28,-1.05,1.05,-0.02,1.06,8.33,8.33,8.33
63.43,7.28,-1.02,7.28,-1.02,1.03,-0.02,1.04,8.30,8.30,8.30
64.07,7.27,-1.00,7.27,-1.00,1.00,-0.02,1.02,8.27,8.27,8.27
64.71,7.26,-0.97,7.26,-0.97,0.98,-0.02,1.00,8.23,8.23,8.23
65.35,7.24,-0.95,7.24,-0.95,0.95,-0.02,0.98,8.20,8.20,8.19
66.01,7.23,-0.93,7.23,-0.93,0.93,-0.02,0.96,8.16,8.16,8.16
66.67,7.22,-0.90,7.22,-0.90,0.90,-0.02,0.94,8.12,8.12,8.12
67.33,7.21,-0.88,7.21,-0.88,0.88,-0.02,0.92,8.09,8.09,8.09
68.01,7.19,-0.86,7.19,-0.86,0.86,-0.03,0.89,8.05,8.05,8.05
68.69,7.18,-0.83,7.18,-0.84,0.84,-0.03,0.87,8.01,8.02,8.01
69.37,7.16,-0.81,7.16,-0.81,0.81,-0.03,0.85,7.98,7.98,7.98
70.07,7.15,-0.79,7.15,-0.79,0.79,-0.03,0.83,7.94,7.94,7.94
70.77,7.13,-0.77,7.13,-0.77,0.77,-0.03,0.81,7.90,7.90,7.90
71.48,7.11,-0.75,7.11,-0.75,0.75,-0.03,0.78,7.86,7.86,7.86
72.19,7.10,-0.73,7.10,-0.73,0.73,-0.03,0.76,7.83,7.83,7.82
72.91,7.08,-0.71,7.08,-0.71,0.71,-0.03,0.74,7.79,7.79,7.79
73.64,7.06,-0.69,7.06,-0.69,0.69,-0.03,0.71,7.75,7.75,7.75
74.38,7.04,-0.67,7.04,-0.67,0.67,-0.03,0.69,7.71,7.71,7.71
75.12,7.02,-0.65,7.02,-0.65,0.65,-0.03,0.67,7.67,7.67,7.67
75.87,7.00,-0.62,7.00,-0.63,0.63,-0.03,0.64,7.63,7.63,7.63
76.63,6.98,-0.60,6.98,-0.60,0.60,-0.03,0.62,7.59,7.59,7.58
77.40,6.96,-0.58,6.96,-0.58,0.58,-0.03,0.60,7.54,7.54,7.54
78.17,6.94,-0.56,6.94,-0.56,0.56,-0.04,0.58,7.50,7.50,7.50
78.95,6.92,-0.54,6.92,-0.54,0.54,-0.04,0.55,7.46,7.46,7.46
79.74,6.90,-0.52,6.90,-0.52,0.52,-0.04,0.53,7.42,7.42,7.42
80.54,6.87,-0.50,6.87,-0.50,0.50,-0.04,0.51,7.37,7.37,7.37
81.35,6.85,-0.48,6.85,-0.48,0.48,-0.04,0.49,7.33,7.33,7.33
82.16,6.83,-0.46,6.83,-0.46,0.46,-0.04,0.47,7.29,7.29,7.29
82.98,6.81,-0.44,6.81,-0.44,0.44,-0.04,0.45,7.24,7.24,7.24
83.81,6.78,-0.42,6.78,-0.42,0.42,-0.04,0.43,7.20,7.20,7.20
84.65,6.76,-0.40,6.76,-0.40,0.40,-0.04,0.41,7.16,7.16,7.16
85.50,6.73,-0.38,6.73,-0.38,0.38,-0.04,0.38,7.11,7.11,7.11
86.35,6.71,-0.36,6.71,-0.36,0.36,-0.05,0.36,7.07,7.07,7.07
87.22,6.68,-0.34,6.68,-0.34,0.34,-0.05,0.34,7.02,7.02,7.02
88.09,6.65,-0.32,6.65,-0.32,0.32,-0.05,0.32,6.98,6.98,6.98
88.97,6.62,-0.31,6.63,-0.30,0.31,-0.05,0.30,6.93,6.93,6.93
89.86,6.60,-0.29,6.60,-0.29,0.29,-0.05,0.29,6.88,6.88,6.88
90.76,6.57,-0.27,6.57,-0.27,0.27,-0.05,0.27,6.84,6.84,6.84
91.66,6.54,-0.25,6.54,-0.25,0.25,-0.05,0.25,6.79,6.79,6.79
92.58,6.51,-0.24,6.51,-0.24,0.24,-0.06,0.23,6.74,6.74,6.75
93.51,6.48,-0.22,6.48,-0.22,0.22,-0.06,0.21,6.70,6.70,6.70
94.44,6.45,-0.20,6.45,-0.20,0.20,-0.06,0.19,6.65,6.65,6.65
95.39,6.41,-0.19,6.41,-0.19,0.19,-0.06,0.17,6.60,6.60,6.60
96.34,6.38,-0.18,6.38,-0.17,0.17,-0.06,0.16,6.55,6.55,6.55
97.30,6.35,-0.16,6.35,-0.16,0.16,-0.06,0.14,6.51,6.51,6.51
98.28,6.31,-0.15,6.31,-0.15,0.15,-0.07,0.12,6.46,6.46,6.46
99.26,6.27,-0.14,6.27,-0.14,0.13,-0.07,0.10,6.41,6.41,6.41
100.25,6.24,-0.12,6.24,-0.12,0.12,-0.07,0.08,6.36,6.36,6.36
101.25,6.20,-0.11,6.20,-0.11,0.11,-0.07,0.07,6.31,6.31,6.31
102.27,6.16,-0.10,6.16,-0.10,0.10,-0.07,0.05,6.26,6.26,6.26
103.29,6.12,-0.09,6.12,-0.09,0.09,-0.08,0.03,6.21,6.21,6.21
104.32,6.08,-0.08,6.08,-0.08,0.08,-0.08,0.02,6.17,6.17,6.16
105.37,6.04,-0.08,6.04,-0.08,0.08,-0.08,-0.00,6.12,6.12,6.11
106.42,5.99,-0.07,5.99,-0.07,0.07,-0.08,-0.02,6.07,6.07,6.06
107.48,5.95,-0.07,5.95,-0.07,0.07,-0.09,-0.03,6.02,6.02,6.01
108.56,5.90,-0.06,5.90,-0.06,0.06,-0.09,-0.05,5.96,5.96,5.96
109.64,5.85,-0.06,5.85,-0.06,0.06,-0.09,-0.06,5.91,5.91,5.91
110.74,5.81,-0.05,5.81,-0.05,0.05,-0.10,-0.08,5.86,5.86,5.86
111.85,5.77,-0.04,5.77,-0.04,0.04,-0.10,-0.10,5.81,5.81,5.81
112.97,5.73,-0.03,5.73,-0.03,0.03,-0.10,-0.11,5.76,5.76,5.76
114.10,5.70,-0.02,5.70,-0.01,0.01,-0.10,-0.12,5.71,5.71,5.71
115.24,5.66,0.01,5.66,0.01,-0.01,-0.11,-0.14,5.65,5.65,5.66
116.39,5.64,0.03,5.64,0.03,-0.03,-0.11,-0.15,5.60,5.60,5.60
117.55,5.61,0.06,5.61,0.06,-0.06,-0.12,-0.17,5.55,5.55,5.55
118.73,5.59,0.09,5.59,0.09,-0.08,-0.12,-0.18,5.50,5.50,5.50
119.92,5.56,0.12,5.56,0.11,-0.11,-0.12,-0.19,5.45,5.45,5.45
121.12,5.54,0.14,5.54,0.14,-0.14,-0.13,-0.21,5.40,5.40,5.40
122.33,5.51,0.16,5.51,0.17,-0.16,-0.13,-0.22,5.35,5.35,5.35
123.55,5.48,0.19,5.48,0.19,-0.19,-0.14,-0.23,5.29,5.29,5.29
124.79,5.45,0.21,5.45,0.21,-0.22,-0.14,-0.24,5.24,5.24,5.24
126.03,5.42,0.24,5.42,0.24,-0.24,-0.15,-0.26,5.18,5.18,5.18
127.29,5.39,0.27,5.40,0.27,-0.27,-0.15,-0.27,5.12,5.12,5.13
128.57,5.37,0.30,5.37,0.30,-0.31,-0.16,-0.28,5.07,5.07,5.08
129.85,5.36,0.34,5.36,0.34,-0.34,-0.17,-0.29,5.02,5.02,5.02
131.15,5.34,0.37,5.34,0.37,-0.37,-0.17,-0.30,4.97,4.97,4.97
132.46,5.33,0.41,5.33,0.41,-0.41,-0.18,-0.31,4.92,4.92,4.91
133.79,5.31,0.45,5.31,0.45,-0.44,-0.19,-0.32,4.87,4.87,4.86
135.12,5.29,0.48,5.29,0.48,-0.48,-0.19,-0.33,4.82,4.82,4.81
136.48,5.27,0.51,5.27,0.51,-0.50,-0.20,-0.34,4.76,4.76,4.76
137.84,5.24,0.53,5.24,0.53,-0.53,-0.21,-0.35,4.71,4.71,4.71
139.22,5.20,0.55,5.20,0.55,-0.55,-0.22,-0.36,4.65,4.65,4.65
140.61,5.17,0.57,5.17,0.57,-0.57,-0.23,-0.38,4.60,4.60,4.60
142.02,5.13,0.58,5.13,0.58,-0.58,-0.24,-0.39,4.55,4.55,4.54
143.44,5.08,0.59,5.08,0.59,-0.59,-0.25,-0.40,4.49,4.49,4.49
144.87,5.04,0.60,5.04,0.60,-0.60,-0.26,-0.41,4.44,4.44,4.44
146.32,4.99,0.61,4.99,0.61,-0.61,-0.27,-0.42,4.39,4.39,4.39
147.78,4.95,0.61,4.95,0.61,-0.61,-0.28,-0.43,4.33,4.33,4.33
149.26,4.90,0.62,4.90,0.62,-0.62,-0.30,-0.44,4.28,4.28,4.28
150.75,4.85,0.62,4.85,0.62,-0.63,-0.31,-0.45,4.23,4.23,4.23
152.26,4.80,0.63,4.80,0.63,-0.63,-0.32,-0.46,4.17,4.17,4.17
153.78,4.76,0.64,4.76,0.64,-0.64,-0.34,-0.48,4.12,4.12,4.12
155.32,4.71,0.65,4.71,0.65,-0.64,-0.36,-0.49,4.06,4.06,4.06
156.88,4.66,0.65,4.66,0.65,-0.65,-0.37,-0.50,4.01,4.01,4.00
158.44,4.61,0.66,4.61,0.65,-0.65,-0.39,-0.52,3.96,3.96,3.95
160.03,4.56,0.65,4.56,0.66,-0.66,-0.41,-0.53,3.90,3.90,3.91
161.63,4.51,0.66,4.51,0.66,-0.66,-0.43,-0.55,3.85,3.85,3.85
163.24,4.46,0.67,4.46,0.67,-0.67,-0.45,-0.56,3.79,3.79,3.79
164.88,4.41,0.67,4.41,0.67,-0.67,-0.48,-0.58,3.74,3.74,3.74
166.53,4.36,0.67,4.36,0.67,-0.67,-0.50,-0.59,3.69,3.69,3.69
168.19,4.31,0.67,4.31,0.67,-0.68,-0.53,-0.61,3.63,3.63,3.64
169.87,4.26,0.68,4.26,0.68,-0.68,-0.55,-0.63,3.58,3.58,3.58
171.57,4.21,0.69,4.21,0.69,-0.68,-0.58,-0.65,3.53,3.53,3.52
173.29,4.16,0.69,4.16,0.69,-0.69,-0.61,-0.66,3.47,3.47,3.47
175.02,4.11,0.69,4.11,0.69,-0.69,-0.64,-0.68,3.42,3.42,3.42
176.77,4.06,0.69,4.06,0.69,-0.69,-0.67,-0.70,3.37,3.37,3.37
178.54,4.01,0.69,4.01,0.69,-0.70,-0.71,-0.72,3.31,3.31,3.31
180.32,3.96,0.70,3.96,0.70,-0.70,-0.74,-0.75,3.26,3.26,3.26
182.13,3.91,0.70,3.91,0.70,-0.70,-0.78,-0.77,3.21,3.21,3.21
183.95,3.86,0.71,3.86,0.71,-0.71,-0.81,-0.79,3.15,3.15,3.15
185.79,3.82,0.72,3.82,0.72,-0.72,-0.85,-0.81,3.10,3.10,3.10
187.65,3.77,0.73,3.77,0.73,-0.73,-0.88,-0.84,3.04,3.04,3.05
189.52,3.73,0.74,3.73,0.74,-0.74,-0.92,-0.86,2.99,2.99,2.99
191.42,3.69,0.75,3.69,0.75,-0.75,-0.95,-0.88,2.93,2.93,2.94
193.33,3.65,0.77,3.65,0.77,-0.77,-0.98,-0.91,2.88,2.88,2.88
195.27,3.61,0.78,3.61,0.78,-0.78,-1.01,-0.93,2.83,2.83,2.82
197.22,3.57,0.80,3.57,0.80,-0.79,-1.04,-0.96,2.77,2.77,2.77
199.19,3.52,0.81,3.52,0.81,-0.81,-1.07,-0.98,2.71,2.72,2.72
201.18,3.48,0.82,3.48,0.82,-0.82,-1.08,-1.01,2.66,2.66,2.66
203.19,3.44,0.83,3.44,0.83,-0.83,-1.10,-1.04,2.61,2.61,2.61
205.23,3.39,0.84,3.39,0.84,-0.84,-1.11,-1.06,2.55,2.55,2.55
207.28,3.35,0.84,3.35,0.85,-0.84,-1.12,-1.09,2.50,2.50,2.50
209.35,3.30,0.85,3.30,0.85,-0.84,-1.11,-1.11,2.45,2.45,2.45
211.44,3.25,0.85,3.25,0.84,-0.84,-1.11,-1.13,2.41,2.41,2.40
213.56,3.20,0.83,3.20,0.84,-0.83,-1.10,-1.16,2.37,2.37,2.37
215.69,3.15,0.82,3.15,0.82,-0.82,-1.08,-1.18,2.33,2.33,2.33
217.85,3.10,0.81,3.10,0.81,-0.80,-1.06,-1.20,2.30,2.30,2.29
220.03,3.05,0.78,3.05,0.78,-0.78,-1.03,-1.22,2.27,2.27,2.27
222.23,3.00,0.75,3.00,0.75,-0.76,-1.00,-1.24,2.25,2.25,2.25
224.45,2.95,0.72,2.95,0.73,-0.73,-0.97,-1.26,2.22,2.22,2.23
226.70,2.90,0.70,2.90,0.70,-0.71,-0.94,-1.27,2.19,2.19,2.20
228.96,2.85,0.69,2.85,0.69,-0.69,-0.90,-1.28,2.16,2.16,2.16
231.25,2.80,0.67,2.80,0.67,-0.67,-0.87,-1.29,2.13,2.13,2.13
233.57,2.75,0.65,2.75,0.65,-0.65,-0.83,-1.30,2.10,2.10,2.10
235.90,2.71,0.64,2.71,0.64,-0.64,-0.79,-1.31,2.07,2.06,2.07
238.26,2.66,0.63,2.66,0.63,-0.63,-0.75,-1.31,2.03,2.03,2.03
240.64,2.61,0.62,2.61,0.62,-0.62,-0.72,-1.31,1.99,1.99,1.99
243.05,2.56,0.61,2.56,0.61,-0.61,-0.68,-1.31,1.95,1.95,1.95
245.48,2.51,0.61,2.51,0.61,-0.61,-0.64,-1.30,1.91,1.91,1.90
247.93,2.46,0.60,2.46,0.60,-0.60,-0.61,-1.29,1.86,1.86,1.86
250.41,2.41,0.59,2.41,0.59,-0.59,-0.58,-1.28,1.82,1.82,1.82
252.92,2.36,0.59,2.36,0.59,-0.58,-0.54,-1.27,1.78,1.78,1.78
255.45,2.31,0.58,2.31,0.58,-0.57,-0.51,-1.25,1.74,1.74,1.74
258.00,2.26,0.57,2.26,0.57,-0.56,-0.48,-1.23,1.70,1.70,1.70
260.58,2.21,0.55,2.21,0.55,-0.55,-0.45,-1.20,1.66,1.66,1.66
263.19,2.16,0.54,2.16,0.54,-0.54,-0.43,-1.17,1.62,1.62,1.62
265.82,2.11,0.53,2.11,0.53,-0.53,-0.40,-1.14,1.58,1.58,1.59
268.48,2.06,0.52,2.06,0.52,-0.52,-0.37,-1.11,1.55,1.55,1.55
271.16,2.01,0.51,2.01,0.51,-0.50,-0.35,-1.07,1.51,1.51,1.51
273.87,1.97,0.49,1.97,0.49,-0.49,-0.33,-1.03,1.47,1.47,1.47
276.61,1.92,0.48,1.92,0.48,-0.48,-0.31,-0.99,1.44,1.44,1.44
279.38,1.87,0.46,1.87,0.46,-0.46,-0.28,-0.95,1.40,1.40,1.40
282.17,1.82,0.45,1.82,0.45,-0.45,-0.26,-0.90,1.37,1.37,1.37
284.99,1.77,0.43,1.77,0.43,-0.43,-0.24,-0.85,1.34,1.34,1.34
287.84,1.72,0.41,1.72,0.41,-0.41,-0.22,-0.80,1.30,1.30,1.31
290.72,1.67,0.39,1.67,0.39,-0.39,-0.21,-0.75,1.27,1.27,1.28
293.63,1.62,0.38,1.62,0.37,-0.38,-0.19,-0.70,1.24,1.24,1.24
296.57,1.57,0.36,1.57,0.36,-0.36,-0.17,-0.65,1.21,1.21,1.21
299.53,1.52,0.34,1.52,0.34,-0.34,-0.15,-0.59,1.18,1.18,1.18
302.53,1.47,0.32,1.47,0.32,-0.32,-0.14,-0.53,1.15,1.15,1.15
305.55,1.42,0.30,1.42,0.30,-0.30,-0.12,-0.48,1.12,1.12,1.12
308.61,1.37,0.28,1.37,0.28,-0.28,-0.10,-0.42,1.09,1.09,1.09
311.69,1.32,0.26,1.32,0.26,-0.26,-0.09,-0.36,1.07,1.07,1.07
314.81,1.28,0.23,1.28,0.23,-0.23,-0.07,-0.30,1.04,1.04,1.04
317.96,1.23,0.21,1.23,0.21,-0.21,-0.06,-0.24,1.02,1.02,1.02
321.14,1.18,0.19,1.18,0.19,-0.19,-0.04,-0.18,0.99,0.99,0.99
324.35,1.13,0.17,1.13,0.16,-0.16,-0.03,-0.11,0.97,0.97,0.97
327.59,1.09,0.14,1.09,0.14,-0.14,-0.01,-0.05,0.95,0.95,0.95
330.87,1.04,0.11,1.04,0.11,-0.12,0.01,0.01,0.93,0.93,0.93
334.18,1.00,0.09,1.00,0.09,-0.09,0.02,0.08,0.90,0.91,0.90
337.52,0.95,0.07,0.95,0.07,-0.06,0.04,0.14,0.88,0.88,0.88
340.90,0.90,0.04,0.90,0.04,-0.04,0.05,0.20,0.87,0.87,0.86
344.30,0.86,0.01,0.86,0.01,-0.01,0.07,0.27,0.85,0.85,0.85
347.75,0.81,-0.02,0.81,-0.02,0.02,0.09,0.33,0.83,0.83,0.83
351.23,0.77,-0.05,0.77,-0.04,0.04,0.10,0.40,0.81,0.81,0.81
354.74,0.72,-0.07,0.72,-0.07,0.07,0.12,0.46,0.80,0.80,0.80
358.28,0.68,-0.10,0.68,-0.10,0.10,0.14,0.53,0.79,0.79,0.79
361.87,0.64,-0.14,0.64,-0.14,0.14,0.16,0.60,0.77,0.77,0.77
365.49,0.59,-0.17,0.59,-0.17,0.17,0.18,0.66,0.76,0.76,0.76
369.14,0.55,-0.20,0.55,-0.20,0.20,0.20,0.73,0.75,0.75,0.75
372.83,0.51,-0.24,0.51,-0.24,0.24,0.22,0.80,0.74,0.74,0.74
376.56,0.46,-0.27,0.46,-0.27,0.28,0.24,0.86,0.74,0.74,0.74
380.33,0.42,-0.31,0.42,-0.31,0.31,0.26,0.93,0.73,0.73,0.73
384.13,0.38,-0.35,0.38,-0.35,0.35,0.28,1.00,0.73,0.73,0.73
387.97,0.33,-0.39,0.33,-0.39,0.39,0.30,1.07,0.72,0.72,0.72
391.85,0.29,-0.43,0.29,-0.43,0.43,0.33,1.14,0.72,0.72,0.72
395.77,0.25,-0.47,0.25,-0.47,0.47,0.35,1.20,0.72,0.72,0.72
399.73,0.21,-0.51,0.21,-0.51,0.51,0.38,1.27,0.72,0.72,0.72
403.72,0.17,-0.55,0.17,-0.55,0.55,0.41,1.34,0.72,0.72,0.72
407.76,0.13,-0.59,0.13,-0.59,0.59,0.44,1.40,0.72,0.72,0.72
411.84,0.09,-0.62,0.09,-0.63,0.63,0.47,1.47,0.72,0.72,0.71
415.96,0.05,-0.67,0.05,-0.67,0.67,0.50,1.54,0.72,0.72,0.72
420.12,0.01,-0.72,0.01,-0.72,0.72,0.53,1.60,0.73,0.73,0.73
424.32,-0.03,-0.76,-0.03,-0.76,0.76,0.56,1.66,0.73,0.73,0.74
428.56,-0.06,-0.81,-0.06,-0.81,0.80,0.60,1.72,0.74,0.74,0.74
432.85,-0.10,-0.85,-0.10,-0.85,0.85,0.64,1.78,0.75,0.75,0.75
437.18,-0.14,-0.90,-0.14,-0.90,0.90,0.68,1.84,0.76,0.76,0.76
441.55,-0.17,-0.95,-0.17,-0.94,0.95,0.72,1.90,0.77,0.77,0.77
445.96,-0.21,-0.99,-0.21,-0.99,0.99,0.76,1.95,0.78,0.78,0.78
450.42,-0.25,-1.04,-0.25,-1.04,1.04,0.81,2.00,0.80,0.80,0.80
454.93,-0.28,-1.09,-0.28,-1.09,1.09,0.86,2.05,0.81,0.81,0.81
459.48,-0.32,-1.14,-0.32,-1.14,1.15,0.91,2.09,0.83,0.83,0.83
464.07,-0.35,-1.20,-0.35,-1.20,1.20,0.96,2.13,0.85,0.85,0.85
468.71,-0.38,-1.25,-0.38,-1.25,1.25,1.02,2.17,0.87,0.87,0.87
473.40,-0.42,-1.31,-0.42,-1.31,1.31,1.07,2.20,0.89,0.89,0.89
478.13,-0.45,-1.36,-0.45,-1.36,1.36,1.13,2.23,0.92,0.92,0.92
482.91,-0.48,-1.42,-0.48,-1.42,1.42,1.20,2.26,0.94,0.94,0.94
487.74,-0.51,-1.48,-0.51,-1.48,1.48,1.26,2.27,0.96,0.96,0.97
492.62,-0.54,-1.53,-0.54,-1.53,1.53,1.33,2.29,0.99,0.99,0.99
497.55,-0.57,-1.59,-0.57,-1.59,1.59,1.41,2.30,1.02,1.02,1.02
502.52,-0.60,-1.64,-0.60,-1.64,1.64,1.48,2.30,1.04,1.04,1.04
507.55,-0.63,-1.70,-0.63,-1.70,1.70,1.56,2.30,1.07,1.07,1.07
512.62,-0.65,-1.75,-0.65,-1.75,1.75,1.64,2.30,1.10,1.10,1.10
517.75,-0.68,-1.81,-0.68,-1.81,1.81,1.73,2.29,1.13,1.13,1.13
522.93,-0.71,-1.86,-0.71,-1.86,1.86,1.81,2.28,1.16,1.16,1.16
528.16,-0.73,-1.92,-0.73,-1.92,1.91,1.90,2.26,1.19,1.19,1.19
533.44,-0.75,-1.97,-0.75,-1.97,1.97,1.99,2.24,1.21,1.21,1.22
538.77,-0.77,-2.02,-0.77,-2.02,2.02,2.08,2.21,1.24,1.24,1.25
544.16,-0.79,-2.07,-0.79,-2.07,2.06,2.18,2.18,1.27,1.27,1.28
