frequency,raw,error,smoothed,error_smoothed,equalization,parametric_eq,fixed_band_eq,equalized_raw,equalized_smoothed,target
20.00,7.62,-0.75,7.62,-0.75,0.74,0.05,0.30,8.36,8.36,8.37
20.20,7.65,-0.74,7.65,-0.74,0.74,0.05,0.31,8.39,8.39,8.39
20.40,7.67,-0.74,7.67,-0.74,0.74,0.06,0.32,8.41,8.41,8.41
20.61,7.69,-0.74,7.68,-0.74,0.75,0.06,0.33,8.43,8.43,8.42
20.81,7.70,-0.74,7.70,-0.74,0.75,0.06,0.34,8.45,8.45,8.44
21.02,7.71,-0.74,7.71,-0.74,0.75,0.07,0.35,8.46,8.46,8.45
21.23,7.72,-0.74,7.72,-0.74,0.75,0.07,0.36,8.47,8.47,8.47
21.44,7.74,-0.75,7.74,-0.75,0.75,0.08,0.37,8.48,8.48,8.48
21.66,7.75,-0.75,7.75,-0.75,0.75,0.08,0.38,8.50,8.50,8.50
21.87,7.77,-0.75,7.77,-0.75,0.75,0.09,0.39,8.51,8.51,8.51
22.09,7.78,-0.75,7.78,-0.75,0.74,0.10,0.41,8.53,8.53,8.53
22.31,7.80,-0.74,7.80,-0.74,0.73,0.11,0.42,8.54,8.54,8.54
22.54,7.83,-0.73,7.83,-0.73,0.72,0.11,0.43,8.55,8.55,8.56
22.76,7.85,-0.72,7.85,-0.72,0.71,0.12,0.44,8.56,8.56,8.57
22.99,7.88,-0.70,7.88,-0.70,0.70,0.13,0.46,8.57,8.57,8.58
23.22,7.91,-0.68,7.91,-0.68,0.68,0.15,0.47,8.59,8.59,8.59
23.45,7.93,-0.66,7.93,-0.66,0.67,0.16,0.48,8.60,8.60,8.60
23.69,7.95,-0.65,7.95,-0.65,0.66,0.18,0.50,8.62,8.62,8.61
23.92,7.97,-0.64,7.97,-0.65,0.66,0.19,0.51,8.63,8.63,8.62
24.16,7.98,-0.65,7.98,-0.65,0.66,0.21,0.53,8.64,8.64,8.63
24.40,7.98,-0.65,7.98,-0.65,0.66,0.24,0.54,8.64,8.64,8.64
24.65,7.98,-0.67,7.98,-0.67,0.66,0.26,0.56,8.64,8.64,8.65
24.89,7.98,-0.68,7.98,-0.68,0.66,0.29,0.57,8.64,8.64,8.66
25.14,7.98,-0.68,7.98,-0.68,0.67,0.33,0.59,8.65,8.65,8.66
25.39,7.98,-0.68,7.99,-0.68,0.67,0.37,0.60,8.65,8.65,8.67
25.65,7.99,-0.68,7.99,-0.68,0.67,0.42,0.62,8.67,8.67,8.67
25.91,8.00,-0.67,8.00,-0.67,0.68,0.47,0.63,8.68,8.68,8.67
26.16,8.01,-0.67,8.01,-0.67,0.69,0.53,0.65,8.70,8.70,8.68
26.43,8.00,-0.68,8.00,-0.68,0.71,0.59,0.66,8.71,8.71,8.68
26.69,7.98,-0.70,7.98,-0.70,0.73,0.66,0.67,8.71,8.71,8.69
26.96,7.96,-0.74,7.96,-0.74,0.75,0.72,0.69,8.71,8.70,8.70
27.23,7.93,-0.78,7.93,-0.78,0.77,0.79,0.70,8.69,8.69,8.70
27.50,7.90,-0.81,7.90,-0.81,0.78,0.84,0.72,8.68,8.68,8.71
27.77,7.88,-0.82,7.88,-0.82,0.79,0.87,0.73,8.68,8.68,8.71
28.05,7.88,-0.82,7.88,-0.82,0.79,0.89,0.74,8.67,8.68,8.70
28.33,7.90,-0.80,7.90,-0.80,0.79,0.88,0.75,8.69,8.69,8.70
28.62,7.92,-0.77,7.92,-0.77,0.78,0.85,0.76,8.70,8.70,8.69
28.90,7.95,-0.74,7.95,-0.74,0.76,0.80,0.77,8.71,8.71,8.69
29.19,7.97,-0.72,7.97,-0.72,0.75,0.74,0.78,8.71,8.71,8.69
29.48,7.98,-0.71,7.98,-0.71,0.72,0.67,0.79,8.71,8.70,8.69
29.78,7.99,-0.71,7.99,-0.71,0.70,0.60,0.80,8.69,8.69,8.70
30.08,8.00,-0.70,8.00,-0.70,0.68,0.54,0.81,8.67,8.68,8.70
30.38,8.01,-0.69,8.02,-0.69,0.66,0.48,0.81,8.67,8.67,8.71
30.68,8.05,-0.66,8.05,-0.66,0.64,0.43,0.81,8.69,8.69,8.71
30.99,8.08,-0.62,8.08,-0.62,0.63,0.38,0.82,8.71,8.71,8.70
31.30,8.11,-0.59,8.11,-0.59,0.62,0.34,0.82,8.74,8.73,8.70
31.61,8.12,-0.58,8.12,-0.58,0.63,0.30,0.82,8.75,8.74,8.70
31.93,8.10,-0.59,8.10,-0.60,0.64,0.27,0.82,8.74,8.73,8.69
32.24,8.06,-0.63,8.06,-0.63,0.65,0.24,0.82,8.71,8.71,8.69
32.57,8.01,-0.68,8.01,-0.67,0.66,0.22,0.81,8.67,8.67,8.69
32.89,7.97,-0.71,7.98,-0.71,0.67,0.20,0.81,8.64,8.64,8.68
33.22,7.96,-0.72,7.96,-0.72,0.67,0.18,0.80,8.63,8.63,8.68
33.55,7.97,-0.70,7.98,-0.70,0.66,0.16,0.80,8.63,8.63,8.67
33.89,8.01,-0.65,8.01,-0.65,0.64,0.15,0.79,8.65,8.65,8.66
34.23,8.06,-0.60,8.06,-0.60,0.61,0.14,0.78,8.67,8.66,8.66
34.57,8.10,-0.55,8.10,-0.55,0.57,0.13,0.77,8.67,8.67,8.65
34.92,8.13,-0.51,8.13,-0.52,0.54,0.12,0.77,8.67,8.67,8.64
35.27,8.14,-0.50,8.14,-0.50,0.52,0.11,0.76,8.65,8.66,8.63
35.62,8.13,-0.49,8.13,-0.49,0.51,0.10,0.74,8.64,8.64,8.63
35.97,8.11,-0.50,8.11,-0.50,0.52,0.09,0.73,8.63,8.63,8.62
36.33,8.08,-0.53,8.08,-0.53,0.54,0.09,0.72,8.62,8.62,8.61
36.70,8.04,-0.56,8.04,-0.56,0.57,0.08,0.71,8.61,8.61,8.60
37.06,7.99,-0.60,7.98,-0.60,0.60,0.08,0.70,8.59,8.59,8.59
37.43,7.93,-0.65,7.93,-0.64,0.63,0.07,0.69,8.56,8.56,8.58
37.81,7.89,-0.67,7.89,-0.68,0.65,0.07,0.67,8.54,8.54,8.57
38.19,7.85,-0.70,7.86,-0.69,0.66,0.06,0.66,8.51,8.52,8.55
38.57,7.85,-0.69,7.85,-0.69,0.66,0.06,0.65,8.51,8.51,8.54
38.95,7.87,-0.66,7.86,-0.66,0.64,0.06,0.64,8.51,8.51,8.52
39.34,7.89,-0.62,7.89,-0.62,0.62,0.05,0.63,8.51,8.51,8.51
39.74,7.92,-0.58,7.92,-0.58,0.59,0.05,0.61,8.51,8.51,8.50
40.14,7.94,-0.54,7.94,-0.55,0.56,0.05,0.60,8.50,8.50,8.49
40.54,7.96,-0.52,7.96,-0.52,0.53,0.05,0.59,8.50,8.49,8.48
40.94,7.96,-0.50,7.96,-0.50,0.52,0.04,0.58,8.48,8.48,8.46
41.35,7.95,-0.49,7.95,-0.49,0.51,0.04,0.57,8.46,8.46,8.44
41.76,7.93,-0.49,7.93,-0.49,0.50,0.04,0.56,8.43,8.43,8.42
42.18,7.90,-0.51,7.90,-0.51,0.51,0.04,0.55,8.41,8.41,8.40
42.60,7.87,-0.52,7.87,-0.52,0.51,0.04,0.54,8.38,8.38,8.39
43.03,7.84,-0.54,7.84,-0.54,0.52,0.04,0.53,8.36,8.36,8.38
43.46,7.82,-0.54,7.82,-0.54,0.52,0.03,0.52,8.34,8.34,8.37
43.90,7.81,-0.53,7.81,-0.53,0.52,0.03,0.51,8.33,8.33,8.35
44.33,7.80,-0.52,7.80,-0.52,0.52,0.03,0.51,8.32,8.32,8.32
44.78,7.79,-0.50,7.79,-0.51,0.52,0.03,0.50,8.31,8.31,8.30
45.23,7.78,-0.50,7.78,-0.50,0.51,0.03,0.49,8.29,8.29,8.27
45.68,7.76,-0.50,7.76,-0.50,0.51,0.03,0.48,8.27,8.26,8.26
46.13,7.74,-0.50,7.74,-0.50,0.50,0.03,0.48,8.24,8.24,8.24
46.60,7.72,-0.50,7.72,-0.50,0.49,0.03,0.47,8.21,8.21,8.22
47.06,7.70,-0.50,7.70,-0.50,0.49,0.03,0.47,8.19,8.19,8.20
47.53,7.69,-0.49,7.69,-0.49,0.48,0.03,0.46,8.17,8.17,8.18
48.01,7.68,-0.47,7.68,-0.47,0.47,0.02,0.45,8.15,8.15,8.16
48.49,7.68,-0.46,7.68,-0.46,0.45,0.02,0.45,8.13,8.13,8.13
48.97,7.67,-0.44,7.67,-0.44,0.44,0.02,0.45,8.11,8.11,8.11
49.46,7.66,-0.42,7.66,-0.42,0.43,0.02,0.44,8.09,8.09,8.08
49.96,7.65,-0.41,7.65,-0.41,0.42,0.02,0.44,8.07,8.06,8.06
50.46,7.63,-0.40,7.63,-0.40,0.41,0.02,0.43,8.04,8.04,8.03
50.96,7.60,-0.40,7.60,-0.41,0.41,0.02,0.43,8.01,8.01,8.01
51.47,7.57,-0.41,7.57,-0.41,0.41,0.02,0.43,7.99,7.99,7.99
51.99,7.54,-0.42,7.54,-0.42,0.42,0.02,0.43,7.96,7.96,7.97
52.51,7.51,-0.43,7.51,-0.43,0.43,0.02,0.42,7.93,7.93,7.94
53.03,7.47,-0.44,7.47,-0.44,0.44,0.02,0.42,7.91,7.90,7.90
53.56,7.42,-0.45,7.42,-0.45,0.45,0.02,0.42,7.88,7.88,7.87
54.10,7.38,-0.46,7.38,-0.46,0.47,0.02,0.42,7.85,7.85,7.84
54.64,7.34,-0.48,7.34,-0.48,0.48,0.02,0.42,7.82,7.82,7.82
55.18,7.31,-0.49,7.31,-0.49,0.49,0.02,0.41,7.80,7.80,7.80
55.74,7.28,-0.50,7.28,-0.50,0.50,0.02,0.41,7.77,7.77,7.78
56.29,7.25,-0.51,7.25,-0.51,0.50,0.02,0.41,7.74,7.74,7.76
56.86,7.22,-0.52,7.22,-0.51,0.49,0.02,0.41,7.72,7.72,7.74
57.42,7.20,-0.50,7.20,-0.50,0.49,0.02,0.41,7.69,7.69,7.70
58.00,7.18,-0.47,7.18,-0.48,0.48,0.02,0.41,7.66,7.66,7.65
58.58,7.16,-0.45,7.16,-0.45,0.47,0.02,0.40,7.63,7.63,7.62
59.16,7.15,-0.44,7.14,-0.44,0.45,0.02,0.40,7.60,7.60,7.58
59.76,7.12,-0.44,7.12,-0.44,0.44,0.02,0.40,7.57,7.57,7.56
60.35,7.10,-0.44,7.10,-0.43,0.43,0.02,0.40,7.53,7.53,7.53
60.96,7.07,-0.43,7.07,-0.43,0.43,0.02,0.40,7.50,7.50,7.50
61.57,7.04,-0.43,7.04,-0.43,0.43,0.02,0.39,7.46,7.46,7.47
62.18,7.00,-0.43,7.00,-0.43,0.43,0.02,0.39,7.43,7.43,7.43
62.80,6.97,-0.43,6.97,-0.43,0.43,0.02,0.39,7.40,7.40,7.40
63.43,6.93,-0.43,6.93,-0.43,0.44,0.02,0.39,7.37,7.37,7.36
64.07,6.89,-0.44,6.89,-0.44,0.44,0.02,0.38,7.33,7.33,7.33
64.71,6.85,-0.44,6.85,-0.44,0.44,0.02,0.38,7.29,7.29,7.29
65.35,6.81,-0.45,6.81,-0.45,0.45,0.02,0.38,7.26,7.26,7.26
66.01,6.77,-0.45,6.77,-0.45,0.45,0.02,0.37,7.22,7.22,7.22
66.67,6.73,-0.45,6.73,-0.45,0.45,0.02,0.37,7.19,7.19,7.19
67.33,6.70,-0.46,6.70,-0.45,0.45,0.02,0.37,7.15,7.15,7.15
68.01,6.66,-0.45,6.66,-0.45,0.45,0.02,0.36,7.11,7.12,7.12
68.69,6.63,-0.45,6.63,-0.45,0.45,0.02,0.36,7.08,7.08,7.08
69.37,6.60,-0.44,6.60,-0.45,0.44,0.02,0.35,7.04,7.04,7.04
70.07,6.56,-0.44,6.56,-0.44,0.44,0.02,0.35,7.00,7.00,7.01
70.77,6.53,-0.44,6.53,-0.44,0.43,0.02,0.35,6.96,6.96,6.97
71.48,6.50,-0.43,6.50,-0.43,0.43,0.02,0.34,6.93,6.93,6.93
72.19,6.47,-0.42,6.47,-0.42,0.42,0.02,0.34,6.89,6.89,6.89
72.91,6.44,-0.41,6.44,-0.41,0.42,0.02,0.33,6.86,6.86,6.85
73.64,6.40,-0.41,6.40,-0.41,0.42,0.02,0.33,6.82,6.82,6.81
74.38,6.36,-0.42,6.36,-0.42,0.42,0.02,0.32,6.78,6.78,6.77
75.12,6.31,-0.42,6.31,-0.42,0.42,0.02,0.32,6.74,6.74,6.74
75.87,6.26,-0.42,6.26,-0.43,0.43,0.02,0.32,6.69,6.69,6.69
76.63,6.22,-0.43,6.22,-0.43,0.43,0.02,0.31,6.65,6.65,6.65
77.40,6.17,-0.44,6.17,-0.44,0.43,0.02,0.31,6.60,6.60,6.61
78.17,6.13,-0.44,6.13,-0.44,0.43,0.02,0.31,6.56,6.56,6.57
78.95,6.09,-0.44,6.09,-0.44,0.43,0.02,0.30,6.52,6.52,6.52
79.74,6.06,-0.43,6.06,-0.43,0.42,0.02,0.30,6.48,6.48,6.48
80.54,6.02,-0.41,6.02,-0.41,0.42,0.02,0.30,6.44,6.44,6.44
81.35,5.99,-0.40,5.99,-0.40,0.41,0.02,0.29,6.40,6.40,6.39
82.16,5.96,-0.39,5.96,-0.39,0.40,0.02,0.29,6.36,6.36,6.35
82.98,5.92,-0.39,5.92,-0.39,0.39,0.02,0.29,6.31,6.31,6.31
83.81,5.88,-0.39,5.88,-0.39,0.39,0.02,0.29,6.27,6.27,6.26
84.65,5.83,-0.39,5.83,-0.39,0.38,0.02,0.28,6.22,6.22,6.22
85.50,5.79,-0.39,5.79,-0.39,0.38,0.02,0.28,6.17,6.17,6.18
86.35,5.75,-0.38,5.75,-0.38,0.38,0.02,0.28,6.13,6.13,6.13
87.22,5.71,-0.38,5.71,-0.38,0.38,0.02,0.28,6.08,6.08,6.09
88.09,5.66,-0.38,5.66,-0.38,0.38,0.02,0.28,6.04,6.04,6.04
88.97,5.62,-0.38,5.62,-0.38,0.38,0.02,0.28,6.00,6.00,5.99
89.86,5.57,-0.38,5.57,-0.38,0.38,0.02,0.28,5.95,5.95,5.95
90.76,5.52,-0.38,5.52,-0.38,0.38,0.02,0.28,5.90,5.90,5.90
91.66,5.47,-0.38,5.47,-0.38,0.38,0.02,0.28,5.86,5.86,5.86
92.58,5.42,-0.39,5.42,-0.39,0.39,0.02,0.28,5.81,5.81,5.81
93.51,5.37,-0.39,5.37,-0.39,0.39,0.02,0.27,5.76,5.76,5.76
94.44,5.32,-0.40,5.32,-0.40,0.40,0.02,0.28,5.71,5.71,5.71
95.39,5.26,-0.40,5.26,-0.40,0.41,0.02,0.28,5.67,5.67,5.67
96.34,5.21,-0.41,5.21,-0.41,0.41,0.02,0.28,5.62,5.62,5.62
97.30,5.15,-0.42,5.15,-0.42,0.42,0.02,0.28,5.57,5.57,5.57
98.28,5.09,-0.43,5.09,-0.43,0.43,0.02,0.28,5.52,5.52,5.52
99.26,5.03,-0.45,5.03,-0.45,0.45,0.02,0.28,5.48,5.48,5.47
100.25,4.97,-0.46,4.97,-0.46,0.46,0.02,0.28,5.43,5.43,5.43
101.25,4.91,-0.47,4.91,-0.47,0.47,0.03,0.28,5.38,5.38,5.38
102.27,4.84,-0.48,4.84,-0.48,0.49,0.03,0.28,5.33,5.33,5.33
103.29,4.78,-0.49,4.78,-0.49,0.50,0.03,0.28,5.28,5.28,5.28
104.32,4.73,-0.50,4.73,-0.50,0.50,0.03,0.28,5.23,5.23,5.23
105.37,4.67,-0.51,4.67,-0.51,0.51,0.03,0.28,5.18,5.18,5.18
106.42,4.62,-0.51,4.62,-0.51,0.50,0.03,0.29,5.12,5.12,5.13
107.48,4.58,-0.50,4.58,-0.50,0.49,0.03,0.29,5.07,5.07,5.08
108.56,4.55,-0.48,4.55,-0.48,0.47,0.03,0.29,5.02,5.02,5.03
109.64,4.53,-0.45,4.53,-0.44,0.43,0.03,0.29,4.97,4.97,4.98
110.74,4.52,-0.40,4.52,-0.40,0.39,0.03,0.29,4.92,4.92,4.92
111.85,4.52,-0.35,4.52,-0.35,0.35,0.03,0.29,4.87,4.87,4.87
112.97,4.53,-0.30,4.53,-0.30,0.30,0.03,0.29,4.83,4.83,4.83
114.10,4.53,-0.25,4.53,-0.25,0.25,0.03,0.29,4.78,4.78,4.78
115.24,4.52,-0.19,4.52,-0.20,0.21,0.03,0.29,4.73,4.73,4.72
116.39,4.51,-0.16,4.51,-0.16,0.17,0.03,0.29,4.68,4.68,4.67
117.55,4.49,-0.13,4.49,-0.13,0.14,0.03,0.29,4.63,4.62,4.62
118.73,4.46,-0.11,4.46,-0.11,0.11,0.03,0.29,4.57,4.57,4.56
119.92,4.42,-0.09,4.42,-0.09,0.10,0.03,0.29,4.52,4.52,4.51
121.12,4.38,-0.08,4.37,-0.09,0.09,0.04,0.29,4.47,4.46,4.46
122.33,4.32,-0.09,4.32,-0.09,0.09,0.04,0.28,4.41,4.41,4.41
123.55,4.26,-0.09,4.26,-0.09,0.09,0.04,0.28,4.35,4.35,4.35
124.79,4.20,-0.10,4.20,-0.10,0.09,0.04,0.28,4.30,4.30,4.30
126.03,4.14,-0.10,4.14,-0.10,0.10,0.04,0.28,4.24,4.24,4.25
127.29,4.08,-0.11,4.08,-0.11,0.11,0.04,0.27,4.19,4.19,4.19
128.57,4.02,-0.12,4.02,-0.12,0.11,0.04,0.27,4.14,4.14,4.14
129.85,3.96,-0.12,3.96,-0.12,0.12,0.04,0.26,4.08,4.08,4.09
131.15,3.91,-0.12,3.91,-0.12,0.13,0.04,0.26,4.03,4.03,4.03
132.46,3.85,-0.13,3.85,-0.13,0.13,0.04,0.25,3.98,3.98,3.98
133.79,3.79,-0.14,3.79,-0.14,0.14,0.04,0.25,3.93,3.93,3.93
135.12,3.73,-0.15,3.73,-0.14,0.14,0.04,0.24,3.88,3.88,3.88
136.48,3.67,-0.15,3.67,-0.15,0.15,0.04,0.23,3.82,3.82,3.82
137.84,3.61,-0.16,3.61,-0.16,0.16,0.05,0.23,3.77,3.77,3.77
139.22,3.55,-0.16,3.55,-0.16,0.16,0.05,0.22,3.72,3.72,3.72
140.61,3.50,-0.17,3.50,-0.17,0.17,0.05,0.21,3.66,3.66,3.66
142.02,3.44,-0.17,3.44,-0.17,0.17,0.05,0.20,3.61,3.61,3.61
143.44,3.38,-0.17,3.38,-0.17,0.18,0.05,0.20,3.56,3.56,3.56
144.87,3.33,-0.18,3.33,-0.18,0.18,0.05,0.19,3.51,3.51,3.50
146.32,3.27,-0.18,3.27,-0.18,0.18,0.05,0.18,3.45,3.45,3.45
147.78,3.22,-0.18,3.22,-0.18,0.18,0.05,0.17,3.40,3.40,3.40
149.26,3.17,-0.18,3.17,-0.18,0.18,0.05,0.16,3.34,3.34,3.35
150.75,3.12,-0.18,3.12,-0.18,0.17,0.06,0.15,3.29,3.29,3.29
152.26,3.07,-0.17,3.07,-0.17,0.17,0.06,0.14,3.23,3.23,3.24
153.78,3.02,-0.16,3.02,-0.16,0.16,0.06,0.13,3.18,3.18,3.18
155.32,2.98,-0.15,2.98,-0.15,0.15,0.06,0.12,3.13,3.13,3.13
156.88,2.93,-0.13,2.93,-0.14,0.14,0.06,0.11,3.07,3.07,3.07
158.44,2.89,-0.13,2.89,-0.13,0.13,0.06,0.10,3.02,3.02,3.02
160.03,2.85,-0.12,2.85,-0.12,0.12,0.06,0.09,2.97,2.97,2.97
161.63,2.80,-0.11,2.80,-0.11,0.12,0.06,0.08,2.91,2.91,2.91
163.24,2.75,-0.11,2.75,-0.11,0.11,0.07,0.07,2.86,2.86,2.86
164.88,2.70,-0.11,2.70,-0.11,0.11,0.07,0.06,2.81,2.81,2.81
166.53,2.65,-0.11,2.65,-0.11,0.11,0.07,0.05,2.75,2.75,2.75
168.19,2.59,-0.11,2.59,-0.11,0.11,0.07,0.04,2.70,2.70,2.70
169.87,2.53,-0.11,2.53,-0.11,0.11,0.07,0.03,2.64,2.64,2.65
171.57,2.48,-0.11,2.48,-0.11,0.11,0.07,0.02,2.59,2.59,2.59
173.29,2.42,-0.11,2.42,-0.11,0.12,0.08,0.01,2.54,2.54,2.53
175.02,2.36,-0.12,2.36,-0.12,0.12,0.08,0.00,2.48,2.48,2.48
176.77,2.30,-0.13,2.30,-0.13,0.13,0.08,-0.01,2.43,2.43,2.43
178.54,2.24,-0.13,2.24,-0.13,0.13,0.08,-0.02,2.38,2.38,2.38
180.32,2.19,-0.14,2.19,-0.14,0.14,0.08,-0.03,2.32,2.32,2.32
182.13,2.13,-0.15,2.13,-0.14,0.14,0.08,-0.04,2.27,2.27,2.27
183.95,2.07,-0.15,2.07,-0.15,0.15,0.09,-0.05,2.22,2.22,2.22
185.79,2.02,-0.15,2.02,-0.15,0.15,0.09,-0.06,2.17,2.17,2.16
187.65,1.96,-0.15,1.96,-0.15,0.15,0.09,-0.07,2.11,2.11,2.11
189.52,1.91,-0.15,1.91,-0.15,0.15,0.09,-0.08,2.06,2.06,2.06
191.42,1.85,-0.15,1.85,-0.15,0.15,0.10,-0.09,2.00,2.00,2.00
193.33,1.80,-0.14,1.80,-0.14,0.14,0.10,-0.10,1.95,1.95,1.95
195.27,1.76,-0.13,1.76,-0.13,0.13,0.10,-0.11,1.89,1.89,1.89
197.22,1.71,-0.12,1.71,-0.12,0.12,0.10,-0.12,1.83,1.83,1.83
199.19,1.67,-0.11,1.67,-0.10,0.10,0.10,-0.13,1.77,1.77,1.78
201.18,1.64,-0.09,1.64,-0.08,0.07,0.11,-0.14,1.72,1.72,1.73
203.19,1.61,-0.06,1.62,-0.06,0.05,0.11,-0.15,1.66,1.66,1.67
205.23,1.59,-0.03,1.59,-0.03,0.02,0.11,-0.16,1.61,1.61,1.62
207.28,1.57,0.01,1.57,0.01,-0.01,0.12,-0.17,1.57,1.57,1.57
209.35,1.55,0.04,1.55,0.04,-0.03,0.12,-0.18,1.52,1.52,1.51
211.44,1.53,0.06,1.53,0.06,-0.05,0.12,-0.19,1.48,1.48,1.47
213.56,1.50,0.07,1.50,0.07,-0.06,0.12,-0.19,1.44,1.44,1.43
215.69,1.47,0.07,1.47,0.08,-0.07,0.13,-0.20,1.40,1.40,1.40
217.85,1.43,0.08,1.43,0.07,-0.06,0.13,-0.21,1.37,1.37,1.36
220.03,1.39,0.05,1.39,0.05,-0.05,0.13,-0.21,1.34,1.34,1.33
222.23,1.34,0.03,1.34,0.03,-0.03,0.14,-0.22,1.31,1.31,1.31
224.45,1.29,0.00,1.29,0.00,-0.01,0.14,-0.22,1.28,1.28,1.29
226.70,1.25,-0.02,1.25,-0.02,0.01,0.14,-0.23,1.26,1.25,1.26
228.96,1.20,-0.03,1.20,-0.03,0.03,0.15,-0.23,1.23,1.23,1.23
231.25,1.15,-0.05,1.15,-0.05,0.05,0.15,-0.23,1.20,1.20,1.20
233.57,1.10,-0.07,1.10,-0.07,0.07,0.16,-0.23,1.16,1.16,1.17
235.90,1.05,-0.08,1.05,-0.08,0.08,0.16,-0.23,1.13,1.13,1.13
238.26,1.00,-0.10,1.00,-0.10,0.09,0.16,-0.22,1.09,1.09,1.09
240.64,0.95,-0.10,0.95,-0.10,0.10,0.17,-0.22,1.05,1.05,1.05
243.05,0.90,-0.11,0.90,-0.11,0.11,0.17,-0.22,1.01,1.01,1.01
245.48,0.85,-0.11,0.85,-0.11,0.12,0.18,-0.21,0.97,0.97,0.97
247.93,0.81,-0.12,0.81,-0.12,0.12,0.18,-0.20,0.93,0.93,0.93
250.41,0.76,-0.13,0.76,-0.13,0.13,0.19,-0.19,0.89,0.89,0.88
252.92,0.71,-0.13,0.71,-0.13,0.13,0.19,-0.18,0.84,0.84,0.84
255.45,0.66,-0.14,0.66,-0.14,0.14,0.20,-0.16,0.80,0.80,0.80
258.00,0.61,-0.15,0.62,-0.15,0.15,0.20,-0.15,0.76,0.76,0.76
260.58,0.57,-0.15,0.57,-0.16,0.15,0.21,-0.13,0.72,0.72,0.72
263.19,0.52,-0.16,0.52,-0.16,0.16,0.22,-0.12,0.69,0.69,0.69
265.82,0.48,-0.17,0.48,-0.17,0.17,0.22,-0.10,0.65,0.65,0.65
268.48,0.44,-0.18,0.44,-0.17,0.17,0.23,-0.08,0.61,0.61,0.61
271.16,0.40,-0.18,0.39,-0.18,0.18,0.23,-0.06,0.58,0.58,0.57
273.87,0.35,-0.18,0.35,-0.18,0.19,0.24,-0.03,0.54,0.54,0.54
276.61,0.31,-0.19,0.31,-0.19,0.20,0.25,-0.01,0.50,0.50,0.50
279.38,0.27,-0.20,0.27,-0.20,0.20,0.26,0.02,0.47,0.47,0.47
282.17,0.22,-0.21,0.22,-0.21,0.21,0.26,0.05,0.44,0.44,0.43
284.99,0.18,-0.22,0.18,-0.22,0.22,0.27,0.07,0.40,0.40,0.40
287.84,0.14,-0.24,0.14,-0.23,0.23,0.28,0.10,0.37,0.37,0.37
290.72,0.09,-0.25,0.09,-0.24,0.24,0.29,0.13,0.34,0.34,0.34
293.63,0.05,-0.25,0.05,-0.25,0.25,0.30,0.16,0.30,0.30,0.31
296.57,0.01,-0.26,0.01,-0.26,0.26,0.30,0.20,0.27,0.27,0.27
299.53,-0.03,-0.27,-0.03,-0.27,0.27,0.31,0.23,0.24,0.24,0.24
302.53,-0.07,-0.28,-0.07,-0.28,0.28,0.32,0.26,0.21,0.21,0.21
305.55,-0.11,-0.29,-0.11,-0.29,0.29,0.33,0.30,0.19,0.18,0.18
308.61,-0.14,-0.30,-0.14,-0.30,0.30,0.34,0.33,0.16,0.16,0.16
311.69,-0.18,-0.31,-0.18,-0.31,0.31,0.36,0.37,0.13,0.13,0.13
314.81,-0.22,-0.32,-0.22,-0.32,0.33,0.37,0.41,0.11,0.11,0.11
317.96,-0.26,-0.34,-0.26,-0.34,0.34,0.38,0.45,0.08,0.08,0.08
321.14,-0.29,-0.35,-0.29,-0.35,0.35,0.39,0.49,0.06,0.06,0.06
324.35,-0.33,-0.36,-0.33,-0.37,0.37,0.40,0.52,0.03,0.03,0.03
327.59,-0.37,-0.38,-0.37,-0.38,0.38,0.42,0.57,0.01,0.01,0.02
330.87,-0.41,-0.40,-0.41,-0.40,0.40,0.43,0.61,-0.01,-0.01,-0.00
334.18,-0.44,-0.41,-0.44,-0.41,0.41,0.45,0.65,-0.03,-0.03,-0.03
337.52,-0.48,-0.42,-0.48,-0.43,0.43,0.46,0.69,-0.05,-0.05,-0.05
340.90,-0.51,-0.44,-0.51,-0.44,0.44,0.48,0.73,-0.07,-0.07,-0.07
344.30,-0.55,-0.46,-0.55,-0.46,0.46,0.49,0.78,-0.09,-0.09,-0.09
347.75,-0.58,-0.47,-0.58,-0.47,0.47,0.51,0.82,-0.11,-0.11,-0.11
351.23,-0.61,-0.49,-0.61,-0.49,0.49,0.53,0.87,-0.12,-0.12,-0.12
354.74,-0.65,-0.51,-0.65,-0.51,0.51,0.55,0.92,-0.14,-0.14,-0.14
358.28,-0.68,-0.53,-0.68,-0.53,0.53,0.57,0.96,-0.15,-0.15,-0.15
361.87,-0.71,-0.55,-0.71,-0.55,0.55,0.59,1.01,-0.16,-0.16,-0.16
365.49,-0.74,-0.57,-0.74,-0.57,0.57,0.61,1.06,-0.17,-0.17,-0.17
369.14,-0.77,-0.59,-0.77,-0.59,0.59,0.63,1.11,-0.18,-0.18,-0.18
372.83,-0.81,-0.61,-0.81,-0.61,0.61,0.66,1.16,-0.19,-0.19,-0.19
376.56,-0.84,-0.64,-0.84,-0.64,0.64,0.68,1.21,-0.20,-0.20,-0.20
380.33,-0.87,-0.66,-0.87,-0.66,0.66,0.71,1.26,-0.20,-0.20,-0.20
384.13,-0.90,-0.69,-0.90,-0.69,0.69,0.74,1.31,-0.21,-0.21,-0.21
387.97,-0.93,-0.71,-0.93,-0.71,0.71,0.76,1.36,-0.21,-0.21,-0.21
391.85,-0.96,-0.74,-0.96,-0.74,0.74,0.79,1.41,-0.22,-0.22,-0.22
395.77,-0.98,-0.77,-0.98,-0.77,0.77,0.82,1.47,-0.22,-0.22,-0.22
399.73,-1.01,-0.80,-1.01,-0.80,0.79,0.85,1.52,-0.22,-0.22,-0.22
403.72,-1.04,-0.82,-1.04,-0.82,0.82,0.89,1.57,-0.22,-0.22,-0.22
407.76,-1.07,-0.85,-1.07,-0.85,0.85,0.92,1.62,-0.22,-0.22,-0.22
411.84,-1.10,-0.88,-1.10,-0.88,0.88,0.95,1.68,-0.22,-0.22,-0.22
415.96,-1.12,-0.91,-1.12,-0.91,0.91,0.99,1.73,-0.21,-0.21,-0.21
420.12,-1.15,-0.94,-1.15,-0.94,0.94,1.02,1.78,-0.21,-0.21,-0.21
424.32,-1.17,-0.97,-1.17,-0.97,0.97,1.06,1.83,-0.20,-0.20,-0.20
428.56,-1.20,-1.00,-1.20,-1.01,1.00,1.09,1.87,-0.19,-0.19,-0.19
432.85,-1.22,-1.04,-1.22,-1.04,1.04,1.13,1.92,-0.19,-0.19,-0.19
437.18,-1.25,-1.07,-1.25,-1.07,1.07,1.17,1.97,-0.18,-0.18,-0.18
441.55,-1.27,-1.11,-1.27,-1.11,1.11,1.20,2.01,-0.16,-0.16,-0.16
445.96,-1.29,-1.14,-1.29,-1.14,1.14,1.24,2.05,-0.15,-0.15,-0.15
450.42,-1.32,-1.18,-1.32,-1.18,1.18,1.27,2.09,-0.14,-0.14,-0.14
454.93,-1.34,-1.22,-1.34,-1.22,1.22,1.31,2.13,-0.12,-0.12,-0.12
459.48,-1.36,-1.26,-1.36,-1.26,1.26,1.34,2.16,-0.11,-0.11,-0.11
464.07,-1.38,-1.30,-1.38,-1.30,1.30,1.37,2.19,-0.09,-0.09,-0.09
468.71,-1.40,-1.34,-1.40,-1.34,1.34,1.41,2.21,-0.07,-0.07,-0.07
473.40,-1.42,-1.38,-1.42,-1.38,1.38,1.44,2.24,-0.04,-0.04,-0.04
478.13,-1.44,-1.42,-1.44,-1.42,1.42,1.47,2.25,-0.02,-0.02,-0.02
482.91,-1.46,-1.46,-1.46,-1.46,1.46,1.51,2.27,0.00,0.00,0.00
487.74,-1.48,-1.51,-1.48,-1.51,1.51,1.54,2.28,0.03,0.03,0.03
492.62,-1.50,-1.55,-1.50,-1.55,1.55,1.58,2.28,0.05,0.05,0.06
497.55,-1.51,-1.59,-1.51,-1.60,1.59,1.62,2.28,0.08,0.08,0.08
502.52,-1.53,-1.64,-1.53,-1.64,1.64,1.65,2.28,0.11,0.11,0.11
507.55,-1.55,-1.68,-1.55,-1.68,1.68,1.69,2.27,0.13,0.13,0.14
512.62,-1.56,-1.73,-1.56,-1.73,1.73,1.73,2.26,0.16,0.16,0.16
517.75,-1.58,-1.77,-1.58,-1.77,1.77,1.77,2.24,0.19,0.19,0.19
522.93,-1.59,-1.81,-1.59,-1.81,1.81,1.82,2.22,0.22,0.22,0.22
528.16,-1.61,-1.86,-1.61,-1.86,1.86,1.86,2.19,0.25,0.25,0.25
533.44,-1.62,-1.90,-1.62,-1.90,1.90,1.91,2.16,0.28,0.28,0.28
538.77,-1.63,-1.95,-1.63,-1.95,1.95,1.95,2.12,0.31,0.31,0.31
544.16,-1.65,-1.99,-1.65,-1.99,1.99,2.00,2.09,0.35,0.35,0.35
549.60,-1.66,-2.04,-1.66,-2.04,2.04,2.05,2.04,0.38,0.38,0.38
