frequency,raw,error,smoothed,error_smoothed,equalization,parametric_eq,fixed_band_eq,equalized_raw,equalized_smoothed,target
20.00,9.51,2.43,9.51,2.43,-2.38,-2.42,-1.11,7.13,7.13,7.07
20.20,9.48,2.54,9.48,2.54,-2.52,-2.53,-1.15,6.96,6.96,6.94
20.40,9.45,2.64,9.45,2.64,-2.65,-2.63,-1.18,6.80,6.80,6.81
20.61,9.42,2.74,9.42,2.74,-2.77,-2.75,-1.21,6.65,6.65,6.68
20.81,9.39,2.84,9.39,2.84,-2.89,-2.86,-1.25,6.50,6.50,6.54
21.02,9.36,2.95,9.36,2.95,-2.99,-2.98,-1.29,6.36,6.36,6.41
21.23,9.33,3.05,9.33,3.06,-3.09,-3.10,-1.33,6.23,6.23,6.27
21.44,9.30,3.17,9.30,3.17,-3.18,-3.21,-1.37,6.12,6.12,6.13
21.66,9.28,3.28,9.28,3.28,-3.29,-3.32,-1.41,5.99,5.99,6.00
21.87,9.26,3.38,9.26,3.38,-3.38,-3.40,-1.45,5.88,5.88,5.87
22.09,9.24,3.47,9.24,3.47,-3.45,-3.48,-1.49,5.79,5.79,5.77
22.31,9.22,3.53,9.22,3.53,-3.50,-3.53,-1.54,5.72,5.72,5.69
22.54,9.19,3.56,9.19,3.56,-3.52,-3.58,-1.58,5.67,5.67,5.63
22.76,9.17,3.56,9.17,3.55,-3.52,-3.59,-1.63,5.65,5.65,5.61
22.99,9.14,3.52,9.14,3.52,-3.50,-3.61,-1.68,5.64,5.64,5.62
23.22,9.12,3.47,9.12,3.47,-3.47,-3.60,-1.72,5.65,5.65,5.65
23.45,9.09,3.40,9.09,3.41,-3.42,-3.59,-1.77,5.67,5.67,5.69
23.69,9.08,3.35,9.08,3.35,-3.38,-3.56,-1.82,5.69,5.69,5.73
23.92,9.06,3.31,9.06,3.31,-3.35,-3.52,-1.88,5.71,5.72,5.76
24.16,9.05,3.28,9.05,3.28,-3.32,-3.46,-1.93,5.73,5.73,5.77
24.40,9.05,3.28,9.05,3.28,-3.30,-3.40,-1.98,5.74,5.74,5.77
24.65,9.04,3.28,9.04,3.28,-3.29,-3.32,-2.04,5.75,5.75,5.76
24.89,9.03,3.29,9.03,3.29,-3.28,-3.24,-2.09,5.75,5.75,5.74
25.14,9.02,3.29,9.02,3.29,-3.27,-3.16,-2.15,5.75,5.75,5.73
25.39,9.00,3.27,9.00,3.27,-3.24,-3.07,-2.20,5.76,5.76,5.72
25.65,8.97,3.22,8.97,3.22,-3.20,-2.99,-2.26,5.78,5.78,5.75
25.91,8.94,3.16,8.94,3.16,-3.14,-2.91,-2.31,5.81,5.81,5.79
26.16,8.91,3.07,8.91,3.07,-3.06,-2.84,-2.37,5.85,5.85,5.84
26.43,8.89,2.97,8.89,2.97,-2.97,-2.77,-2.42,5.92,5.92,5.92
26.69,8.86,2.86,8.86,2.86,-2.87,-2.71,-2.47,5.99,5.99,6.00
26.96,8.84,2.75,8.85,2.75,-2.76,-2.65,-2.53,6.08,6.08,6.09
27.23,8.83,2.65,8.83,2.65,-2.66,-2.60,-2.58,6.17,6.17,6.18
27.50,8.81,2.55,8.81,2.55,-2.56,-2.55,-2.63,6.25,6.25,6.25
27.77,8.78,2.46,8.78,2.46,-2.46,-2.51,-2.68,6.32,6.32,6.32
28.05,8.75,2.37,8.75,2.37,-2.37,-2.47,-2.72,6.38,6.38,6.38
28.33,8.71,2.29,8.71,2.29,-2.29,-2.43,-2.76,6.42,6.42,6.42
28.62,8.67,2.21,8.67,2.21,-2.22,-2.40,-2.81,6.45,6.45,6.45
28.90,8.62,2.15,8.63,2.15,-2.16,-2.37,-2.84,6.47,6.47,6.48
29.19,8.59,2.10,8.59,2.10,-2.11,-2.35,-2.88,6.48,6.48,6.49
29.48,8.56,2.06,8.56,2.06,-2.07,-2.33,-2.91,6.49,6.49,6.50
29.78,8.53,2.03,8.53,2.03,-2.03,-2.31,-2.94,6.49,6.49,6.49
30.08,8.49,2.01,8.49,2.01,-2.01,-2.29,-2.96,6.48,6.48,6.48
30.38,8.46,2.00,8.46,2.00,-2.00,-2.27,-2.98,6.46,6.46,6.46
30.68,8.42,2.00,8.42,2.00,-1.99,-2.26,-2.99,6.43,6.43,6.42
30.99,8.37,1.99,8.37,1.99,-1.99,-2.24,-3.01,6.38,6.38,6.38
31.30,8.33,1.99,8.33,1.99,-1.99,-2.23,-3.01,6.33,6.33,6.33
31.61,8.28,2.00,8.28,2.00,-2.00,-2.22,-3.01,6.28,6.28,6.28
31.93,8.24,2.02,8.24,2.02,-2.02,-2.21,-3.01,6.22,6.22,6.22
32.24,8.20,2.04,8.20,2.04,-2.04,-2.20,-3.01,6.16,6.16,6.16
32.57,8.17,2.06,8.17,2.06,-2.07,-2.19,-2.99,6.10,6.10,6.10
32.89,8.13,2.09,8.13,2.09,-2.10,-2.18,-2.98,6.03,6.03,6.04
33.22,8.11,2.13,8.11,2.13,-2.13,-2.18,-2.96,5.97,5.97,5.98
33.55,8.08,2.17,8.08,2.17,-2.17,-2.17,-2.94,5.91,5.91,5.92
33.89,8.06,2.20,8.06,2.20,-2.20,-2.16,-2.91,5.86,5.86,5.85
34.23,8.03,2.23,8.03,2.23,-2.22,-2.15,-2.88,5.81,5.81,5.80
34.57,8.00,2.26,8.00,2.25,-2.24,-2.15,-2.85,5.76,5.76,5.75
34.92,7.97,2.27,7.97,2.26,-2.25,-2.14,-2.82,5.72,5.72,5.71
35.27,7.94,2.26,7.94,2.26,-2.25,-2.14,-2.78,5.69,5.69,5.68
35.62,7.90,2.24,7.90,2.24,-2.24,-2.13,-2.75,5.67,5.67,5.66
35.97,7.87,2.22,7.87,2.22,-2.22,-2.12,-2.71,5.65,5.65,5.65
36.33,7.84,2.19,7.85,2.19,-2.20,-2.12,-2.66,5.65,5.65,5.66
36.70,7.82,2.16,7.82,2.16,-2.17,-2.11,-2.62,5.66,5.66,5.66
37.06,7.80,2.13,7.80,2.13,-2.14,-2.11,-2.58,5.67,5.67,5.67
37.43,7.78,2.11,7.77,2.10,-2.10,-2.10,-2.54,5.67,5.67,5.67
37.81,7.74,2.07,7.74,2.07,-2.07,-2.09,-2.49,5.67,5.67,5.67
38.19,7.70,2.04,7.70,2.04,-2.03,-2.09,-2.45,5.66,5.66,5.66
38.57,7.65,2.00,7.65,2.00,-2.00,-2.08,-2.41,5.65,5.65,5.65
38.95,7.60,1.96,7.60,1.96,-1.96,-2.07,-2.36,5.64,5.64,5.64
39.34,7.55,1.93,7.55,1.93,-1.93,-2.07,-2.32,5.62,5.62,5.62
39.74,7.50,1.90,7.50,1.90,-1.90,-2.06,-2.28,5.60,5.60,5.60
40.14,7.46,1.88,7.46,1.88,-1.88,-2.05,-2.24,5.57,5.57,5.58
40.54,7.41,1.86,7.41,1.86,-1.87,-2.04,-2.20,5.54,5.54,5.55
40.94,7.37,1.86,7.37,1.86,-1.87,-2.04,-2.16,5.50,5.50,5.52
41.35,7.34,1.86,7.34,1.86,-1.87,-2.03,-2.12,5.46,5.46,5.48
41.76,7.31,1.88,7.31,1.88,-1.89,-2.02,-2.09,5.42,5.42,5.43
42.18,7.28,1.90,7.28,1.90,-1.90,-2.01,-2.05,5.38,5.38,5.38
42.60,7.26,1.93,7.25,1.93,-1.93,-2.00,-2.02,5.33,5.33,5.33
43.03,7.23,1.95,7.23,1.95,-1.95,-1.99,-1.99,5.28,5.28,5.28
43.46,7.20,1.97,7.20,1.97,-1.96,-1.98,-1.96,5.24,5.24,5.23
43.90,7.17,1.98,7.17,1.98,-1.97,-1.97,-1.93,5.20,5.20,5.19
44.33,7.14,1.99,7.13,1.99,-1.97,-1.96,-1.90,5.17,5.17,5.15
44.78,7.09,1.98,7.09,1.98,-1.96,-1.95,-1.87,5.13,5.13,5.12
45.23,7.05,1.95,7.05,1.95,-1.94,-1.94,-1.85,5.10,5.10,5.09
45.68,7.00,1.92,7.00,1.92,-1.92,-1.93,-1.83,5.07,5.07,5.08
46.13,6.95,1.88,6.95,1.88,-1.90,-1.92,-1.80,5.05,5.05,5.07
46.60,6.91,1.85,6.91,1.86,-1.87,-1.91,-1.78,5.03,5.04,5.05
47.06,6.87,1.83,6.87,1.83,-1.84,-1.90,-1.76,5.03,5.03,5.04
47.53,6.84,1.82,6.84,1.82,-1.81,-1.88,-1.75,5.02,5.02,5.02
48.01,6.80,1.80,6.80,1.80,-1.78,-1.87,-1.73,5.01,5.01,5.00
48.49,6.75,1.77,6.75,1.77,-1.76,-1.86,-1.72,5.00,4.99,4.98
48.97,6.70,1.74,6.70,1.74,-1.73,-1.85,-1.70,4.97,4.97,4.96
49.46,6.65,1.70,6.65,1.70,-1.71,-1.84,-1.69,4.94,4.94,4.94
49.96,6.60,1.67,6.60,1.67,-1.69,-1.82,-1.68,4.91,4.91,4.93
50.46,6.56,1.65,6.56,1.65,-1.68,-1.81,-1.67,4.89,4.89,4.91
50.96,6.53,1.64,6.53,1.65,-1.67,-1.80,-1.66,4.86,4.86,4.88
51.47,6.50,1.65,6.50,1.65,-1.66,-1.78,-1.65,4.83,4.83,4.85
51.99,6.47,1.66,6.46,1.66,-1.66,-1.77,-1.64,4.80,4.80,4.80
52.51,6.43,1.67,6.43,1.67,-1.66,-1.75,-1.64,4.77,4.77,4.75
53.03,6.38,1.68,6.38,1.67,-1.66,-1.74,-1.63,4.73,4.73,4.71
53.56,6.33,1.66,6.33,1.66,-1.64,-1.73,-1.62,4.69,4.69,4.67
54.10,6.28,1.64,6.28,1.64,-1.62,-1.71,-1.62,4.66,4.66,4.64
54.64,6.23,1.61,6.23,1.61,-1.59,-1.70,-1.61,4.63,4.63,4.62
55.18,6.17,1.57,6.17,1.57,-1.56,-1.68,-1.61,4.61,4.61,4.61
55.74,6.12,1.52,6.12,1.52,-1.52,-1.67,-1.60,4.60,4.60,4.60
56.29,6.06,1.47,6.06,1.47,-1.49,-1.65,-1.60,4.57,4.57,4.59
56.86,6.00,1.43,6.00,1.44,-1.46,-1.64,-1.59,4.55,4.55,4.57
57.42,5.95,1.41,5.95,1.41,-1.43,-1.62,-1.59,4.52,4.52,4.54
58.00,5.90,1.40,5.91,1.40,-1.41,-1.61,-1.58,4.49,4.50,4.51
58.58,5.87,1.40,5.87,1.40,-1.40,-1.59,-1.58,4.47,4.47,4.47
59.16,5.84,1.40,5.84,1.40,-1.39,-1.58,-1.57,4.45,4.45,4.44
59.76,5.82,1.41,5.82,1.41,-1.40,-1.56,-1.56,4.42,4.42,4.41
60.35,5.79,1.41,5.79,1.40,-1.40,-1.55,-1.55,4.39,4.39,4.39
60.96,5.77,1.40,5.77,1.41,-1.41,-1.53,-1.55,4.35,4.35,4.36
61.57,5.74,1.41,5.74,1.41,-1.42,-1.52,-1.54,4.32,4.32,4.33
62.18,5.71,1.42,5.71,1.42,-1.43,-1.50,-1.53,4.28,4.28,4.29
62.80,5.68,1.44,5.68,1.44,-1.44,-1.49,-1.51,4.24,4.24,4.24
63.43,5.65,1.45,5.65,1.45,-1.44,-1.47,-1.50,4.20,4.20,4.19
64.07,5.61,1.46,5.61,1.46,-1.45,-1.46,-1.49,4.16,4.16,4.15
64.71,5.57,1.46,5.58,1.46,-1.45,-1.44,-1.47,4.12,4.12,4.12
65.35,5.54,1.45,5.54,1.45,-1.45,-1.42,-1.46,4.08,4.09,4.08
66.01,5.50,1.44,5.50,1.44,-1.45,-1.41,-1.44,4.05,4.05,4.05
66.67,5.45,1.44,5.45,1.44,-1.44,-1.39,-1.43,4.01,4.01,4.02
67.33,5.41,1.43,5.41,1.43,-1.44,-1.38,-1.41,3.97,3.97,3.98
68.01,5.36,1.42,5.36,1.42,-1.43,-1.36,-1.39,3.94,3.93,3.94
68.69,5.31,1.42,5.31,1.42,-1.42,-1.35,-1.37,3.89,3.89,3.89
69.37,5.26,1.41,5.26,1.41,-1.41,-1.33,-1.35,3.85,3.85,3.85
70.07,5.20,1.40,5.20,1.40,-1.39,-1.32,-1.34,3.81,3.81,3.81
70.77,5.15,1.38,5.15,1.38,-1.37,-1.30,-1.32,3.77,3.77,3.76
71.48,5.09,1.36,5.09,1.36,-1.35,-1.29,-1.30,3.73,3.73,3.73
72.19,5.02,1.33,5.02,1.33,-1.32,-1.27,-1.28,3.70,3.70,3.69
72.91,4.96,1.30,4.96,1.30,-1.29,-1.26,-1.25,3.66,3.66,3.65
73.64,4.89,1.27,4.89,1.27,-1.26,-1.25,-1.23,3.62,3.63,3.62
74.38,4.82,1.23,4.82,1.23,-1.23,-1.23,-1.21,3.59,3.59,3.59
75.12,4.75,1.20,4.76,1.20,-1.21,-1.22,-1.19,3.55,3.55,3.55
75.87,4.70,1.18,4.70,1.18,-1.19,-1.20,-1.17,3.50,3.50,3.52
76.63,4.64,1.17,4.64,1.17,-1.19,-1.19,-1.15,3.46,3.46,3.48
77.40,4.60,1.17,4.60,1.17,-1.19,-1.17,-1.14,3.41,3.41,3.43
78.17,4.57,1.19,4.57,1.19,-1.21,-1.16,-1.12,3.37,3.37,3.38
78.95,4.55,1.22,4.55,1.22,-1.22,-1.15,-1.10,3.33,3.33,3.33
79.74,4.54,1.26,4.54,1.26,-1.25,-1.13,-1.08,3.29,3.29,3.28
80.54,4.53,1.29,4.53,1.29,-1.27,-1.12,-1.06,3.26,3.26,3.24
81.35,4.51,1.31,4.51,1.31,-1.28,-1.11,-1.05,3.23,3.23,3.20
82.16,4.48,1.31,4.48,1.31,-1.29,-1.09,-1.03,3.19,3.19,3.17
82.98,4.44,1.31,4.44,1.31,-1.29,-1.08,-1.01,3.15,3.15,3.13
83.81,4.39,1.30,4.39,1.30,-1.30,-1.07,-1.00,3.10,3.09,3.09
84.65,4.32,1.29,4.32,1.29,-1.30,-1.06,-0.99,3.02,3.02,3.03
85.50,4.23,1.28,4.23,1.28,-1.32,-1.04,-0.97,2.91,2.91,2.94
86.35,4.12,1.29,4.11,1.29,-1.34,-1.03,-0.96,2.78,2.78,2.83
87.22,3.99,1.31,3.99,1.32,-1.36,-1.02,-0.95,2.63,2.63,2.68
88.09,3.85,1.37,3.85,1.37,-1.38,-1.01,-0.93,2.47,2.47,2.49
88.97,3.74,1.42,3.74,1.42,-1.40,-1.00,-0.92,2.34,2.34,2.32
89.86,3.64,1.47,3.66,1.46,-1.41,-0.99,-0.91,2.23,2.24,2.17
90.76,3.62,1.47,3.63,1.47,-1.42,-0.97,-0.90,2.21,2.21,2.15
91.66,3.65,1.43,3.65,1.43,-1.41,-0.96,-0.89,2.23,2.23,2.22
92.58,3.69,1.37,3.69,1.37,-1.40,-0.95,-0.89,2.30,2.29,2.33
93.51,3.73,1.30,3.73,1.31,-1.36,-0.94,-0.88,2.38,2.37,2.44
94.44,3.76,1.25,3.76,1.26,-1.28,-0.93,-0.87,2.48,2.48,2.51
95.39,3.78,1.21,3.78,1.22,-1.18,-0.92,-0.87,2.59,2.59,2.57
96.34,3.78,1.16,3.78,1.16,-1.06,-0.91,-0.86,2.72,2.72,2.62
97.30,3.77,1.07,3.77,1.05,-0.93,-0.90,-0.86,2.84,2.84,2.70
98.28,3.75,0.89,3.76,0.88,-0.82,-0.89,-0.85,2.94,2.94,2.86
99.26,3.73,0.68,3.73,0.67,-0.73,-0.88,-0.85,3.01,3.01,3.05
100.25,3.70,0.48,3.69,0.51,-0.66,-0.88,-0.84,3.04,3.03,3.21
101.25,3.64,0.41,3.64,0.44,-0.62,-0.87,-0.84,3.03,3.02,3.23
102.27,3.57,0.48,3.57,0.49,-0.60,-0.86,-0.84,2.97,2.97,3.09
103.29,3.49,0.62,3.49,0.61,-0.60,-0.85,-0.84,2.89,2.89,2.88
104.32,3.42,0.76,3.42,0.73,-0.63,-0.84,-0.83,2.79,2.79,2.66
105.37,3.35,0.80,3.35,0.79,-0.67,-0.83,-0.83,2.68,2.68,2.55
106.42,3.30,0.81,3.30,0.80,-0.72,-0.83,-0.83,2.58,2.58,2.49
107.48,3.24,0.77,3.25,0.77,-0.76,-0.82,-0.83,2.48,2.49,2.47
108.56,3.20,0.74,3.20,0.75,-0.78,-0.81,-0.83,2.42,2.42,2.46
109.64,3.16,0.73,3.16,0.73,-0.78,-0.81,-0.83,2.38,2.38,2.44
110.74,3.13,0.73,3.13,0.73,-0.77,-0.80,-0.83,2.36,2.36,2.40
111.85,3.10,0.75,3.09,0.75,-0.76,-0.79,-0.83,2.34,2.33,2.34
112.97,3.06,0.77,3.06,0.77,-0.75,-0.79,-0.83,2.31,2.31,2.29
114.10,3.02,0.77,3.02,0.77,-0.74,-0.78,-0.83,2.28,2.28,2.25
115.24,2.98,0.76,2.98,0.76,-0.74,-0.78,-0.83,2.25,2.25,2.22
116.39,2.94,0.74,2.94,0.74,-0.73,-0.77,-0.83,2.21,2.21,2.21
117.55,2.90,0.71,2.90,0.71,-0.71,-0.77,-0.83,2.19,2.19,2.19
118.73,2.85,0.69,2.85,0.69,-0.69,-0.76,-0.83,2.16,2.16,2.17
119.92,2.81,0.67,2.81,0.67,-0.67,-0.76,-0.83,2.14,2.14,2.14
121.12,2.76,0.65,2.76,0.65,-0.65,-0.76,-0.82,2.11,2.11,2.11
122.33,2.71,0.63,2.71,0.63,-0.64,-0.75,-0.82,2.07,2.07,2.08
123.55,2.66,0.62,2.66,0.62,-0.63,-0.75,-0.82,2.03,2.03,2.04
124.79,2.61,0.62,2.61,0.62,-0.62,-0.75,-0.82,1.99,1.99,2.00
126.03,2.57,0.62,2.57,0.62,-0.63,-0.75,-0.82,1.94,1.94,1.95
127.29,2.53,0.63,2.53,0.63,-0.63,-0.74,-0.82,1.90,1.90,1.90
128.57,2.50,0.64,2.50,0.64,-0.64,-0.74,-0.81,1.85,1.85,1.86
129.85,2.46,0.65,2.46,0.65,-0.65,-0.74,-0.81,1.81,1.81,1.81
131.15,2.43,0.67,2.43,0.67,-0.66,-0.74,-0.81,1.77,1.77,1.77
132.46,2.40,0.68,2.40,0.68,-0.67,-0.74,-0.80,1.73,1.73,1.72
133.79,2.36,0.68,2.36,0.68,-0.67,-0.74,-0.80,1.69,1.69,1.68
135.12,2.32,0.68,2.32,0.68,-0.67,-0.74,-0.80,1.65,1.65,1.64
136.48,2.27,0.67,2.27,0.67,-0.67,-0.74,-0.79,1.60,1.60,1.60
137.84,2.21,0.66,2.21,0.66,-0.66,-0.74,-0.79,1.55,1.55,1.56
139.22,2.16,0.65,2.16,0.65,-0.65,-0.74,-0.79,1.51,1.51,1.52
140.61,2.11,0.63,2.11,0.63,-0.64,-0.75,-0.78,1.47,1.47,1.48
142.02,2.06,0.63,2.06,0.63,-0.63,-0.75,-0.78,1.43,1.43,1.44
143.44,2.01,0.62,2.01,0.62,-0.62,-0.75,-0.77,1.39,1.39,1.40
144.87,1.97,0.61,1.97,0.61,-0.61,-0.76,-0.77,1.36,1.36,1.36
146.32,1.92,0.60,1.92,0.60,-0.59,-0.76,-0.77,1.33,1.33,1.32
147.78,1.87,0.58,1.87,0.58,-0.58,-0.76,-0.76,1.30,1.30,1.29
149.26,1.83,0.57,1.83,0.57,-0.56,-0.77,-0.76,1.27,1.27,1.26
150.75,1.78,0.54,1.78,0.54,-0.53,-0.77,-0.76,1.25,1.25,1.24
152.26,1.73,0.52,1.73,0.51,-0.51,-0.78,-0.75,1.23,1.22,1.22
153.78,1.67,0.48,1.67,0.48,-0.48,-0.79,-0.75,1.20,1.20,1.19
155.32,1.62,0.45,1.62,0.45,-0.45,-0.79,-0.75,1.17,1.17,1.16
156.88,1.55,0.43,1.55,0.43,-0.42,-0.80,-0.75,1.13,1.13,1.13
158.44,1.50,0.41,1.50,0.40,-0.40,-0.81,-0.75,1.10,1.10,1.09
160.03,1.44,0.39,1.44,0.39,-0.39,-0.82,-0.75,1.05,1.05,1.05
161.63,1.41,0.39,1.41,0.39,-0.41,-0.83,-0.75,1.00,1.00,1.02
163.24,1.39,0.41,1.39,0.41,-0.44,-0.84,-0.75,0.95,0.95,0.98
164.88,1.40,0.45,1.41,0.46,-0.50,-0.85,-0.75,0.90,0.91,0.95
166.53,1.45,0.54,1.45,0.54,-0.58,-0.86,-0.75,0.88,0.88,0.91
168.19,1.52,0.65,1.52,0.65,-0.67,-0.87,-0.75,0.85,0.85,0.87
169.87,1.61,0.78,1.61,0.78,-0.78,-0.88,-0.76,0.84,0.84,0.84
171.57,1.71,0.91,1.71,0.91,-0.89,-0.90,-0.76,0.82,0.82,0.80
173.29,1.79,1.03,1.79,1.03,-1.00,-0.91,-0.76,0.80,0.80,0.77
175.02,1.87,1.13,1.86,1.13,-1.10,-0.92,-0.77,0.77,0.77,0.73
176.77,1.90,1.21,1.90,1.21,-1.17,-0.94,-0.77,0.73,0.73,0.70
178.54,1.92,1.26,1.92,1.26,-1.24,-0.95,-0.78,0.69,0.69,0.66
180.32,1.92,1.29,1.92,1.28,-1.28,-0.97,-0.78,0.64,0.64,0.63
182.13,1.90,1.29,1.90,1.29,-1.30,-0.98,-0.79,0.60,0.60,0.61
183.95,1.87,1.29,1.87,1.30,-1.31,-1.00,-0.80,0.56,0.57,0.58
185.79,1.84,1.29,1.84,1.29,-1.30,-1.01,-0.81,0.54,0.54,0.55
187.65,1.80,1.29,1.80,1.29,-1.29,-1.03,-0.81,0.51,0.51,0.52
189.52,1.76,1.28,1.76,1.28,-1.27,-1.05,-0.82,0.49,0.49,0.48
191.42,1.71,1.26,1.71,1.26,-1.24,-1.06,-0.83,0.47,0.47,0.45
193.33,1.66,1.23,1.65,1.23,-1.22,-1.08,-0.84,0.44,0.44,0.42
195.27,1.59,1.20,1.59,1.20,-1.20,-1.09,-0.85,0.40,0.39,0.40
197.22,1.53,1.16,1.53,1.16,-1.18,-1.11,-0.86,0.35,0.35,0.36
199.19,1.47,1.14,1.47,1.14,-1.17,-1.12,-0.87,0.30,0.30,0.33
201.18,1.43,1.14,1.44,1.14,-1.17,-1.14,-0.89,0.27,0.27,0.29
203.19,1.41,1.16,1.41,1.16,-1.17,-1.15,-0.90,0.24,0.24,0.25
205.23,1.40,1.19,1.40,1.19,-1.19,-1.16,-0.91,0.21,0.21,0.21
207.28,1.39,1.23,1.39,1.22,-1.21,-1.17,-0.92,0.18,0.18,0.16
209.35,1.37,1.25,1.37,1.25,-1.24,-1.18,-0.93,0.13,0.13,0.12
211.44,1.35,1.28,1.35,1.28,-1.28,-1.18,-0.94,0.07,0.07,0.07
213.56,1.32,1.30,1.32,1.30,-1.31,-1.19,-0.96,0.01,0.01,0.01
215.69,1.29,1.33,1.29,1.33,-1.34,-1.19,-0.97,-0.05,-0.05,-0.04
217.85,1.26,1.36,1.26,1.36,-1.37,-1.18,-0.98,-0.11,-0.11,-0.10
220.03,1.23,1.38,1.23,1.38,-1.38,-1.18,-0.99,-0.16,-0.16,-0.15
222.23,1.20,1.39,1.20,1.39,-1.39,-1.17,-1.00,-0.19,-0.19,-0.19
224.45,1.17,1.40,1.17,1.40,-1.38,-1.16,-1.01,-0.21,-0.21,-0.23
226.70,1.14,1.38,1.14,1.38,-1.35,-1.14,-1.02,-0.21,-0.21,-0.24
228.96,1.11,1.33,1.11,1.33,-1.30,-1.12,-1.03,-0.18,-0.18,-0.22
231.25,1.09,1.26,1.09,1.26,-1.23,-1.10,-1.04,-0.14,-0.14,-0.17
233.57,1.06,1.17,1.06,1.17,-1.15,-1.07,-1.05,-0.09,-0.09,-0.11
235.90,1.04,1.06,1.04,1.07,-1.07,-1.04,-1.05,-0.03,-0.03,-0.03
238.26,1.01,0.96,1.01,0.96,-0.98,-1.01,-1.06,0.03,0.03,0.05
240.64,0.98,0.87,0.99,0.87,-0.90,-0.97,-1.06,0.08,0.08,0.12
243.05,0.96,0.80,0.96,0.81,-0.84,-0.93,-1.07,0.12,0.12,0.16
245.48,0.94,0.77,0.94,0.76,-0.78,-0.89,-1.07,0.15,0.15,0.17
247.93,0.92,0.74,0.92,0.74,-0.75,-0.86,-1.07,0.17,0.17,0.18
250.41,0.90,0.73,0.90,0.73,-0.73,-0.82,-1.07,0.17,0.17,0.17
252.92,0.87,0.73,0.87,0.73,-0.72,-0.79,-1.07,0.15,0.15,0.15
255.45,0.85,0.73,0.85,0.73,-0.73,-0.76,-1.07,0.12,0.12,0.12
258.00,0.83,0.74,0.83,0.74,-0.74,-0.74,-1.06,0.09,0.09,0.08
260.58,0.80,0.75,0.80,0.75,-0.75,-0.72,-1.06,0.06,0.06,0.05
263.19,0.78,0.76,0.78,0.76,-0.76,-0.71,-1.05,0.02,0.02,0.02
265.82,0.76,0.77,0.76,0.77,-0.77,-0.71,-1.04,-0.01,-0.01,-0.01
268.48,0.73,0.78,0.73,0.78,-0.78,-0.71,-1.04,-0.04,-0.04,-0.04
271.16,0.71,0.78,0.71,0.78,-0.78,-0.71,-1.03,-0.07,-0.07,-0.07
273.87,0.68,0.79,0.68,0.79,-0.79,-0.72,-1.02,-0.10,-0.10,-0.10
276.61,0.66,0.79,0.66,0.79,-0.79,-0.73,-1.01,-0.13,-0.13,-0.13
279.38,0.64,0.79,0.64,0.79,-0.79,-0.74,-1.00,-0.15,-0.15,-0.15
282.17,0.61,0.79,0.61,0.79,-0.79,-0.75,-0.99,-0.18,-0.18,-0.18
284.99,0.59,0.79,0.59,0.79,-0.79,-0.76,-0.98,-0.20,-0.20,-0.20
287.84,0.56,0.78,0.56,0.78,-0.78,-0.77,-0.96,-0.22,-0.22,-0.22
290.72,0.53,0.78,0.53,0.78,-0.78,-0.78,-0.95,-0.25,-0.25,-0.25
293.63,0.51,0.78,0.51,0.78,-0.77,-0.79,-0.94,-0.27,-0.27,-0.27
296.57,0.48,0.77,0.48,0.77,-0.77,-0.80,-0.93,-0.29,-0.29,-0.29
299.53,0.45,0.76,0.45,0.76,-0.76,-0.80,-0.91,-0.31,-0.31,-0.31
302.53,0.43,0.76,0.43,0.76,-0.76,-0.81,-0.90,-0.33,-0.33,-0.33
305.55,0.40,0.75,0.40,0.75,-0.75,-0.81,-0.89,-0.35,-0.35,-0.35
308.61,0.37,0.74,0.37,0.74,-0.74,-0.81,-0.87,-0.37,-0.37,-0.37
311.69,0.34,0.73,0.34,0.73,-0.73,-0.81,-0.86,-0.39,-0.39,-0.39
314.81,0.32,0.72,0.32,0.72,-0.72,-0.81,-0.85,-0.41,-0.41,-0.41
317.96,0.29,0.71,0.29,0.71,-0.71,-0.81,-0.84,-0.42,-0.42,-0.43
321.14,0.26,0.70,0.26,0.70,-0.70,-0.81,-0.83,-0.44,-0.44,-0.44
324.35,0.23,0.69,0.23,0.69,-0.69,-0.81,-0.82,-0.46,-0.46,-0.46
327.59,0.20,0.68,0.20,0.68,-0.68,-0.81,-0.81,-0.47,-0.47,-0.48
330.87,0.17,0.67,0.17,0.67,-0.66,-0.81,-0.80,-0.49,-0.49,-0.50
334.18,0.14,0.65,0.14,0.65,-0.65,-0.80,-0.79,-0.51,-0.51,-0.52
337.52,0.11,0.64,0.11,0.64,-0.64,-0.80,-0.78,-0.53,-0.53,-0.53
340.90,0.08,0.63,0.08,0.63,-0.64,-0.80,-0.77,-0.56,-0.55,-0.55
344.30,0.07,0.63,0.07,0.63,-0.64,-0.80,-0.76,-0.58,-0.57,-0.57
347.75,0.06,0.64,0.06,0.64,-0.65,-0.80,-0.75,-0.59,-0.59,-0.58
351.23,0.06,0.66,0.06,0.66,-0.67,-0.80,-0.75,-0.61,-0.61,-0.60
354.74,0.07,0.68,0.07,0.68,-0.69,-0.79,-0.74,-0.62,-0.62,-0.61
358.28,0.09,0.72,0.09,0.71,-0.72,-0.79,-0.74,-0.63,-0.63,-0.63
361.87,0.11,0.75,0.11,0.75,-0.75,-0.79,-0.73,-0.64,-0.64,-0.64
365.49,0.13,0.79,0.13,0.79,-0.78,-0.79,-0.73,-0.65,-0.65,-0.66
369.14,0.15,0.82,0.15,0.82,-0.81,-0.79,-0.72,-0.66,-0.66,-0.67
372.83,0.16,0.84,0.16,0.84,-0.83,-0.79,-0.72,-0.68,-0.68,-0.69
376.56,0.16,0.86,0.16,0.86,-0.85,-0.79,-0.72,-0.70,-0.70,-0.70
380.33,0.15,0.87,0.15,0.87,-0.87,-0.79,-0.71,-0.72,-0.72,-0.72
384.13,0.14,0.88,0.14,0.88,-0.88,-0.79,-0.71,-0.74,-0.74,-0.74
387.97,0.13,0.88,0.13,0.88,-0.88,-0.79,-0.71,-0.75,-0.75,-0.75
391.85,0.11,0.88,0.11,0.88,-0.88,-0.79,-0.71,-0.77,-0.77,-0.77
395.77,0.10,0.88,0.10,0.88,-0.88,-0.79,-0.71,-0.78,-0.78,-0.78
399.73,0.08,0.87,0.08,0.87,-0.87,-0.79,-0.71,-0.79,-0.79,-0.79
403.72,0.05,0.86,0.05,0.86,-0.86,-0.79,-0.71,-0.81,-0.81,-0.81
407.76,0.03,0.85,0.03,0.85,-0.85,-0.79,-0.71,-0.82,-0.82,-0.82
411.84,0.01,0.84,0.01,0.84,-0.84,-0.79,-0.71,-0.83,-0.83,-0.83
415.96,-0.01,0.83,-0.01,0.83,-0.83,-0.79,-0.71,-0.85,-0.85,-0.84
420.12,-0.04,0.82,-0.04,0.82,-0.82,-0.78,-0.71,-0.86,-0.86,-0.86
424.32,-0.06,0.81,-0.06,0.81,-0.81,-0.78,-0.72,-0.87,-0.87,-0.87
428.56,-0.08,0.80,-0.08,0.80,-0.80,-0.78,-0.72,-0.88,-0.88,-0.88
432.85,-0.11,0.79,-0.11,0.79,-0.79,-0.78,-0.72,-0.89,-0.89,-0.89
437.18,-0.13,0.77,-0.13,0.78,-0.78,-0.78,-0.72,-0.91,-0.90,-0.90
441.55,-0.15,0.77,-0.15,0.77,-0.77,-0.78,-0.72,-0.92,-0.92,-0.92
445.96,-0.17,0.76,-0.17,0.76,-0.76,-0.77,-0.72,-0.93,-0.93,-0.93
450.42,-0.19,0.75,-0.19,0.75,-0.75,-0.77,-0.72,-0.94,-0.94,-0.94
454.93,-0.21,0.74,-0.21,0.74,-0.74,-0.76,-0.73,-0.95,-0.95,-0.95
459.48,-0.23,0.73,-0.23,0.73,-0.73,-0.76,-0.73,-0.96,-0.96,-0.96
464.07,-0.25,0.73,-0.25,0.73,-0.72,-0.76,-0.73,-0.97,-0.97,-0.98
468.71,-0.27,0.72,-0.27,0.72,-0.72,-0.75,-0.73,-0.98,-0.98,-0.99
473.40,-0.29,0.71,-0.29,0.71,-0.71,-0.74,-0.73,-0.99,-0.99,-0.99
478.13,-0.30,0.70,-0.31,0.70,-0.70,-0.74,-0.73,-1.00,-1.00,-1.00
482.91,-0.32,0.69,-0.32,0.69,-0.69,-0.73,-0.72,-1.01,-1.01,-1.01
487.74,-0.34,0.68,-0.34,0.68,-0.68,-0.72,-0.72,-1.02,-1.02,-1.02
492.62,-0.36,0.67,-0.36,0.67,-0.67,-0.72,-0.72,-1.03,-1.03,-1.03
497.55,-0.38,0.66,-0.38,0.66,-0.66,-0.71,-0.72,-1.03,-1.04,-1.03
502.52,-0.39,0.65,-0.39,0.65,-0.65,-0.70,-0.71,-1.05,-1.05,-1.05
507.55,-0.41,0.64,-0.41,0.64,-0.64,-0.69,-0.71,-1.06,-1.06,-1.06
512.62,-0.43,0.64,-0.43,0.64,-0.64,-0.68,-0.70,-1.07,-1.07,-1.07
517.75,-0.45,0.63,-0.45,0.63,-0.63,-0.67,-0.70,-1.08,-1.08,-1.08
522.93,-0.46,0.63,-0.46,0.63,-0.62,-0.66,-0.69,-1.09,-1.09,-1.09
