frequency,raw,error,smoothed,error_smoothed,equalization,parametric_eq,fixed_band_eq,equalized_raw,equalized_smoothed,target
20.00,15.63,8.84,15.64,8.84,-9.22,-8.81,-3.69,6.41,6.42,6.80
20.20,15.73,8.95,15.73,8.95,-9.00,-8.80,-3.80,6.73,6.74,6.79
20.40,15.75,8.98,15.74,8.97,-8.80,-8.80,-3.90,6.95,6.94,6.77
20.61,15.69,8.93,15.67,8.91,-8.62,-8.70,-4.01,7.07,7.05,6.76
20.81,15.49,8.74,15.49,8.74,-8.46,-8.60,-4.11,7.03,7.03,6.75
21.02,15.25,8.51,15.24,8.51,-8.33,-8.47,-4.23,6.92,6.91,6.73
21.23,14.97,8.25,14.98,8.26,-8.22,-8.33,-4.34,6.75,6.76,6.72
21.44,14.73,8.02,14.74,8.03,-8.13,-8.21,-4.46,6.60,6.61,6.71
21.66,14.57,7.87,14.56,7.87,-8.01,-8.10,-4.59,6.56,6.55,6.70
21.87,14.45,7.77,14.48,7.79,-7.94,-8.04,-4.71,6.52,6.54,6.68
22.09,14.48,7.81,14.48,7.81,-7.92,-7.98,-4.84,6.56,6.56,6.67
22.31,14.57,7.92,14.56,7.91,-7.96,-7.99,-4.98,6.61,6.60,6.65
22.54,14.69,8.05,14.69,8.06,-8.03,-8.01,-5.11,6.65,6.66,6.63
22.76,14.82,8.20,14.81,8.20,-8.12,-8.07,-5.25,6.69,6.69,6.62
22.99,14.91,8.32,14.90,8.30,-8.21,-8.14,-5.39,6.71,6.69,6.60
23.22,14.95,8.36,14.94,8.36,-8.26,-8.20,-5.54,6.68,6.68,6.58
23.45,14.94,8.36,14.94,8.36,-8.29,-8.26,-5.69,6.65,6.65,6.58
23.69,14.89,8.32,14.89,8.31,-8.28,-8.28,-5.85,6.61,6.61,6.58
23.92,14.82,8.24,14.82,8.24,-8.25,-8.30,-6.00,6.58,6.58,6.58
24.16,14.75,8.16,14.75,8.16,-8.20,-8.28,-6.16,6.55,6.56,6.59
24.40,14.68,8.09,14.69,8.09,-8.14,-8.26,-6.33,6.54,6.54,6.60
24.65,14.63,8.04,14.63,8.04,-8.10,-8.21,-6.49,6.54,6.54,6.59
24.89,14.59,8.02,14.60,8.02,-8.06,-8.16,-6.66,6.53,6.54,6.58
25.14,14.57,8.02,14.57,8.02,-8.04,-8.11,-6.83,6.53,6.53,6.55
25.39,14.54,8.03,14.54,8.03,-8.02,-8.06,-7.01,6.52,6.52,6.51
25.65,14.51,8.04,14.51,8.04,-8.01,-8.01,-7.18,6.50,6.50,6.47
25.91,14.48,8.04,14.48,8.03,-8.00,-7.96,-7.36,6.48,6.48,6.44
26.16,14.44,8.02,14.44,8.01,-7.98,-7.92,-7.54,6.46,6.46,6.43
26.43,14.40,7.97,14.41,7.97,-7.97,-7.88,-7.71,6.44,6.44,6.43
26.69,14.37,7.93,14.37,7.93,-7.94,-7.85,-7.89,6.43,6.43,6.45
26.96,14.35,7.89,14.35,7.89,-7.92,-7.81,-8.06,6.43,6.43,6.46
27.23,14.33,7.86,14.33,7.86,-7.89,-7.79,-8.24,6.44,6.44,6.47
27.50,14.32,7.85,14.32,7.85,-7.86,-7.77,-8.41,6.46,6.46,6.47
27.77,14.31,7.84,14.31,7.84,-7.82,-7.75,-8.57,6.48,6.48,6.47
28.05,14.29,7.83,14.28,7.82,-7.79,-7.74,-8.73,6.50,6.50,6.46
28.33,14.25,7.79,14.25,7.79,-7.75,-7.73,-8.89,6.50,6.50,6.46
28.62,14.21,7.75,14.21,7.74,-7.71,-7.72,-9.04,6.50,6.50,6.47
28.90,14.17,7.68,14.17,7.68,-7.69,-7.71,-9.17,6.48,6.48,6.48
29.19,14.12,7.63,14.12,7.63,-7.67,-7.71,-9.30,6.45,6.45,6.49
29.48,14.08,7.59,14.09,7.61,-7.67,-7.70,-9.42,6.41,6.42,6.49
29.78,14.06,7.62,14.06,7.62,-7.68,-7.70,-9.53,6.39,6.38,6.45
30.08,14.05,7.66,14.06,7.67,-7.70,-7.70,-9.61,6.35,6.36,6.39
30.38,14.06,7.74,14.06,7.74,-7.73,-7.70,-9.70,6.33,6.33,6.32
30.68,14.07,7.81,14.07,7.80,-7.76,-7.71,-9.76,6.31,6.31,6.26
30.99,14.07,7.85,14.07,7.85,-7.79,-7.71,-9.81,6.28,6.28,6.22
31.30,14.06,7.86,14.06,7.86,-7.81,-7.71,-9.84,6.25,6.25,6.20
31.61,14.03,7.84,14.03,7.84,-7.81,-7.71,-9.86,6.22,6.21,6.19
31.93,13.98,7.79,13.97,7.80,-7.80,-7.72,-9.86,6.18,6.18,6.18
32.24,13.90,7.75,13.90,7.75,-7.76,-7.72,-9.85,6.14,6.14,6.15
32.57,13.82,7.71,13.82,7.71,-7.72,-7.72,-9.83,6.11,6.11,6.11
32.89,13.74,7.67,13.74,7.67,-7.67,-7.72,-9.79,6.07,6.07,6.06
33.22,13.66,7.63,13.65,7.63,-7.63,-7.73,-9.74,6.03,6.03,6.02
33.55,13.58,7.59,13.58,7.59,-7.60,-7.73,-9.68,5.98,5.98,5.99
33.89,13.52,7.56,13.52,7.56,-7.58,-7.73,-9.60,5.94,5.94,5.97
34.23,13.49,7.54,13.49,7.55,-7.58,-7.73,-9.52,5.90,5.90,5.94
34.57,13.47,7.55,13.47,7.56,-7.60,-7.73,-9.43,5.87,5.88,5.92
34.92,13.48,7.60,13.48,7.60,-7.61,-7.74,-9.33,5.87,5.87,5.88
35.27,13.50,7.65,13.50,7.65,-7.64,-7.74,-9.23,5.87,5.87,5.85
35.62,13.52,7.70,13.52,7.69,-7.66,-7.73,-9.13,5.86,5.86,5.82
35.97,13.53,7.72,13.53,7.72,-7.68,-7.73,-9.02,5.86,5.85,5.81
36.33,13.52,7.72,13.52,7.72,-7.69,-7.73,-8.91,5.83,5.83,5.80
36.70,13.49,7.70,13.49,7.70,-7.70,-7.73,-8.80,5.80,5.79,5.79
37.06,13.46,7.68,13.46,7.69,-7.70,-7.73,-8.68,5.76,5.76,5.77
37.43,13.41,7.67,13.42,7.67,-7.70,-7.72,-8.57,5.72,5.72,5.74
37.81,13.39,7.67,13.39,7.67,-7.69,-7.72,-8.46,5.70,5.70,5.72
38.19,13.36,7.67,13.36,7.67,-7.68,-7.72,-8.36,5.68,5.68,5.69
38.57,13.34,7.68,13.34,7.68,-7.68,-7.71,-8.25,5.66,5.66,5.66
38.95,13.32,7.69,13.32,7.69,-7.68,-7.71,-8.15,5.64,5.64,5.63
39.34,13.29,7.69,13.29,7.69,-7.68,-7.70,-8.05,5.61,5.61,5.60
39.74,13.25,7.69,13.25,7.69,-7.68,-7.69,-7.96,5.58,5.58,5.57
40.14,13.21,7.68,13.21,7.68,-7.67,-7.69,-7.86,5.54,5.54,5.53
40.54,13.16,7.67,13.16,7.67,-7.66,-7.68,-7.78,5.51,5.51,5.49
40.94,13.12,7.65,13.11,7.65,-7.64,-7.67,-7.70,5.47,5.47,5.46
41.35,13.07,7.63,13.06,7.63,-7.63,-7.66,-7.62,5.43,5.43,5.44
41.76,13.01,7.60,13.01,7.60,-7.63,-7.65,-7.55,5.39,5.39,5.41
42.18,12.97,7.59,12.97,7.60,-7.63,-7.64,-7.48,5.34,5.34,5.38
42.60,12.93,7.60,12.94,7.60,-7.63,-7.63,-7.42,5.31,5.31,5.34
43.03,12.92,7.62,12.92,7.62,-7.63,-7.62,-7.36,5.29,5.29,5.30
43.46,12.91,7.65,12.91,7.65,-7.63,-7.61,-7.31,5.28,5.28,5.26
43.90,12.90,7.66,12.89,7.66,-7.62,-7.60,-7.27,5.27,5.27,5.24
44.33,12.87,7.65,12.86,7.65,-7.61,-7.59,-7.23,5.25,5.25,5.21
44.78,12.81,7.62,12.81,7.62,-7.60,-7.57,-7.19,5.22,5.21,5.19
45.23,12.74,7.58,12.74,7.58,-7.58,-7.56,-7.16,5.17,5.17,5.17
45.68,12.67,7.53,12.67,7.53,-7.55,-7.55,-7.14,5.11,5.12,5.14
46.13,12.59,7.49,12.60,7.50,-7.53,-7.53,-7.12,5.07,5.07,5.10
46.60,12.54,7.47,12.54,7.48,-7.50,-7.52,-7.11,5.04,5.04,5.06
47.06,12.50,7.47,12.50,7.47,-7.48,-7.51,-7.10,5.02,5.02,5.03
47.53,12.46,7.47,12.46,7.46,-7.46,-7.49,-7.09,5.01,5.01,5.00
48.01,12.43,7.46,12.43,7.46,-7.44,-7.48,-7.09,4.99,4.99,4.97
48.49,12.39,7.45,12.39,7.45,-7.43,-7.46,-7.10,4.97,4.97,4.95
48.97,12.35,7.42,12.35,7.42,-7.41,-7.45,-7.11,4.93,4.93,4.92
49.46,12.29,7.39,12.29,7.40,-7.40,-7.43,-7.12,4.89,4.89,4.90
49.96,12.23,7.37,12.24,7.38,-7.39,-7.42,-7.14,4.85,4.85,4.86
50.46,12.18,7.37,12.18,7.37,-7.38,-7.40,-7.16,4.81,4.81,4.82
50.96,12.14,7.36,12.14,7.36,-7.37,-7.39,-7.18,4.77,4.77,4.77
51.47,12.10,7.37,12.10,7.36,-7.36,-7.37,-7.21,4.74,4.74,4.73
51.99,12.06,7.36,12.06,7.36,-7.36,-7.36,-7.24,4.70,4.70,4.70
52.51,12.02,7.36,12.02,7.36,-7.37,-7.34,-7.27,4.66,4.65,4.66
53.03,11.98,7.36,11.99,7.37,-7.38,-7.32,-7.30,4.61,4.61,4.62
53.56,11.95,7.38,11.95,7.38,-7.39,-7.31,-7.34,4.57,4.57,4.58
54.10,11.92,7.39,11.92,7.39,-7.40,-7.29,-7.37,4.53,4.53,4.53
54.64,11.90,7.41,11.90,7.41,-7.41,-7.27,-7.40,4.49,4.49,4.49
55.18,11.87,7.41,11.87,7.41,-7.41,-7.26,-7.44,4.46,4.46,4.45
55.74,11.83,7.41,11.83,7.41,-7.40,-7.24,-7.47,4.43,4.43,4.42
56.29,11.79,7.40,11.79,7.41,-7.39,-7.22,-7.50,4.40,4.40,4.39
56.86,11.74,7.39,11.74,7.38,-7.36,-7.21,-7.53,4.38,4.38,4.36
57.42,11.69,7.35,11.69,7.35,-7.33,-7.19,-7.56,4.35,4.36,4.34
58.00,11.62,7.30,11.62,7.30,-7.29,-7.17,-7.58,4.33,4.33,4.32
58.58,11.55,7.24,11.55,7.24,-7.25,-7.16,-7.59,4.30,4.30,4.31
59.16,11.48,7.18,11.48,7.18,-7.20,-7.14,-7.61,4.28,4.28,4.30
59.76,11.40,7.13,11.40,7.13,-7.15,-7.12,-7.62,4.25,4.25,4.27
60.35,11.33,7.10,11.33,7.10,-7.11,-7.11,-7.62,4.22,4.22,4.23
60.96,11.27,7.08,11.27,7.07,-7.08,-7.09,-7.61,4.19,4.19,4.19
61.57,11.20,7.05,11.20,7.05,-7.05,-7.07,-7.60,4.16,4.16,4.15
62.18,11.15,7.02,11.15,7.03,-7.02,-7.05,-7.59,4.12,4.12,4.12
62.80,11.09,7.01,11.09,7.01,-7.00,-7.04,-7.56,4.09,4.09,4.09
63.43,11.04,6.99,11.04,6.99,-6.99,-7.02,-7.53,4.06,4.06,4.05
64.07,10.99,6.97,10.99,6.97,-6.97,-7.00,-7.50,4.02,4.02,4.02
64.71,10.94,6.95,10.94,6.95,-6.95,-6.98,-7.46,3.99,3.99,3.99
65.35,10.88,6.93,10.88,6.93,-6.93,-6.97,-7.41,3.95,3.95,3.95
66.01,10.83,6.91,10.83,6.91,-6.91,-6.95,-7.35,3.92,3.92,3.92
66.67,10.77,6.89,10.77,6.89,-6.89,-6.93,-7.29,3.88,3.88,3.88
67.33,10.71,6.87,10.71,6.87,-6.87,-6.91,-7.23,3.84,3.84,3.84
68.01,10.65,6.85,10.66,6.85,-6.86,-6.89,-7.16,3.80,3.80,3.80
68.69,10.61,6.84,10.61,6.84,-6.84,-6.87,-7.09,3.77,3.77,3.77
69.37,10.56,6.82,10.56,6.82,-6.82,-6.85,-7.01,3.73,3.73,3.73
70.07,10.51,6.81,10.51,6.81,-6.81,-6.84,-6.93,3.70,3.70,3.70
70.77,10.46,6.80,10.46,6.80,-6.80,-6.82,-6.85,3.67,3.67,3.66
71.48,10.41,6.78,10.41,6.78,-6.78,-6.80,-6.76,3.63,3.63,3.63
72.19,10.36,6.77,10.36,6.77,-6.76,-6.78,-6.68,3.59,3.59,3.59
72.91,10.30,6.75,10.30,6.75,-6.75,-6.76,-6.60,3.56,3.56,3.56
73.64,10.25,6.73,10.25,6.73,-6.73,-6.74,-6.51,3.52,3.52,3.52
74.38,10.20,6.71,10.20,6.71,-6.71,-6.72,-6.43,3.49,3.49,3.49
75.12,10.14,6.69,10.14,6.69,-6.69,-6.70,-6.34,3.46,3.45,3.46
75.87,10.09,6.67,10.09,6.67,-6.67,-6.67,-6.26,3.42,3.42,3.42
76.63,10.03,6.64,10.03,6.64,-6.64,-6.65,-6.18,3.39,3.39,3.39
77.40,9.97,6.62,9.98,6.62,-6.62,-6.63,-6.10,3.35,3.35,3.35
78.17,9.92,6.60,9.92,6.60,-6.60,-6.61,-6.03,3.32,3.32,3.32
78.95,9.87,6.58,9.86,6.58,-6.57,-6.59,-5.95,3.29,3.29,3.29
79.74,9.81,6.55,9.81,6.55,-6.55,-6.56,-5.88,3.26,3.26,3.26
80.54,9.75,6.52,9.75,6.52,-6.52,-6.54,-5.81,3.23,3.23,3.22
81.35,9.68,6.49,9.68,6.49,-6.49,-6.52,-5.75,3.19,3.19,3.19
82.16,9.62,6.46,9.62,6.46,-6.46,-6.49,-5.69,3.16,3.16,3.16
82.98,9.55,6.43,9.55,6.43,-6.43,-6.47,-5.63,3.12,3.12,3.12
83.81,9.49,6.40,9.49,6.40,-6.40,-6.44,-5.58,3.09,3.09,3.09
84.65,9.43,6.37,9.43,6.37,-6.37,-6.42,-5.53,3.05,3.05,3.06
85.50,9.37,6.34,9.37,6.34,-6.35,-6.39,-5.48,3.02,3.02,3.03
86.35,9.31,6.32,9.31,6.32,-6.33,-6.36,-5.44,2.98,2.98,2.99
87.22,9.26,6.29,9.26,6.29,-6.30,-6.34,-5.40,2.95,2.95,2.96
88.09,9.20,6.28,9.21,6.28,-6.28,-6.31,-5.37,2.93,2.93,2.93
88.97,9.16,6.26,9.16,6.26,-6.25,-6.28,-5.34,2.91,2.91,2.90
89.86,9.11,6.25,9.11,6.24,-6.22,-6.25,-5.31,2.89,2.89,2.86
90.76,9.05,6.22,9.05,6.21,-6.18,-6.23,-5.29,2.87,2.87,2.83
91.66,8.97,6.17,8.97,6.17,-6.14,-6.20,-5.27,2.83,2.83,2.80
92.58,8.89,6.12,8.89,6.11,-6.11,-6.17,-5.26,2.77,2.77,2.77
93.51,8.81,6.06,8.81,6.07,-6.10,-6.14,-5.25,2.71,2.71,2.74
94.44,8.75,6.03,8.75,6.04,-6.10,-6.10,-5.24,2.65,2.65,2.71
95.39,8.72,6.04,8.72,6.04,-6.11,-6.07,-5.24,2.61,2.61,2.68
96.34,8.72,6.07,8.73,6.08,-6.13,-6.04,-5.24,2.59,2.60,2.65
97.30,8.76,6.14,8.77,6.14,-6.15,-6.01,-5.24,2.61,2.61,2.62
98.28,8.81,6.21,8.80,6.21,-6.17,-5.97,-5.25,2.64,2.64,2.59
99.26,8.82,6.25,8.81,6.24,-6.16,-5.94,-5.26,2.65,2.65,2.56
100.25,8.77,6.24,8.76,6.22,-6.14,-5.91,-5.27,2.63,2.62,2.54
101.25,8.66,6.15,8.65,6.15,-6.09,-5.87,-5.28,2.56,2.56,2.51
102.27,8.51,6.03,8.51,6.03,-6.02,-5.84,-5.30,2.48,2.49,2.48
103.29,8.35,5.90,8.35,5.91,-5.93,-5.80,-5.32,2.42,2.42,2.45
104.32,8.20,5.79,8.21,5.79,-5.84,-5.76,-5.34,2.37,2.37,2.42
105.37,8.08,5.69,8.08,5.69,-5.74,-5.73,-5.36,2.34,2.34,2.39
106.42,7.98,5.61,7.98,5.62,-5.65,-5.69,-5.38,2.33,2.33,2.36
107.48,7.89,5.56,7.89,5.56,-5.58,-5.65,-5.40,2.31,2.32,2.33
108.56,7.82,5.52,7.82,5.52,-5.52,-5.61,-5.42,2.30,2.30,2.30
109.64,7.76,5.48,7.76,5.48,-5.48,-5.57,-5.44,2.28,2.28,2.28
110.74,7.70,5.45,7.70,5.45,-5.44,-5.53,-5.46,2.26,2.26,2.25
111.85,7.64,5.42,7.64,5.41,-5.40,-5.49,-5.48,2.24,2.23,2.22
112.97,7.57,5.38,7.57,5.38,-5.37,-5.45,-5.50,2.20,2.20,2.20
114.10,7.50,5.34,7.50,5.34,-5.33,-5.41,-5.51,2.17,2.17,2.17
115.24,7.43,5.30,7.43,5.30,-5.29,-5.37,-5.52,2.14,2.14,2.14
116.39,7.36,5.25,7.36,5.25,-5.25,-5.33,-5.53,2.11,2.11,2.11
117.55,7.29,5.20,7.29,5.20,-5.21,-5.28,-5.54,2.08,2.09,2.09
118.73,7.22,5.16,7.22,5.16,-5.16,-5.24,-5.54,2.06,2.06,2.06
119.92,7.15,5.11,7.15,5.11,-5.12,-5.20,-5.53,2.04,2.04,2.04
121.12,7.09,5.07,7.09,5.07,-5.08,-5.15,-5.53,2.01,2.01,2.02
122.33,7.02,5.03,7.02,5.03,-5.04,-5.11,-5.51,1.99,1.99,1.99
123.55,6.96,5.00,6.96,5.00,-5.00,-5.06,-5.49,1.96,1.96,1.96
124.79,6.89,4.96,6.89,4.96,-4.96,-5.02,-5.47,1.94,1.94,1.94
126.03,6.83,4.92,6.83,4.92,-4.92,-4.97,-5.44,1.91,1.91,1.91
127.29,6.77,4.88,6.77,4.88,-4.88,-4.93,-5.40,1.89,1.89,1.89
128.57,6.70,4.84,6.70,4.84,-4.84,-4.88,-5.36,1.86,1.86,1.86
129.85,6.63,4.80,6.63,4.80,-4.80,-4.84,-5.31,1.84,1.84,1.84
131.15,6.57,4.76,6.57,4.76,-4.76,-4.79,-5.27,1.81,1.81,1.81
132.46,6.50,4.71,6.50,4.71,-4.72,-4.74,-5.21,1.78,1.78,1.79
133.79,6.44,4.67,6.44,4.67,-4.68,-4.70,-5.15,1.76,1.76,1.76
135.12,6.37,4.64,6.38,4.64,-4.64,-4.65,-5.08,1.74,1.74,1.74
136.48,6.31,4.60,6.31,4.60,-4.60,-4.60,-5.01,1.72,1.72,1.72
137.84,6.25,4.56,6.25,4.56,-4.55,-4.56,-4.94,1.70,1.70,1.69
139.22,6.19,4.52,6.19,4.52,-4.51,-4.51,-4.87,1.68,1.67,1.67
140.61,6.12,4.47,6.12,4.47,-4.47,-4.46,-4.79,1.65,1.65,1.64
142.02,6.04,4.42,6.04,4.42,-4.42,-4.41,-4.71,1.62,1.62,1.62
143.44,5.97,4.37,5.97,4.37,-4.38,-4.36,-4.63,1.59,1.59,1.60
144.87,5.89,4.32,5.89,4.32,-4.33,-4.32,-4.54,1.56,1.57,1.57
146.32,5.82,4.28,5.82,4.28,-4.28,-4.27,-4.46,1.54,1.54,1.54
147.78,5.75,4.23,5.76,4.23,-4.24,-4.22,-4.37,1.52,1.52,1.52
149.26,5.69,4.19,5.69,4.19,-4.20,-4.17,-4.29,1.49,1.49,1.50
150.75,5.62,4.15,5.62,4.15,-4.15,-4.12,-4.20,1.47,1.47,1.47
152.26,5.56,4.11,5.56,4.11,-4.11,-4.08,-4.12,1.45,1.45,1.45
153.78,5.50,4.07,5.50,4.07,-4.06,-4.03,-4.04,1.44,1.44,1.43
155.32,5.43,4.02,5.43,4.02,-4.01,-3.98,-3.95,1.42,1.42,1.41
156.88,5.37,3.96,5.37,3.97,-3.96,-3.93,-3.87,1.41,1.41,1.40
158.44,5.31,3.91,5.31,3.91,-3.91,-3.88,-3.79,1.40,1.40,1.40
160.03,5.24,3.85,5.24,3.85,-3.86,-3.83,-3.71,1.38,1.38,1.39
161.63,5.18,3.80,5.18,3.80,-3.81,-3.79,-3.63,1.37,1.37,1.38
163.24,5.12,3.75,5.12,3.75,-3.76,-3.74,-3.56,1.36,1.36,1.37
164.88,5.06,3.71,5.06,3.71,-3.71,-3.69,-3.48,1.35,1.35,1.35
166.53,5.00,3.66,5.00,3.66,-3.66,-3.64,-3.41,1.33,1.33,1.34
168.19,4.93,3.61,4.93,3.62,-3.62,-3.60,-3.34,1.32,1.32,1.32
169.87,4.87,3.58,4.87,3.57,-3.57,-3.55,-3.27,1.30,1.30,1.30
171.57,4.80,3.53,4.80,3.53,-3.53,-3.50,-3.21,1.28,1.28,1.27
173.29,4.74,3.49,4.74,3.49,-3.48,-3.45,-3.14,1.25,1.25,1.25
175.02,4.66,3.44,4.67,3.44,-3.44,-3.41,-3.08,1.23,1.23,1.22
176.77,4.60,3.39,4.60,3.39,-3.39,-3.36,-3.02,1.20,1.20,1.20
178.54,4.53,3.34,4.53,3.34,-3.34,-3.31,-2.97,1.18,1.18,1.18
180.32,4.46,3.30,4.46,3.29,-3.29,-3.27,-2.91,1.16,1.16,1.16
182.13,4.38,3.24,4.38,3.24,-3.25,-3.22,-2.86,1.14,1.14,1.14
183.95,4.31,3.19,4.31,3.19,-3.20,-3.18,-2.81,1.11,1.11,1.12
185.79,4.23,3.14,4.23,3.14,-3.15,-3.13,-2.76,1.09,1.09,1.10
187.65,4.16,3.08,4.16,3.09,-3.09,-3.09,-2.72,1.07,1.07,1.08
189.52,4.09,3.04,4.09,3.04,-3.03,-3.04,-2.68,1.06,1.06,1.05
191.42,4.02,2.99,4.02,2.99,-2.96,-3.00,-2.63,1.06,1.06,1.04
193.33,3.94,2.93,3.94,2.93,-2.89,-2.95,-2.59,1.05,1.05,1.02
195.27,3.85,2.85,3.84,2.84,-2.82,-2.91,-2.56,1.03,1.02,0.99
197.22,3.73,2.75,3.73,2.75,-2.75,-2.86,-2.52,0.98,0.98,0.98
199.19,3.62,2.65,3.63,2.66,-2.69,-2.82,-2.49,0.93,0.94,0.97
201.18,3.55,2.59,3.55,2.59,-2.63,-2.77,-2.45,0.91,0.92,0.96
203.19,3.50,2.54,3.50,2.55,-2.58,-2.73,-2.42,0.91,0.92,0.95
205.23,3.48,2.53,3.47,2.53,-2.54,-2.69,-2.39,0.94,0.93,0.95
207.28,3.46,2.52,3.45,2.52,-2.51,-2.65,-2.36,0.95,0.94,0.93
209.35,3.43,2.51,3.42,2.51,-2.48,-2.60,-2.34,0.94,0.94,0.91
211.44,3.38,2.49,3.38,2.49,-2.47,-2.56,-2.31,0.92,0.92,0.90
213.56,3.34,2.46,3.34,2.46,-2.45,-2.52,-2.28,0.88,0.89,0.88
215.69,3.29,2.43,3.29,2.43,-2.44,-2.48,-2.26,0.85,0.85,0.86
217.85,3.25,2.41,3.25,2.41,-2.43,-2.44,-2.24,0.82,0.82,0.84
220.03,3.22,2.40,3.22,2.40,-2.41,-2.40,-2.21,0.81,0.81,0.82
222.23,3.20,2.40,3.20,2.39,-2.40,-2.36,-2.19,0.80,0.80,0.80
224.45,3.18,2.39,3.18,2.39,-2.39,-2.31,-2.17,0.79,0.79,0.79
226.70,3.15,2.39,3.15,2.38,-2.37,-2.28,-2.14,0.78,0.78,0.77
228.96,3.12,2.37,3.12,2.37,-2.36,-2.24,-2.12,0.76,0.76,0.75
231.25,3.07,2.34,3.07,2.34,-2.33,-2.20,-2.10,0.74,0.74,0.73
233.57,3.02,2.31,3.02,2.31,-2.30,-2.16,-2.07,0.72,0.72,0.71
235.90,2.97,2.27,2.97,2.27,-2.27,-2.12,-2.05,0.70,0.70,0.69
238.26,2.90,2.23,2.90,2.23,-2.23,-2.08,-2.02,0.67,0.67,0.68
240.64,2.84,2.18,2.84,2.18,-2.19,-2.04,-2.00,0.66,0.66,0.66
243.05,2.78,2.14,2.78,2.14,-2.14,-2.00,-1.97,0.64,0.64,0.64
245.48,2.72,2.09,2.72,2.09,-2.10,-1.97,-1.95,0.62,0.62,0.63
247.93,2.66,2.05,2.66,2.05,-2.05,-1.93,-1.92,0.60,0.61,0.61
250.41,2.60,2.01,2.60,2.01,-2.01,-1.89,-1.89,0.59,0.59,0.59
252.92,2.54,1.97,2.54,1.96,-1.96,-1.86,-1.86,0.57,0.57,0.57
255.45,2.48,1.92,2.48,1.92,-1.92,-1.82,-1.83,0.56,0.56,0.56
258.00,2.42,1.88,2.42,1.88,-1.88,-1.78,-1.80,0.54,0.54,0.54
260.58,2.36,1.84,2.36,1.84,-1.83,-1.75,-1.77,0.52,0.52,0.52
263.19,2.29,1.79,2.30,1.79,-1.79,-1.71,-1.73,0.50,0.50,0.50
265.82,2.24,1.75,2.24,1.75,-1.75,-1.68,-1.70,0.49,0.49,0.49
268.48,2.18,1.71,2.18,1.71,-1.71,-1.64,-1.66,0.47,0.47,0.47
271.16,2.12,1.67,2.12,1.67,-1.67,-1.61,-1.63,0.45,0.45,0.46
273.87,2.07,1.63,2.07,1.63,-1.63,-1.57,-1.59,0.44,0.44,0.44
276.61,2.01,1.59,2.01,1.59,-1.59,-1.54,-1.55,0.42,0.42,0.42
279.38,1.95,1.55,1.95,1.55,-1.55,-1.50,-1.51,0.41,0.41,0.40
282.17,1.90,1.51,1.90,1.51,-1.51,-1.47,-1.47,0.39,0.39,0.39
284.99,1.84,1.47,1.84,1.47,-1.47,-1.44,-1.44,0.37,0.37,0.37
287.84,1.79,1.43,1.79,1.43,-1.44,-1.40,-1.40,0.35,0.35,0.36
290.72,1.73,1.39,1.73,1.39,-1.40,-1.37,-1.36,0.33,0.34,0.34
293.63,1.68,1.36,1.68,1.36,-1.36,-1.34,-1.32,0.32,0.32,0.32
296.57,1.63,1.33,1.63,1.33,-1.32,-1.31,-1.28,0.31,0.31,0.31
299.53,1.58,1.29,1.58,1.29,-1.29,-1.27,-1.24,0.29,0.29,0.29
302.53,1.53,1.25,1.53,1.25,-1.25,-1.24,-1.20,0.28,0.28,0.27
305.55,1.47,1.21,1.47,1.21,-1.21,-1.21,-1.16,0.26,0.26,0.26
308.61,1.42,1.17,1.42,1.17,-1.17,-1.18,-1.12,0.24,0.24,0.24
311.69,1.36,1.14,1.36,1.14,-1.14,-1.15,-1.08,0.22,0.22,0.22
314.81,1.31,1.10,1.31,1.10,-1.10,-1.12,-1.04,0.21,0.21,0.21
317.96,1.25,1.06,1.25,1.06,-1.06,-1.08,-1.00,0.19,0.19,0.19
321.14,1.20,1.02,1.20,1.02,-1.02,-1.05,-0.96,0.18,0.18,0.18
324.35,1.15,0.99,1.15,0.99,-0.99,-1.02,-0.92,0.16,0.16,0.16
327.59,1.10,0.95,1.10,0.95,-0.95,-0.99,-0.88,0.15,0.15,0.15
330.87,1.05,0.92,1.05,0.92,-0.92,-0.96,-0.84,0.13,0.13,0.13
334.18,1.00,0.89,1.00,0.89,-0.89,-0.93,-0.81,0.12,0.12,0.12
337.52,0.96,0.85,0.96,0.85,-0.85,-0.90,-0.77,0.10,0.10,0.10
340.90,0.91,0.82,0.91,0.82,-0.82,-0.87,-0.73,0.09,0.09,0.08
344.30,0.86,0.79,0.86,0.79,-0.79,-0.84,-0.70,0.07,0.07,0.07
347.75,0.82,0.76,0.82,0.76,-0.76,-0.81,-0.66,0.06,0.06,0.06
351.23,0.77,0.73,0.77,0.73,-0.73,-0.78,-0.63,0.04,0.04,0.04
354.74,0.72,0.70,0.72,0.70,-0.70,-0.75,-0.59,0.02,0.02,0.02
358.28,0.68,0.67,0.68,0.67,-0.67,-0.72,-0.56,0.01,0.01,0.01
361.87,0.63,0.64,0.63,0.64,-0.64,-0.69,-0.52,-0.01,-0.01,-0.00
365.49,0.59,0.61,0.59,0.61,-0.61,-0.66,-0.49,-0.02,-0.02,-0.02
369.14,0.55,0.58,0.55,0.58,-0.58,-0.63,-0.45,-0.04,-0.04,-0.04
372.83,0.50,0.55,0.50,0.55,-0.55,-0.60,-0.42,-0.05,-0.05,-0.05
376.56,0.46,0.53,0.46,0.53,-0.53,-0.57,-0.39,-0.06,-0.06,-0.06
380.33,0.42,0.50,0.42,0.50,-0.50,-0.54,-0.36,-0.08,-0.08,-0.08
384.13,0.38,0.47,0.38,0.47,-0.47,-0.51,-0.32,-0.09,-0.09,-0.09
387.97,0.34,0.44,0.34,0.44,-0.44,-0.48,-0.29,-0.11,-0.11,-0.11
391.85,0.30,0.42,0.30,0.42,-0.42,-0.45,-0.26,-0.12,-0.12,-0.12
395.77,0.25,0.39,0.25,0.39,-0.39,-0.42,-0.23,-0.13,-0.13,-0.14
399.73,0.21,0.36,0.21,0.36,-0.36,-0.40,-0.20,-0.15,-0.15,-0.15
403.72,0.17,0.33,0.17,0.33,-0.33,-0.37,-0.17,-0.16,-0.16,-0.16
407.76,0.13,0.30,0.13,0.30,-0.30,-0.34,-0.14,-0.18,-0.18,-0.18
411.84,0.09,0.28,0.09,0.28,-0.28,-0.31,-0.11,-0.19,-0.19,-0.19
415.96,0.05,0.25,0.05,0.25,-0.25,-0.28,-0.08,-0.20,-0.20,-0.20
420.12,0.00,0.22,0.00,0.22,-0.22,-0.25,-0.05,-0.22,-0.22,-0.22
424.32,-0.04,0.19,-0.04,0.19,-0.19,-0.22,-0.02,-0.23,-0.23,-0.23
428.56,-0.08,0.17,-0.08,0.17,-0.17,-0.19,0.01,-0.24,-0.24,-0.24
432.85,-0.11,0.14,-0.11,0.14,-0.14,-0.17,0.03,-0.26,-0.26,-0.26
437.18,-0.15,0.12,-0.15,0.12,-0.12,-0.14,0.06,-0.27,-0.27,-0.27
441.55,-0.18,0.10,-0.18,0.10,-0.10,-0.11,0.09,-0.28,-0.28,-0.28
445.96,-0.22,0.07,-0.22,0.07,-0.07,-0.08,0.11,-0.29,-0.29,-0.29
450.42,-0.25,0.05,-0.26,0.05,-0.05,-0.05,0.14,-0.30,-0.30,-0.31
454.93,-0.29,0.03,-0.29,0.03,-0.03,-0.03,0.16,-0.32,-0.32,-0.32
459.48,-0.33,0.00,-0.33,0.00,-0.00,0.00,0.18,-0.33,-0.33,-0.33
464.07,-0.36,-0.02,-0.36,-0.02,0.02,0.03,0.21,-0.34,-0.34,-0.34
468.71,-0.40,-0.04,-0.40,-0.04,0.04,0.05,0.23,-0.35,-0.35,-0.35
473.40,-0.43,-0.07,-0.43,-0.07,0.07,0.08,0.25,-0.36,-0.36,-0.36
478.13,-0.47,-0.09,-0.47,-0.09,0.09,0.11,0.27,-0.37,-0.37,-0.37
482.91,-0.50,-0.11,-0.50,-0.11,0.11,0.13,0.29,-0.39,-0.39,-0.39
487.74,-0.54,-0.14,-0.54,-0.14,0.14,0.16,0.31,-0.40,-0.40,-0.40
492.62,-0.57,-0.16,-0.57,-0.16,0.16,0.18,0.33,-0.41,-0.41,-0.41
497.55,-0.60,-0.18,-0.60,-0.18,0.18,0.20,0.34,-0.42,-0.42,-0.42
502.52,-0.63,-0.20,-0.63,-0.20,0.20,0.23,0.36,-0.43,-0.43,-0.43
507.55,-0.66,-0.22,-0.66,-0.22,0.22,0.25,0.37,-0.44,-0.44,-0.44
512.62,-0.69,-0.24,-0.69,-0.24,0.24,0.27,0.39,-0.45,-0.45,-0.45
