frequency,raw,error,smoothed,error_smoothed,equalization,parametric_eq,fixed_band_eq,equalized_raw,equalized_smoothed,target
20.00,5.79,-6.71,5.79,-6.71,6.00,5.96,2.29,11.79,11.79,12.50
20.20,5.83,-6.65,5.83,-6.65,6.00,5.98,2.36,11.83,11.83,12.48
20.40,5.86,-6.60,5.86,-6.60,6.00,6.01,2.43,11.86,11.86,12.46
20.61,5.89,-6.55,5.89,-6.55,6.00,6.02,2.50,11.89,11.89,12.44
20.81,5.92,-6.50,5.92,-6.50,6.00,6.04,2.57,11.92,11.92,12.42
21.02,5.95,-6.45,5.95,-6.45,6.00,6.04,2.65,11.95,11.95,12.40
21.23,5.98,-6.41,5.98,-6.41,6.00,6.04,2.73,11.98,11.98,12.39
21.44,6.01,-6.37,6.01,-6.37,6.00,6.04,2.81,12.01,12.01,12.37
21.66,6.03,-6.33,6.03,-6.32,6.00,6.03,2.89,12.03,12.03,12.36
21.87,6.06,-6.28,6.06,-6.28,6.00,6.02,2.97,12.06,12.06,12.34
22.09,6.08,-6.24,6.08,-6.24,6.01,6.01,3.06,12.09,12.09,12.33
22.31,6.11,-6.20,6.11,-6.20,6.01,5.99,3.15,12.12,12.12,12.31
22.54,6.13,-6.16,6.13,-6.16,6.01,5.97,3.24,12.14,12.14,12.29
22.76,6.15,-6.11,6.15,-6.11,6.00,5.95,3.33,12.16,12.16,12.26
22.99,6.18,-6.06,6.18,-6.06,5.99,5.93,3.42,12.17,12.17,12.24
23.22,6.20,-6.01,6.20,-6.01,5.97,5.91,3.52,12.17,12.17,12.21
23.45,6.22,-5.97,6.22,-5.97,5.95,5.88,3.62,12.17,12.17,12.19
23.69,6.24,-5.92,6.24,-5.92,5.92,5.85,3.73,12.16,12.16,12.16
23.92,6.26,-5.88,6.26,-5.88,5.89,5.82,3.83,12.15,12.15,12.14
24.16,6.28,-5.84,6.28,-5.84,5.85,5.79,3.93,12.13,12.13,12.12
24.40,6.30,-5.80,6.30,-5.80,5.80,5.76,4.04,12.11,12.11,12.10
24.65,6.32,-5.75,6.32,-5.75,5.76,5.72,4.15,12.08,12.08,12.08
24.89,6.34,-5.71,6.34,-5.71,5.71,5.69,4.26,12.06,12.06,12.06
25.14,6.36,-5.67,6.36,-5.67,5.67,5.65,4.37,12.03,12.03,12.03
25.39,6.38,-5.63,6.38,-5.63,5.62,5.61,4.48,12.01,12.01,12.01
25.65,6.40,-5.58,6.40,-5.58,5.58,5.57,4.60,11.99,11.99,11.98
25.91,6.42,-5.54,6.42,-5.54,5.54,5.53,4.71,11.96,11.96,11.96
26.16,6.44,-5.49,6.44,-5.49,5.49,5.49,4.82,11.94,11.94,11.94
26.43,6.46,-5.45,6.46,-5.45,5.45,5.45,4.93,11.91,11.91,11.91
26.69,6.48,-5.41,6.48,-5.41,5.41,5.41,5.04,11.89,11.89,11.89
26.96,6.50,-5.36,6.50,-5.36,5.36,5.37,5.15,11.86,11.86,11.86
27.23,6.52,-5.32,6.52,-5.32,5.32,5.32,5.26,11.84,11.84,11.84
27.50,6.54,-5.28,6.54,-5.28,5.27,5.28,5.36,11.81,11.81,11.81
27.77,6.56,-5.23,6.56,-5.23,5.23,5.23,5.46,11.78,11.78,11.79
28.05,6.57,-5.18,6.57,-5.18,5.18,5.19,5.56,11.76,11.75,11.76
28.33,6.59,-5.14,6.59,-5.14,5.14,5.14,5.65,11.72,11.72,11.73
28.62,6.61,-5.09,6.61,-5.09,5.09,5.10,5.73,11.69,11.69,11.69
28.90,6.62,-5.04,6.62,-5.04,5.04,5.05,5.81,11.66,11.66,11.66
29.19,6.64,-4.99,6.64,-4.99,5.00,5.01,5.88,11.63,11.63,11.63
29.48,6.65,-4.95,6.65,-4.95,4.95,4.96,5.95,11.60,11.60,11.60
29.78,6.66,-4.91,6.66,-4.91,4.91,4.92,6.00,11.57,11.57,11.57
30.08,6.68,-4.87,6.68,-4.87,4.87,4.87,6.05,11.55,11.55,11.54
30.38,6.69,-4.83,6.69,-4.83,4.83,4.83,6.09,11.52,11.52,11.52
30.68,6.70,-4.79,6.70,-4.79,4.78,4.78,6.11,11.49,11.49,11.49
30.99,6.71,-4.75,6.71,-4.75,4.74,4.74,6.13,11.46,11.46,11.46
31.30,6.72,-4.70,6.72,-4.70,4.70,4.69,6.14,11.42,11.42,11.43
31.61,6.74,-4.66,6.73,-4.66,4.66,4.65,6.14,11.39,11.39,11.39
31.93,6.74,-4.61,6.74,-4.61,4.61,4.60,6.13,11.36,11.36,11.35
32.24,6.75,-4.56,6.75,-4.56,4.56,4.56,6.11,11.32,11.32,11.32
32.57,6.76,-4.51,6.76,-4.52,4.52,4.51,6.07,11.28,11.28,11.28
32.89,6.77,-4.47,6.77,-4.47,4.47,4.47,6.04,11.24,11.24,11.24
33.22,6.78,-4.42,6.78,-4.42,4.42,4.42,5.99,11.20,11.20,11.20
33.55,6.79,-4.38,6.79,-4.38,4.38,4.38,5.93,11.16,11.16,11.17
33.89,6.80,-4.33,6.80,-4.33,4.33,4.33,5.87,11.12,11.13,11.13
34.23,6.80,-4.29,6.80,-4.29,4.28,4.29,5.80,11.09,11.09,11.09
34.57,6.81,-4.24,6.81,-4.24,4.24,4.25,5.72,11.05,11.05,11.05
34.92,6.82,-4.19,6.82,-4.19,4.20,4.20,5.64,11.01,11.01,11.01
35.27,6.83,-4.15,6.83,-4.15,4.16,4.16,5.55,10.98,10.98,10.97
35.62,6.83,-4.11,6.83,-4.11,4.12,4.12,5.46,10.95,10.95,10.94
35.97,6.84,-4.08,6.84,-4.08,4.08,4.08,5.36,10.92,10.92,10.91
36.33,6.84,-4.05,6.84,-4.05,4.04,4.03,5.27,10.89,10.89,10.89
36.70,6.85,-4.02,6.85,-4.02,4.01,3.99,5.17,10.85,10.85,10.87
37.06,6.85,-3.98,6.85,-3.98,3.97,3.95,5.07,10.82,10.82,10.84
37.43,6.86,-3.94,6.86,-3.94,3.92,3.91,4.97,10.78,10.78,10.79
37.81,6.86,-3.88,6.86,-3.88,3.88,3.87,4.87,10.74,10.74,10.75
38.19,6.86,-3.83,6.86,-3.83,3.84,3.83,4.77,10.70,10.70,10.69
38.57,6.87,-3.78,6.87,-3.78,3.79,3.78,4.66,10.66,10.66,10.65
38.95,6.87,-3.74,6.87,-3.74,3.75,3.74,4.56,10.62,10.62,10.61
39.34,6.87,-3.70,6.87,-3.70,3.71,3.70,4.47,10.58,10.58,10.57
39.74,6.87,-3.67,6.87,-3.67,3.67,3.66,4.37,10.54,10.54,10.54
40.14,6.87,-3.63,6.87,-3.63,3.63,3.62,4.27,10.50,10.50,10.50
40.54,6.87,-3.59,6.87,-3.60,3.60,3.58,4.18,10.47,10.47,10.47
40.94,6.87,-3.56,6.87,-3.56,3.56,3.54,4.09,10.43,10.43,10.43
41.35,6.87,-3.53,6.87,-3.53,3.52,3.50,4.00,10.39,10.39,10.39
41.76,6.87,-3.49,6.87,-3.49,3.48,3.46,3.91,10.35,10.35,10.36
42.18,6.86,-3.45,6.86,-3.45,3.44,3.42,3.82,10.30,10.30,10.32
42.60,6.86,-3.41,6.86,-3.40,3.40,3.38,3.74,10.26,10.26,10.27
43.03,6.86,-3.35,6.86,-3.35,3.35,3.34,3.66,10.21,10.21,10.21
43.46,6.85,-3.30,6.85,-3.30,3.31,3.30,3.58,10.16,10.16,10.15
43.90,6.85,-3.25,6.85,-3.25,3.26,3.27,3.51,10.11,10.11,10.10
44.33,6.84,-3.20,6.84,-3.21,3.22,3.23,3.43,10.06,10.06,10.05
44.78,6.84,-3.17,6.84,-3.17,3.17,3.19,3.37,10.01,10.01,10.01
45.23,6.83,-3.14,6.83,-3.14,3.13,3.15,3.30,9.96,9.96,9.97
45.68,6.82,-3.10,6.82,-3.10,3.09,3.11,3.23,9.91,9.91,9.92
46.13,6.81,-3.06,6.82,-3.06,3.05,3.07,3.17,9.87,9.87,9.87
46.60,6.81,-3.01,6.81,-3.01,3.02,3.03,3.11,9.82,9.82,9.82
47.06,6.80,-2.97,6.80,-2.97,2.98,3.00,3.05,9.78,9.78,9.77
47.53,6.79,-2.93,6.79,-2.94,2.95,2.96,3.00,9.74,9.74,9.72
48.01,6.78,-2.91,6.78,-2.91,2.92,2.92,2.95,9.70,9.70,9.69
48.49,6.77,-2.89,6.77,-2.89,2.88,2.88,2.90,9.66,9.66,9.66
48.97,6.76,-2.86,6.76,-2.86,2.85,2.85,2.85,9.61,9.61,9.62
49.46,6.75,-2.84,6.75,-2.83,2.82,2.81,2.81,9.57,9.57,9.59
49.96,6.74,-2.79,6.74,-2.79,2.78,2.77,2.76,9.52,9.52,9.53
50.46,6.73,-2.75,6.73,-2.75,2.75,2.74,2.72,9.48,9.48,9.48
50.96,6.72,-2.70,6.72,-2.70,2.71,2.70,2.68,9.42,9.43,9.42
51.47,6.70,-2.66,6.70,-2.66,2.67,2.66,2.64,9.37,9.37,9.36
51.99,6.69,-2.62,6.69,-2.62,2.63,2.63,2.61,9.32,9.32,9.31
52.51,6.68,-2.59,6.68,-2.58,2.58,2.59,2.57,9.26,9.26,9.26
53.03,6.67,-2.55,6.67,-2.55,2.55,2.56,2.54,9.21,9.21,9.21
53.56,6.65,-2.51,6.65,-2.51,2.51,2.52,2.51,9.16,9.16,9.16
54.10,6.64,-2.47,6.64,-2.47,2.47,2.49,2.48,9.11,9.11,9.11
54.64,6.62,-2.44,6.62,-2.44,2.44,2.45,2.45,9.07,9.07,9.06
55.18,6.61,-2.41,6.61,-2.41,2.41,2.42,2.42,9.02,9.02,9.01
55.74,6.59,-2.38,6.59,-2.38,2.38,2.38,2.39,8.97,8.97,8.97
56.29,6.58,-2.35,6.58,-2.35,2.35,2.35,2.36,8.93,8.93,8.93
56.86,6.56,-2.32,6.56,-2.32,2.32,2.32,2.33,8.88,8.88,8.88
57.42,6.55,-2.29,6.55,-2.29,2.29,2.28,2.31,8.84,8.84,8.84
58.00,6.53,-2.26,6.53,-2.26,2.26,2.25,2.28,8.79,8.79,8.79
58.58,6.51,-2.23,6.51,-2.23,2.23,2.22,2.25,8.75,8.75,8.74
59.16,6.50,-2.20,6.50,-2.20,2.20,2.18,2.23,8.70,8.70,8.70
59.76,6.48,-2.17,6.48,-2.17,2.17,2.15,2.20,8.65,8.65,8.65
60.35,6.46,-2.14,6.46,-2.14,2.14,2.12,2.17,8.60,8.60,8.60
60.96,6.44,-2.11,6.44,-2.11,2.11,2.09,2.15,8.55,8.55,8.55
61.57,6.42,-2.08,6.42,-2.08,2.08,2.06,2.12,8.50,8.50,8.50
62.18,6.40,-2.04,6.40,-2.04,2.04,2.03,2.09,8.44,8.44,8.44
62.80,6.38,-2.01,6.38,-2.01,2.01,2.00,2.06,8.39,8.39,8.39
63.43,6.36,-1.97,6.36,-1.97,1.97,1.97,2.03,8.33,8.33,8.33
64.07,6.34,-1.94,6.34,-1.94,1.94,1.94,2.00,8.28,8.28,8.28
64.71,6.32,-1.90,6.32,-1.90,1.90,1.91,1.97,8.22,8.22,8.22
65.35,6.30,-1.87,6.30,-1.87,1.87,1.88,1.94,8.17,8.17,8.17
66.01,6.27,-1.84,6.27,-1.84,1.84,1.85,1.91,8.12,8.12,8.11
66.67,6.25,-1.81,6.25,-1.81,1.82,1.82,1.88,8.07,8.07,8.06
67.33,6.23,-1.79,6.23,-1.79,1.79,1.80,1.85,8.02,8.02,8.02
68.01,6.20,-1.76,6.20,-1.76,1.76,1.77,1.81,7.97,7.97,7.97
68.69,6.18,-1.74,6.18,-1.74,1.74,1.74,1.78,7.92,7.92,7.92
69.37,6.15,-1.71,6.15,-1.71,1.71,1.71,1.75,7.86,7.86,7.87
70.07,6.13,-1.69,6.13,-1.69,1.69,1.69,1.72,7.81,7.81,7.81
70.77,6.10,-1.66,6.10,-1.66,1.66,1.66,1.68,7.76,7.76,7.76
71.48,6.07,-1.64,6.07,-1.64,1.64,1.64,1.65,7.71,7.71,7.71
72.19,6.04,-1.61,6.04,-1.61,1.61,1.61,1.62,7.65,7.65,7.65
72.91,6.01,-1.59,6.01,-1.59,1.59,1.59,1.58,7.60,7.60,7.60
73.64,5.98,-1.57,5.98,-1.57,1.56,1.56,1.55,7.55,7.55,7.55
74.38,5.95,-1.54,5.95,-1.54,1.54,1.54,1.52,7.49,7.49,7.49
75.12,5.92,-1.52,5.92,-1.52,1.52,1.52,1.49,7.44,7.44,7.44
75.87,5.88,-1.49,5.88,-1.50,1.50,1.49,1.46,7.38,7.38,7.38
76.63,5.85,-1.47,5.85,-1.47,1.48,1.47,1.42,7.33,7.33,7.32
77.40,5.81,-1.46,5.81,-1.46,1.46,1.45,1.39,7.27,7.27,7.27
78.17,5.78,-1.44,5.78,-1.44,1.44,1.43,1.36,7.22,7.22,7.22
78.95,5.74,-1.43,5.74,-1.43,1.42,1.40,1.33,7.16,7.16,7.17
79.74,5.70,-1.41,5.70,-1.41,1.41,1.38,1.30,7.11,7.11,7.11
80.54,5.66,-1.39,5.66,-1.39,1.40,1.36,1.28,7.06,7.06,7.06
81.35,5.62,-1.38,5.62,-1.38,1.38,1.34,1.25,7.01,7.00,7.00
82.16,5.58,-1.37,5.58,-1.37,1.37,1.32,1.22,6.95,6.95,6.95
82.98,5.54,-1.36,5.54,-1.36,1.36,1.30,1.19,6.90,6.90,6.90
83.81,5.50,-1.36,5.50,-1.36,1.36,1.28,1.17,6.85,6.85,6.85
84.65,5.45,-1.35,5.45,-1.35,1.35,1.26,1.14,6.80,6.80,6.80
85.50,5.41,-1.34,5.41,-1.34,1.34,1.25,1.12,6.75,6.75,6.75
86.35,5.37,-1.33,5.37,-1.33,1.33,1.23,1.09,6.70,6.70,6.70
87.22,5.33,-1.32,5.33,-1.32,1.32,1.21,1.07,6.64,6.65,6.65
88.09,5.29,-1.30,5.29,-1.30,1.30,1.19,1.05,6.59,6.59,6.59
88.97,5.25,-1.29,5.25,-1.29,1.29,1.18,1.03,6.54,6.54,6.54
89.86,5.21,-1.27,5.21,-1.27,1.27,1.16,1.01,6.48,6.48,6.48
90.76,5.18,-1.25,5.18,-1.25,1.25,1.14,0.99,6.43,6.43,6.43
91.66,5.14,-1.23,5.14,-1.23,1.23,1.13,0.97,6.38,6.37,6.37
92.58,5.11,-1.21,5.11,-1.21,1.21,1.11,0.95,6.32,6.32,6.32
93.51,5.08,-1.19,5.08,-1.19,1.19,1.10,0.93,6.27,6.27,6.27
94.44,5.05,-1.17,5.05,-1.17,1.17,1.08,0.91,6.22,6.22,6.22
95.39,5.02,-1.15,5.02,-1.15,1.15,1.07,0.89,6.17,6.17,6.17
96.34,4.99,-1.13,4.99,-1.13,1.13,1.05,0.88,6.12,6.12,6.13
97.30,4.97,-1.11,4.97,-1.11,1.11,1.04,0.86,6.07,6.07,6.08
98.28,4.94,-1.08,4.94,-1.08,1.08,1.03,0.85,6.02,6.02,6.02
99.26,4.92,-1.06,4.92,-1.06,1.06,1.01,0.83,5.97,5.97,5.97
100.25,4.89,-1.03,4.89,-1.03,1.04,1.00,0.82,5.93,5.93,5.92
101.25,4.86,-1.01,4.86,-1.01,1.01,0.99,0.81,5.88,5.88,5.87
102.27,4.84,-0.99,4.84,-0.99,0.99,0.98,0.79,5.83,5.83,5.83
103.29,4.81,-0.97,4.81,-0.97,0.97,0.97,0.78,5.77,5.77,5.78
104.32,4.78,-0.94,4.78,-0.94,0.94,0.95,0.77,5.72,5.72,5.73
105.37,4.75,-0.92,4.75,-0.92,0.92,0.94,0.76,5.67,5.67,5.67
106.42,4.72,-0.90,4.72,-0.90,0.90,0.93,0.75,5.62,5.62,5.62
107.48,4.69,-0.88,4.69,-0.88,0.88,0.92,0.74,5.57,5.57,5.57
108.56,4.66,-0.86,4.66,-0.86,0.86,0.91,0.73,5.52,5.52,5.52
109.64,4.63,-0.84,4.63,-0.84,0.84,0.90,0.72,5.47,5.47,5.47
110.74,4.59,-0.82,4.59,-0.82,0.83,0.89,0.71,5.42,5.42,5.42
111.85,4.56,-0.81,4.56,-0.81,0.81,0.89,0.70,5.37,5.37,5.37
112.97,4.52,-0.80,4.52,-0.80,0.80,0.88,0.70,5.33,5.33,5.32
114.10,4.49,-0.79,4.49,-0.79,0.79,0.87,0.69,5.28,5.28,5.28
115.24,4.45,-0.79,4.45,-0.79,0.78,0.86,0.68,5.23,5.23,5.24
116.39,4.41,-0.78,4.41,-0.78,0.78,0.85,0.68,5.19,5.19,5.19
117.55,4.37,-0.78,4.37,-0.78,0.77,0.85,0.67,5.14,5.14,5.15
118.73,4.33,-0.77,4.33,-0.77,0.76,0.84,0.67,5.10,5.10,5.10
119.92,4.29,-0.76,4.29,-0.76,0.76,0.83,0.66,5.05,5.05,5.05
121.12,4.25,-0.75,4.25,-0.75,0.75,0.82,0.66,5.00,5.00,5.00
122.33,4.21,-0.74,4.21,-0.74,0.74,0.82,0.65,4.95,4.95,4.95
123.55,4.17,-0.73,4.17,-0.73,0.73,0.81,0.65,4.90,4.90,4.90
124.79,4.13,-0.72,4.13,-0.72,0.72,0.81,0.65,4.85,4.85,4.85
126.03,4.09,-0.72,4.09,-0.72,0.72,0.80,0.64,4.80,4.80,4.80
127.29,4.04,-0.71,4.04,-0.71,0.71,0.80,0.64,4.76,4.76,4.75
128.57,4.00,-0.71,4.00,-0.71,0.71,0.79,0.64,4.71,4.71,4.71
129.85,3.96,-0.71,3.96,-0.71,0.71,0.79,0.64,4.67,4.67,4.67
131.15,3.92,-0.71,3.92,-0.71,0.71,0.78,0.63,4.62,4.62,4.63
132.46,3.87,-0.71,3.87,-0.71,0.71,0.78,0.63,4.58,4.58,4.58
133.79,3.83,-0.71,3.83,-0.71,0.71,0.78,0.63,4.54,4.54,4.54
135.12,3.79,-0.71,3.79,-0.71,0.71,0.77,0.63,4.50,4.50,4.50
136.48,3.75,-0.71,3.75,-0.71,0.71,0.77,0.63,4.46,4.46,4.46
137.84,3.71,-0.71,3.71,-0.71,0.71,0.77,0.63,4.41,4.41,4.42
139.22,3.67,-0.71,3.67,-0.71,0.70,0.77,0.63,4.37,4.37,4.37
140.61,3.62,-0.70,3.62,-0.70,0.70,0.76,0.64,4.33,4.33,4.33
142.02,3.58,-0.70,3.58,-0.70,0.70,0.76,0.64,4.28,4.28,4.28
143.44,3.54,-0.69,3.54,-0.69,0.70,0.76,0.64,4.24,4.24,4.23
144.87,3.50,-0.69,3.50,-0.69,0.70,0.76,0.64,4.20,4.20,4.19
146.32,3.46,-0.69,3.46,-0.69,0.70,0.76,0.65,4.16,4.16,4.16
147.78,3.42,-0.70,3.42,-0.70,0.69,0.76,0.65,4.11,4.11,4.12
149.26,3.38,-0.70,3.38,-0.70,0.69,0.76,0.65,4.07,4.07,4.08
150.75,3.34,-0.70,3.34,-0.69,0.69,0.76,0.66,4.03,4.03,4.04
152.26,3.30,-0.69,3.30,-0.69,0.69,0.76,0.66,3.99,3.99,3.99
153.78,3.26,-0.69,3.26,-0.69,0.69,0.76,0.67,3.95,3.95,3.95
155.32,3.22,-0.68,3.22,-0.69,0.69,0.76,0.68,3.91,3.91,3.90
156.88,3.18,-0.68,3.18,-0.68,0.68,0.76,0.68,3.86,3.86,3.86
158.44,3.14,-0.68,3.14,-0.68,0.68,0.76,0.69,3.82,3.82,3.82
160.03,3.10,-0.68,3.10,-0.68,0.68,0.76,0.70,3.78,3.78,3.78
161.63,3.06,-0.68,3.06,-0.68,0.68,0.77,0.71,3.74,3.74,3.74
163.24,3.02,-0.68,3.02,-0.68,0.68,0.77,0.71,3.70,3.70,3.70
164.88,2.98,-0.68,2.98,-0.68,0.68,0.77,0.72,3.66,3.66,3.66
166.53,2.94,-0.68,2.94,-0.68,0.68,0.77,0.73,3.62,3.62,3.62
168.19,2.90,-0.68,2.90,-0.68,0.68,0.78,0.74,3.58,3.58,3.58
169.87,2.86,-0.68,2.86,-0.68,0.69,0.78,0.75,3.55,3.55,3.54
171.57,2.82,-0.69,2.82,-0.69,0.69,0.78,0.77,3.51,3.51,3.51
173.29,2.78,-0.70,2.78,-0.70,0.70,0.79,0.78,3.48,3.48,3.48
175.02,2.74,-0.70,2.74,-0.70,0.70,0.79,0.79,3.44,3.44,3.44
176.77,2.70,-0.71,2.70,-0.71,0.71,0.80,0.80,3.41,3.41,3.41
178.54,2.66,-0.71,2.66,-0.71,0.71,0.80,0.82,3.37,3.37,3.37
180.32,2.62,-0.72,2.62,-0.72,0.72,0.81,0.83,3.34,3.34,3.34
182.13,2.58,-0.73,2.58,-0.73,0.73,0.81,0.85,3.30,3.30,3.31
183.95,2.53,-0.74,2.53,-0.73,0.73,0.82,0.86,3.27,3.27,3.27
185.79,2.49,-0.74,2.49,-0.74,0.74,0.82,0.88,3.23,3.23,3.23
187.65,2.45,-0.74,2.45,-0.74,0.74,0.83,0.89,3.19,3.19,3.19
189.52,2.41,-0.75,2.41,-0.75,0.75,0.84,0.91,3.16,3.16,3.16
191.42,2.37,-0.76,2.37,-0.75,0.76,0.84,0.93,3.12,3.12,3.12
193.33,2.32,-0.76,2.32,-0.76,0.76,0.85,0.94,3.09,3.08,3.09
195.27,2.28,-0.77,2.28,-0.77,0.77,0.86,0.96,3.05,3.05,3.05
197.22,2.24,-0.78,2.24,-0.78,0.78,0.87,0.98,3.02,3.01,3.01
199.19,2.19,-0.79,2.19,-0.79,0.79,0.87,1.00,2.98,2.98,2.98
201.18,2.15,-0.80,2.15,-0.80,0.80,0.88,1.02,2.95,2.95,2.95
203.19,2.11,-0.81,2.11,-0.81,0.81,0.89,1.04,2.92,2.92,2.92
205.23,2.07,-0.82,2.07,-0.82,0.82,0.90,1.06,2.88,2.88,2.88
207.28,2.02,-0.83,2.02,-0.83,0.83,0.91,1.08,2.85,2.85,2.85
209.35,1.98,-0.84,1.98,-0.84,0.84,0.92,1.10,2.82,2.82,2.82
211.44,1.94,-0.85,1.94,-0.85,0.85,0.93,1.12,2.79,2.79,2.79
213.56,1.89,-0.87,1.89,-0.87,0.86,0.94,1.14,2.76,2.76,2.76
215.69,1.85,-0.88,1.85,-0.88,0.88,0.95,1.16,2.72,2.72,2.73
217.85,1.80,-0.89,1.80,-0.89,0.89,0.96,1.18,2.69,2.69,2.69
220.03,1.76,-0.90,1.76,-0.90,0.90,0.97,1.20,2.66,2.66,2.66
222.23,1.72,-0.91,1.72,-0.91,0.91,0.98,1.22,2.63,2.63,2.63
224.45,1.68,-0.92,1.68,-0.92,0.92,0.99,1.24,2.60,2.60,2.60
226.70,1.63,-0.93,1.63,-0.93,0.93,1.00,1.25,2.56,2.56,2.57
228.96,1.59,-0.94,1.59,-0.94,0.94,1.02,1.27,2.53,2.53,2.53
231.25,1.55,-0.95,1.55,-0.95,0.95,1.03,1.29,2.50,2.50,2.50
233.57,1.51,-0.97,1.51,-0.97,0.97,1.04,1.30,2.47,2.47,2.47
235.90,1.46,-0.98,1.46,-0.98,0.98,1.05,1.32,2.44,2.44,2.45
238.26,1.42,-1.00,1.42,-1.00,1.00,1.06,1.33,2.42,2.42,2.42
240.64,1.38,-1.01,1.38,-1.02,1.01,1.08,1.34,2.40,2.40,2.40
243.05,1.34,-1.04,1.34,-1.04,1.04,1.09,1.35,2.38,2.38,2.38
245.48,1.30,-1.06,1.30,-1.06,1.07,1.10,1.36,2.37,2.37,2.37
247.93,1.27,-1.09,1.26,-1.09,1.10,1.12,1.37,2.37,2.37,2.36
250.41,1.23,-1.13,1.23,-1.13,1.15,1.13,1.38,2.37,2.37,2.36
252.92,1.19,-1.18,1.19,-1.18,1.19,1.15,1.39,2.38,2.38,2.37
255.45,1.15,-1.24,1.15,-1.24,1.24,1.16,1.39,2.40,2.40,2.39
258.00,1.11,-1.30,1.11,-1.30,1.30,1.17,1.40,2.41,2.41,2.41
260.58,1.08,-1.35,1.08,-1.35,1.35,1.19,1.40,2.43,2.43,2.43
263.19,1.04,-1.41,1.04,-1.41,1.40,1.20,1.41,2.44,2.44,2.45
265.82,1.00,-1.45,1.00,-1.45,1.44,1.22,1.41,2.44,2.44,2.46
268.48,0.97,-1.48,0.97,-1.48,1.47,1.23,1.41,2.44,2.44,2.45
271.16,0.93,-1.50,0.93,-1.50,1.49,1.25,1.41,2.43,2.43,2.43
273.87,0.90,-1.51,0.90,-1.51,1.51,1.27,1.41,2.41,2.41,2.41
276.61,0.86,-1.52,0.86,-1.52,1.52,1.28,1.41,2.38,2.38,2.38
279.38,0.82,-1.52,0.82,-1.52,1.52,1.30,1.41,2.35,2.35,2.34
282.17,0.79,-1.52,0.79,-1.52,1.52,1.31,1.40,2.31,2.31,2.30
284.99,0.75,-1.51,0.75,-1.51,1.52,1.33,1.40,2.27,2.27,2.26
287.84,0.72,-1.51,0.72,-1.51,1.52,1.34,1.40,2.23,2.23,2.23
290.72,0.68,-1.51,0.68,-1.51,1.51,1.36,1.40,2.19,2.19,2.19
293.63,0.65,-1.51,0.65,-1.51,1.51,1.37,1.39,2.16,2.16,2.16
296.57,0.61,-1.51,0.61,-1.51,1.51,1.39,1.39,2.12,2.12,2.12
299.53,0.58,-1.51,0.58,-1.51,1.52,1.41,1.39,2.09,2.09,2.09
302.53,0.54,-1.52,0.54,-1.52,1.52,1.42,1.39,2.06,2.06,2.06
305.55,0.51,-1.52,0.51,-1.52,1.53,1.44,1.39,2.03,2.03,2.03
308.61,0.48,-1.53,0.48,-1.53,1.53,1.45,1.39,2.01,2.01,2.01
311.69,0.44,-1.54,0.44,-1.54,1.54,1.47,1.39,1.98,1.98,1.98
314.81,0.41,-1.55,0.41,-1.55,1.54,1.48,1.39,1.95,1.95,1.96
317.96,0.38,-1.55,0.38,-1.55,1.55,1.50,1.39,1.93,1.93,1.93
321.14,0.35,-1.56,0.35,-1.56,1.56,1.51,1.40,1.90,1.90,1.90
324.35,0.31,-1.56,0.31,-1.56,1.56,1.53,1.40,1.87,1.87,1.87
327.59,0.28,-1.56,0.28,-1.56,1.56,1.54,1.40,1.85,1.85,1.85
330.87,0.25,-1.57,0.25,-1.57,1.56,1.56,1.41,1.82,1.82,1.82
334.18,0.22,-1.57,0.22,-1.57,1.57,1.57,1.42,1.79,1.79,1.79
337.52,0.19,-1.57,0.19,-1.57,1.57,1.59,1.42,1.76,1.76,1.76
340.90,0.16,-1.57,0.16,-1.57,1.57,1.60,1.43,1.73,1.73,1.73
344.30,0.13,-1.57,0.13,-1.57,1.57,1.61,1.44,1.70,1.70,1.70
347.75,0.10,-1.58,0.10,-1.58,1.58,1.63,1.45,1.68,1.68,1.68
351.23,0.07,-1.58,0.07,-1.58,1.58,1.64,1.47,1.65,1.65,1.65
354.74,0.04,-1.59,0.04,-1.59,1.59,1.65,1.48,1.63,1.63,1.63
358.28,0.01,-1.60,0.01,-1.60,1.60,1.66,1.49,1.61,1.61,1.61
361.87,-0.02,-1.61,-0.02,-1.61,1.61,1.67,1.51,1.59,1.59,1.59
365.49,-0.05,-1.63,-0.05,-1.63,1.63,1.68,1.53,1.58,1.58,1.58
369.14,-0.08,-1.64,-0.08,-1.64,1.64,1.69,1.55,1.56,1.56,1.56
372.83,-0.11,-1.65,-0.11,-1.65,1.65,1.70,1.56,1.55,1.55,1.55
376.56,-0.13,-1.66,-0.13,-1.67,1.67,1.71,1.58,1.53,1.53,1.53
380.33,-0.16,-1.68,-0.16,-1.68,1.68,1.72,1.61,1.52,1.52,1.52
384.13,-0.19,-1.69,-0.19,-1.69,1.69,1.73,1.63,1.50,1.50,1.50
387.97,-0.22,-1.71,-0.22,-1.70,1.70,1.74,1.65,1.49,1.49,1.49
391.85,-0.24,-1.72,-0.24,-1.72,1.72,1.74,1.67,1.47,1.47,1.47
395.77,-0.27,-1.72,-0.27,-1.72,1.73,1.75,1.70,1.46,1.46,1.46
399.73,-0.30,-1.73,-0.30,-1.73,1.74,1.75,1.72,1.45,1.45,1.44
403.72,-0.32,-1.75,-0.32,-1.75,1.76,1.76,1.75,1.43,1.43,1.42
407.76,-0.35,-1.76,-0.35,-1.76,1.76,1.76,1.77,1.42,1.42,1.41
411.84,-0.37,-1.77,-0.37,-1.77,1.77,1.76,1.80,1.39,1.39,1.40
415.96,-0.40,-1.78,-0.40,-1.78,1.76,1.77,1.83,1.36,1.36,1.38
420.12,-0.42,-1.77,-0.42,-1.77,1.75,1.77,1.85,1.33,1.33,1.35
424.32,-0.45,-1.75,-0.45,-1.75,1.73,1.77,1.88,1.28,1.28,1.31
428.56,-0.47,-1.71,-0.47,-1.71,1.70,1.77,1.91,1.23,1.23,1.24
432.85,-0.49,-1.67,-0.49,-1.67,1.68,1.77,1.93,1.18,1.18,1.18
437.18,-0.52,-1.62,-0.52,-1.63,1.65,1.77,1.96,1.13,1.13,1.11
441.55,-0.54,-1.60,-0.54,-1.60,1.62,1.77,1.98,1.09,1.09,1.06
445.96,-0.56,-1.59,-0.56,-1.59,1.61,1.77,2.00,1.05,1.04,1.03
450.42,-0.58,-1.59,-0.58,-1.59,1.60,1.76,2.03,1.01,1.01,1.00
454.93,-0.60,-1.59,-0.60,-1.59,1.59,1.76,2.05,0.99,0.99,0.99
459.48,-0.63,-1.60,-0.63,-1.60,1.60,1.75,2.06,0.97,0.97,0.97
464.07,-0.65,-1.61,-0.65,-1.61,1.60,1.75,2.08,0.95,0.95,0.96
468.71,-0.67,-1.62,-0.67,-1.62,1.61,1.74,2.10,0.94,0.94,0.95
473.40,-0.69,-1.62,-0.69,-1.62,1.61,1.74,2.11,0.92,0.92,0.93
478.13,-0.71,-1.62,-0.71,-1.62,1.61,1.73,2.12,0.90,0.90,0.91
482.91,-0.73,-1.61,-0.73,-1.61,1.61,1.72,2.13,0.88,0.88,0.89
487.74,-0.75,-1.61,-0.75,-1.61,1.61,1.71,2.13,0.86,0.86,0.86
492.62,-0.77,-1.60,-0.77,-1.60,1.61,1.70,2.14,0.84,0.84,0.84
497.55,-0.79,-1.60,-0.79,-1.60,1.60,1.69,2.14,0.82,0.82,0.81
502.52,-0.80,-1.59,-0.80,-1.59,1.60,1.68,2.13,0.79,0.79,0.79
507.55,-0.82,-1.59,-0.82,-1.59,1.59,1.67,2.13,0.77,0.77,0.77
512.62,-0.84,-1.58,-0.84,-1.58,1.59,1.66,2.12,0.75,0.75,0.75
517.75,-0.85,-1.58,-0.85,-1.58,1.58,1.65,2.11,0.73,0.73,0.73
522.93,-0.87,-1.58,-0.87,-1.58,1.57,1.64,2.10,0.71,0.71,0.71
528.16,-0.88,-1.57,-0.88,-1.57,1.57,1.63,2.08,0.69,0.69,0.69
533.44,-0.89,-1.56,-0.89,-1.56,1.56,1.61,2.06,0.67,0.67,0.67
538.77,-0.91,-1.55,-0.91,-1.55,1.55,1.60,2.04,0.65,0.65,0.65
544.16,-0.92,-1.54,-0.92,-1.54,1.54,1.59,2.02,0.63,0.63,0.62
