frequency,raw,error,smoothed,error_smoothed,equalization,parametric_eq,fixed_band_eq,equalized_raw,equalized_smoothed,target
20.00,5.52,-6.62,5.52,-6.64,5.99,5.54,2.68,11.52,11.52,12.14
20.20,5.56,-6.40,5.56,-6.37,5.98,5.83,2.76,11.54,11.54,11.96
20.40,5.61,-6.19,5.61,-6.16,5.96,6.11,2.84,11.57,11.57,11.79
20.61,5.65,-5.99,5.65,-5.99,5.95,6.32,2.92,11.60,11.60,11.63
20.81,5.69,-5.86,5.69,-5.86,5.94,6.53,3.00,11.63,11.63,11.54
21.02,5.73,-5.81,5.73,-5.81,5.94,6.59,3.09,11.66,11.66,11.54
21.23,5.77,-5.84,5.77,-5.86,5.94,6.65,3.18,11.70,11.70,11.61
21.44,5.81,-5.99,5.81,-6.00,5.94,6.56,3.27,11.75,11.75,11.80
21.66,5.85,-6.20,5.85,-6.19,5.95,6.48,3.37,11.80,11.80,12.05
21.87,5.89,-6.41,5.89,-6.40,5.97,6.32,3.46,11.86,11.86,12.30
22.09,5.93,-6.58,5.93,-6.58,6.01,6.16,3.56,11.94,11.94,12.51
22.31,5.97,-6.70,5.97,-6.69,6.05,6.00,3.67,12.02,12.02,12.67
22.54,6.01,-6.72,6.01,-6.72,6.05,5.85,3.77,12.06,12.06,12.73
22.76,6.05,-6.65,6.05,-6.64,6.01,5.72,3.88,12.06,12.06,12.70
22.99,6.08,-6.47,6.08,-6.46,5.93,5.60,3.99,12.02,12.02,12.56
23.22,6.12,-6.20,6.12,-6.21,5.84,5.51,4.10,11.96,11.96,12.32
23.45,6.15,-5.91,6.15,-5.92,5.74,5.43,4.22,11.89,11.89,12.06
23.69,6.18,-5.64,6.18,-5.64,5.64,5.38,4.33,11.82,11.82,11.82
23.92,6.21,-5.41,6.21,-5.43,5.55,5.33,4.45,11.76,11.76,11.63
24.16,6.24,-5.29,6.24,-5.31,5.48,5.30,4.58,11.73,11.73,11.54
24.40,6.28,-5.28,6.28,-5.28,5.44,5.27,4.70,11.72,11.72,11.56
24.65,6.31,-5.34,6.31,-5.34,5.43,5.26,4.83,11.74,11.74,11.66
24.89,6.35,-5.45,6.35,-5.45,5.44,5.25,4.95,11.79,11.79,11.80
25.14,6.38,-5.55,6.38,-5.55,5.47,5.25,5.08,11.86,11.86,11.94
25.39,6.42,-5.64,6.42,-5.62,5.52,5.26,5.21,11.94,11.94,12.06
25.65,6.45,-5.65,6.45,-5.65,5.56,5.26,5.35,12.01,12.01,12.10
25.91,6.48,-5.63,6.48,-5.62,5.56,5.27,5.48,12.04,12.04,12.11
26.16,6.51,-5.56,6.51,-5.56,5.54,5.29,5.61,12.05,12.05,12.07
26.43,6.53,-5.48,6.53,-5.49,5.50,5.30,5.74,12.03,12.03,12.01
26.69,6.55,-5.41,6.55,-5.41,5.45,5.32,5.87,12.01,12.01,11.96
26.96,6.58,-5.35,6.58,-5.35,5.40,5.33,6.00,11.98,11.98,11.93
27.23,6.60,-5.32,6.60,-5.32,5.36,5.35,6.12,11.96,11.96,11.92
27.50,6.62,-5.32,6.62,-5.31,5.33,5.37,6.24,11.95,11.95,11.94
27.77,6.64,-5.32,6.64,-5.32,5.32,5.38,6.36,11.96,11.96,11.97
28.05,6.67,-5.33,6.66,-5.33,5.31,5.40,6.47,11.98,11.98,12.00
28.33,6.69,-5.34,6.69,-5.34,5.32,5.41,6.57,12.01,12.01,12.03
28.62,6.71,-5.35,6.71,-5.35,5.34,5.43,6.68,12.05,12.05,12.06
28.90,6.73,-5.36,6.73,-5.36,5.37,5.44,6.77,12.11,12.11,12.09
29.19,6.75,-5.38,6.75,-5.38,5.41,5.45,6.85,12.16,12.16,12.14
29.48,6.78,-5.41,6.78,-5.42,5.45,5.47,6.92,12.23,12.23,12.19
29.78,6.80,-5.46,6.80,-5.47,5.49,5.48,6.99,12.29,12.29,12.26
30.08,6.82,-5.52,6.82,-5.52,5.52,5.49,7.04,12.35,12.35,12.34
30.38,6.84,-5.57,6.84,-5.57,5.55,5.50,7.08,12.39,12.39,12.42
30.68,6.87,-5.61,6.87,-5.60,5.55,5.51,7.11,12.42,12.42,12.48
30.99,6.89,-5.60,6.89,-5.60,5.54,5.52,7.13,12.43,12.43,12.49
31.30,6.91,-5.56,6.91,-5.56,5.51,5.53,7.13,12.43,12.43,12.48
31.61,6.94,-5.50,6.94,-5.49,5.47,5.54,7.13,12.40,12.40,12.43
31.93,6.96,-5.41,6.96,-5.41,5.42,5.56,7.11,12.38,12.38,12.36
32.24,6.98,-5.33,6.98,-5.33,5.37,5.57,7.08,12.35,12.35,12.31
32.57,7.00,-5.27,7.00,-5.28,5.33,5.58,7.03,12.33,12.33,12.27
32.89,7.02,-5.26,7.02,-5.26,5.30,5.59,6.98,12.33,12.33,12.28
33.22,7.04,-5.28,7.04,-5.28,5.30,5.61,6.91,12.34,12.34,12.32
33.55,7.07,-5.32,7.07,-5.32,5.32,5.63,6.84,12.38,12.38,12.38
33.89,7.08,-5.38,7.08,-5.37,5.36,5.65,6.75,12.44,12.44,12.46
34.23,7.10,-5.43,7.10,-5.43,5.42,5.66,6.66,12.52,12.52,12.53
34.57,7.11,-5.49,7.11,-5.49,5.49,5.69,6.56,12.60,12.60,12.60
34.92,7.12,-5.56,7.12,-5.56,5.57,5.71,6.45,12.69,12.69,12.68
35.27,7.13,-5.63,7.13,-5.63,5.66,5.73,6.34,12.78,12.78,12.76
35.62,7.13,-5.72,7.13,-5.72,5.74,5.75,6.22,12.87,12.87,12.85
35.97,7.14,-5.82,7.14,-5.81,5.81,5.77,6.10,12.95,12.95,12.95
36.33,7.14,-5.90,7.14,-5.90,5.87,5.79,5.98,13.02,13.02,13.04
36.70,7.15,-5.97,7.15,-5.97,5.93,5.80,5.85,13.08,13.08,13.12
37.06,7.16,-6.02,7.16,-6.02,5.98,5.81,5.72,13.13,13.13,13.18
37.43,7.17,-6.04,7.17,-6.04,6.01,5.82,5.59,13.18,13.18,13.21
37.81,7.17,-6.04,7.17,-6.05,6.03,5.81,5.46,13.20,13.20,13.22
38.19,7.18,-6.04,7.18,-6.04,6.03,5.80,5.33,13.21,13.21,13.22
38.57,7.19,-6.02,7.19,-6.02,6.01,5.78,5.20,13.20,13.20,13.21
38.95,7.20,-5.99,7.20,-5.99,5.97,5.75,5.08,13.17,13.17,13.19
39.34,7.21,-5.95,7.21,-5.94,5.91,5.70,4.95,13.12,13.12,13.15
39.74,7.21,-5.87,7.21,-5.87,5.83,5.65,4.82,13.05,13.05,13.09
40.14,7.22,-5.76,7.22,-5.76,5.73,5.58,4.70,12.95,12.95,12.99
40.54,7.23,-5.62,7.23,-5.62,5.61,5.49,4.58,12.84,12.84,12.86
40.94,7.24,-5.46,7.24,-5.46,5.46,5.40,4.46,12.71,12.71,12.70
41.35,7.25,-5.29,7.25,-5.29,5.31,5.30,4.34,12.57,12.57,12.54
41.76,7.26,-5.12,7.26,-5.12,5.15,5.18,4.23,12.42,12.41,12.38
42.18,7.27,-4.96,7.27,-4.96,4.99,5.06,4.11,12.26,12.26,12.23
42.60,7.27,-4.81,7.27,-4.82,4.83,4.93,4.00,12.10,12.10,12.09
43.03,7.27,-4.68,7.27,-4.68,4.67,4.80,3.90,11.94,11.94,11.95
43.46,7.27,-4.54,7.27,-4.54,4.51,4.66,3.79,11.78,11.78,11.82
43.90,7.28,-4.39,7.28,-4.39,4.36,4.52,3.69,11.64,11.64,11.67
44.33,7.28,-4.23,7.28,-4.23,4.22,4.38,3.59,11.51,11.51,11.51
44.78,7.29,-4.07,7.29,-4.07,4.10,4.25,3.50,11.38,11.38,11.35
45.23,7.29,-3.93,7.29,-3.93,3.98,4.11,3.40,11.27,11.27,11.22
45.68,7.29,-3.83,7.29,-3.83,3.87,3.97,3.31,11.16,11.16,11.12
46.13,7.29,-3.76,7.29,-3.75,3.77,3.84,3.22,11.06,11.06,11.04
46.60,7.28,-3.69,7.29,-3.69,3.68,3.71,3.14,10.96,10.97,10.98
47.06,7.29,-3.62,7.29,-3.61,3.59,3.58,3.06,10.87,10.87,10.90
47.53,7.29,-3.53,7.29,-3.53,3.49,3.46,2.98,10.78,10.78,10.82
48.01,7.30,-3.43,7.30,-3.43,3.39,3.34,2.90,10.68,10.68,10.72
48.49,7.30,-3.31,7.30,-3.31,3.27,3.23,2.82,10.58,10.58,10.61
48.97,7.30,-3.17,7.30,-3.17,3.15,3.12,2.75,10.46,10.46,10.48
49.46,7.30,-3.03,7.30,-3.03,3.03,3.01,2.68,10.33,10.33,10.32
49.96,7.28,-2.88,7.28,-2.89,2.92,2.91,2.61,10.20,10.20,10.17
50.46,7.27,-2.77,7.27,-2.77,2.81,2.81,2.54,10.08,10.09,10.04
50.96,7.25,-2.68,7.25,-2.68,2.73,2.71,2.48,9.98,9.98,9.94
51.47,7.24,-2.62,7.24,-2.62,2.66,2.62,2.42,9.89,9.89,9.86
51.99,7.22,-2.57,7.22,-2.58,2.59,2.53,2.35,9.81,9.81,9.79
52.51,7.20,-2.55,7.20,-2.55,2.53,2.44,2.30,9.73,9.73,9.74
53.03,7.17,-2.53,7.17,-2.53,2.48,2.36,2.24,9.65,9.65,9.70
53.56,7.15,-2.49,7.15,-2.48,2.42,2.28,2.18,9.57,9.57,9.64
54.10,7.14,-2.41,7.14,-2.40,2.37,2.20,2.13,9.51,9.51,9.55
54.64,7.14,-2.30,7.14,-2.29,2.31,2.13,2.07,9.45,9.45,9.43
55.18,7.15,-2.17,7.15,-2.19,2.25,2.05,2.02,9.40,9.40,9.32
55.74,7.17,-2.12,7.17,-2.13,2.18,1.98,1.97,9.34,9.34,9.29
56.29,7.18,-2.09,7.18,-2.10,2.09,1.91,1.92,9.27,9.27,9.27
56.86,7.19,-2.09,7.18,-2.06,2.01,1.85,1.87,9.20,9.19,9.27
57.42,7.18,-2.00,7.18,-2.00,1.94,1.78,1.82,9.12,9.12,9.18
58.00,7.17,-1.89,7.17,-1.89,1.87,1.72,1.77,9.05,9.04,9.06
58.58,7.15,-1.76,7.15,-1.76,1.82,1.66,1.73,8.97,8.97,8.91
59.16,7.14,-1.65,7.14,-1.68,1.75,1.60,1.68,8.89,8.89,8.79
59.76,7.12,-1.63,7.12,-1.63,1.67,1.54,1.63,8.79,8.79,8.75
60.35,7.11,-1.61,7.11,-1.61,1.58,1.48,1.59,8.69,8.69,8.72
60.96,7.10,-1.59,7.10,-1.58,1.48,1.43,1.54,8.58,8.58,8.69
61.57,7.09,-1.50,7.09,-1.48,1.39,1.37,1.50,8.49,8.49,8.59
62.18,7.08,-1.34,7.08,-1.34,1.32,1.32,1.45,8.40,8.40,8.42
62.80,7.07,-1.18,7.07,-1.19,1.25,1.27,1.41,8.32,8.32,8.25
63.43,7.06,-1.08,7.06,-1.09,1.18,1.22,1.37,8.24,8.24,8.14
64.07,7.05,-1.02,7.05,-1.04,1.13,1.17,1.32,8.18,8.18,8.07
64.71,7.04,-1.05,7.04,-1.04,1.08,1.12,1.28,8.12,8.12,8.08
65.35,7.02,-1.06,7.02,-1.06,1.05,1.07,1.23,8.07,8.07,8.09
66.01,7.00,-1.08,7.00,-1.07,1.02,1.02,1.19,8.02,8.02,8.09
66.67,6.99,-1.06,6.99,-1.06,0.99,0.98,1.14,7.98,7.98,8.04
67.33,6.97,-1.01,6.97,-1.01,0.95,0.93,1.10,7.92,7.92,7.98
68.01,6.95,-0.95,6.95,-0.94,0.90,0.89,1.06,7.84,7.84,7.89
68.69,6.92,-0.84,6.92,-0.84,0.83,0.84,1.01,7.75,7.75,7.76
69.37,6.89,-0.74,6.89,-0.74,0.77,0.80,0.97,7.65,7.65,7.62
70.07,6.86,-0.63,6.86,-0.64,0.71,0.76,0.92,7.56,7.56,7.49
70.77,6.83,-0.58,6.83,-0.59,0.65,0.71,0.88,7.48,7.48,7.41
71.48,6.80,-0.56,6.80,-0.56,0.61,0.67,0.83,7.41,7.42,7.36
72.19,6.78,-0.57,6.78,-0.57,0.58,0.63,0.79,7.36,7.36,7.35
72.91,6.76,-0.59,6.76,-0.58,0.55,0.59,0.74,7.32,7.32,7.35
73.64,6.75,-0.58,6.75,-0.58,0.52,0.54,0.70,7.27,7.27,7.33
74.38,6.74,-0.55,6.74,-0.54,0.48,0.50,0.66,7.22,7.22,7.29
75.12,6.73,-0.48,6.73,-0.48,0.43,0.46,0.61,7.16,7.16,7.22
75.87,6.72,-0.38,6.72,-0.38,0.37,0.42,0.57,7.09,7.09,7.10
76.63,6.70,-0.28,6.70,-0.28,0.30,0.38,0.52,7.00,7.00,6.97
77.40,6.68,-0.17,6.67,-0.19,0.23,0.34,0.48,6.91,6.91,6.85
78.17,6.65,-0.12,6.65,-0.12,0.16,0.30,0.43,6.81,6.81,6.77
78.95,6.61,-0.08,6.61,-0.08,0.10,0.25,0.39,6.71,6.71,6.69
79.74,6.58,-0.05,6.58,-0.05,0.04,0.21,0.34,6.62,6.62,6.63
80.54,6.54,-0.02,6.54,-0.02,-0.01,0.17,0.30,6.53,6.53,6.56
81.35,6.51,0.02,6.51,0.03,-0.06,0.13,0.25,6.45,6.45,6.48
82.16,6.48,0.08,6.48,0.08,-0.10,0.09,0.21,6.37,6.37,6.40
82.98,6.45,0.13,6.45,0.13,-0.14,0.05,0.16,6.31,6.31,6.32
83.81,6.43,0.19,6.43,0.19,-0.17,0.00,0.12,6.25,6.25,6.24
84.65,6.42,0.24,6.42,0.24,-0.20,-0.04,0.07,6.22,6.22,6.18
85.50,6.42,0.27,6.42,0.26,-0.21,-0.08,0.03,6.21,6.21,6.15
86.35,6.44,0.27,6.44,0.26,-0.22,-0.12,-0.02,6.21,6.22,6.17
87.22,6.48,0.23,6.48,0.24,-0.23,-0.17,-0.06,6.24,6.25,6.24
88.09,6.52,0.20,6.52,0.21,-0.25,-0.21,-0.11,6.28,6.28,6.32
88.97,6.55,0.21,6.55,0.21,-0.27,-0.25,-0.16,6.28,6.28,6.34
89.86,6.56,0.24,6.55,0.24,-0.30,-0.30,-0.20,6.26,6.25,6.32
90.76,6.51,0.31,6.50,0.31,-0.34,-0.34,-0.25,6.16,6.16,6.20
91.66,6.42,0.39,6.42,0.39,-0.40,-0.39,-0.29,6.02,6.02,6.03
92.58,6.31,0.49,6.31,0.48,-0.46,-0.43,-0.34,5.85,5.85,5.82
93.51,6.20,0.56,6.20,0.56,-0.51,-0.48,-0.39,5.68,5.69,5.63
94.44,6.11,0.61,6.11,0.61,-0.57,-0.52,-0.44,5.54,5.54,5.49
95.39,6.04,0.64,6.05,0.64,-0.61,-0.56,-0.48,5.43,5.43,5.40
96.34,6.00,0.65,6.00,0.65,-0.65,-0.61,-0.53,5.35,5.36,5.35
97.30,5.98,0.65,5.98,0.66,-0.67,-0.65,-0.58,5.31,5.31,5.33
98.28,5.97,0.67,5.96,0.67,-0.69,-0.70,-0.63,5.28,5.27,5.30
99.26,5.95,0.69,5.95,0.69,-0.71,-0.74,-0.67,5.24,5.24,5.26
100.25,5.93,0.72,5.92,0.72,-0.72,-0.78,-0.72,5.20,5.20,5.21
101.25,5.89,0.74,5.89,0.74,-0.74,-0.82,-0.77,5.15,5.15,5.14
102.27,5.84,0.77,5.84,0.77,-0.76,-0.86,-0.82,5.08,5.08,5.07
103.29,5.78,0.79,5.78,0.79,-0.78,-0.90,-0.86,5.00,5.00,4.99
104.32,5.72,0.81,5.72,0.81,-0.81,-0.94,-0.91,4.91,4.91,4.91
105.37,5.66,0.83,5.66,0.83,-0.83,-0.98,-0.96,4.83,4.83,4.83
106.42,5.61,0.85,5.61,0.85,-0.85,-1.01,-1.00,4.75,4.75,4.75
107.48,5.56,0.88,5.56,0.88,-0.88,-1.04,-1.05,4.68,4.68,4.68
108.56,5.52,0.91,5.52,0.91,-0.91,-1.07,-1.09,4.61,4.61,4.62
109.64,5.49,0.94,5.49,0.95,-0.95,-1.10,-1.13,4.54,4.54,4.55
110.74,5.46,0.99,5.47,0.99,-1.00,-1.13,-1.17,4.47,4.47,4.47
111.85,5.44,1.05,5.44,1.04,-1.05,-1.15,-1.22,4.39,4.39,4.39
112.97,5.41,1.10,5.41,1.10,-1.10,-1.18,-1.25,4.31,4.31,4.31
114.10,5.38,1.15,5.38,1.15,-1.16,-1.20,-1.29,4.21,4.21,4.23
115.24,5.34,1.21,5.34,1.21,-1.22,-1.22,-1.33,4.12,4.12,4.14
116.39,5.31,1.27,5.31,1.27,-1.28,-1.23,-1.36,4.03,4.03,4.04
117.55,5.27,1.33,5.27,1.33,-1.32,-1.25,-1.39,3.95,3.95,3.94
118.73,5.24,1.37,5.24,1.37,-1.35,-1.26,-1.43,3.89,3.89,3.87
119.92,5.20,1.40,5.20,1.40,-1.36,-1.28,-1.45,3.84,3.84,3.80
121.12,5.16,1.40,5.16,1.40,-1.35,-1.29,-1.48,3.81,3.81,3.76
122.33,5.12,1.38,5.12,1.37,-1.33,-1.30,-1.50,3.79,3.79,3.74
123.55,5.08,1.32,5.08,1.31,-1.31,-1.31,-1.52,3.78,3.78,3.77
124.79,5.04,1.25,5.04,1.25,-1.29,-1.32,-1.54,3.76,3.76,3.80
126.03,5.01,1.20,5.01,1.21,-1.27,-1.33,-1.56,3.73,3.73,3.81
127.29,4.97,1.20,4.97,1.21,-1.27,-1.34,-1.57,3.70,3.70,3.77
128.57,4.93,1.24,4.93,1.25,-1.28,-1.35,-1.58,3.64,3.64,3.68
129.85,4.88,1.31,4.88,1.31,-1.31,-1.36,-1.59,3.57,3.57,3.57
131.15,4.84,1.38,4.84,1.37,-1.35,-1.37,-1.60,3.49,3.49,3.46
132.46,4.80,1.43,4.80,1.43,-1.39,-1.38,-1.60,3.40,3.40,3.37
133.79,4.75,1.46,4.75,1.46,-1.43,-1.39,-1.61,3.32,3.32,3.29
135.12,4.71,1.49,4.71,1.49,-1.47,-1.40,-1.61,3.24,3.24,3.22
136.48,4.66,1.51,4.66,1.51,-1.49,-1.41,-1.61,3.17,3.17,3.15
137.84,4.62,1.52,4.62,1.51,-1.50,-1.42,-1.61,3.11,3.11,3.10
139.22,4.57,1.51,4.57,1.51,-1.52,-1.43,-1.61,3.05,3.05,3.06
140.61,4.52,1.51,4.52,1.51,-1.53,-1.44,-1.60,2.99,2.99,3.02
142.02,4.48,1.51,4.48,1.52,-1.55,-1.46,-1.60,2.93,2.93,2.96
143.44,4.43,1.54,4.43,1.54,-1.58,-1.47,-1.59,2.85,2.85,2.90
144.87,4.39,1.58,4.39,1.58,-1.60,-1.48,-1.59,2.78,2.78,2.80
146.32,4.35,1.64,4.35,1.63,-1.63,-1.50,-1.58,2.72,2.72,2.71
147.78,4.31,1.68,4.30,1.68,-1.65,-1.51,-1.57,2.66,2.66,2.62
149.26,4.26,1.70,4.26,1.70,-1.66,-1.53,-1.57,2.60,2.60,2.56
150.75,4.22,1.70,4.21,1.70,-1.66,-1.55,-1.56,2.56,2.56,2.51
152.26,4.17,1.68,4.17,1.67,-1.65,-1.56,-1.55,2.52,2.52,2.49
153.78,4.12,1.63,4.12,1.63,-1.63,-1.58,-1.55,2.49,2.49,2.49
155.32,4.07,1.58,4.07,1.59,-1.61,-1.60,-1.54,2.46,2.46,2.49
156.88,4.02,1.56,4.02,1.56,-1.59,-1.61,-1.54,2.43,2.43,2.47
158.44,3.98,1.55,3.98,1.55,-1.59,-1.63,-1.53,2.39,2.39,2.42
160.03,3.93,1.56,3.93,1.56,-1.59,-1.65,-1.53,2.34,2.34,2.37
161.63,3.88,1.60,3.88,1.60,-1.61,-1.67,-1.53,2.27,2.27,2.28
163.24,3.84,1.64,3.84,1.64,-1.64,-1.69,-1.52,2.19,2.19,2.20
164.88,3.79,1.69,3.79,1.69,-1.68,-1.70,-1.52,2.11,2.11,2.10
166.53,3.74,1.73,3.74,1.73,-1.72,-1.72,-1.52,2.02,2.02,2.01
168.19,3.69,1.77,3.69,1.77,-1.75,-1.74,-1.53,1.94,1.94,1.92
169.87,3.65,1.80,3.65,1.79,-1.77,-1.76,-1.53,1.87,1.87,1.85
171.57,3.60,1.81,3.60,1.81,-1.79,-1.78,-1.53,1.81,1.81,1.79
173.29,3.55,1.81,3.55,1.81,-1.79,-1.79,-1.54,1.76,1.76,1.74
175.02,3.50,1.80,3.50,1.79,-1.79,-1.81,-1.55,1.71,1.71,1.71
176.77,3.45,1.78,3.45,1.78,-1.79,-1.83,-1.55,1.66,1.66,1.67
178.54,3.40,1.77,3.40,1.77,-1.79,-1.84,-1.56,1.61,1.61,1.63
180.32,3.34,1.77,3.34,1.77,-1.79,-1.86,-1.57,1.56,1.56,1.58
182.13,3.29,1.78,3.29,1.78,-1.80,-1.88,-1.59,1.49,1.49,1.51
183.95,3.23,1.80,3.23,1.80,-1.81,-1.89,-1.60,1.42,1.42,1.43
185.79,3.18,1.83,3.18,1.83,-1.83,-1.91,-1.61,1.35,1.35,1.35
187.65,3.13,1.86,3.13,1.86,-1.86,-1.92,-1.63,1.27,1.27,1.26
189.52,3.08,1.90,3.08,1.90,-1.88,-1.93,-1.65,1.20,1.20,1.18
191.42,3.03,1.92,3.03,1.92,-1.90,-1.95,-1.66,1.13,1.13,1.11
193.33,2.98,1.93,2.98,1.93,-1.92,-1.96,-1.68,1.07,1.07,1.05
195.27,2.94,1.93,2.94,1.93,-1.93,-1.97,-1.70,1.01,1.01,1.01
197.22,2.90,1.93,2.90,1.93,-1.95,-1.98,-1.72,0.95,0.95,0.97
199.19,2.86,1.94,2.86,1.94,-1.96,-1.98,-1.74,0.90,0.90,0.92
201.18,2.82,1.96,2.82,1.96,-1.97,-1.99,-1.76,0.85,0.85,0.86
203.19,2.79,1.98,2.79,1.98,-1.98,-2.00,-1.79,0.81,0.81,0.80
205.23,2.75,2.00,2.75,2.00,-1.99,-2.00,-1.81,0.76,0.76,0.75
207.28,2.71,2.00,2.71,2.00,-1.99,-2.01,-1.83,0.71,0.71,0.70
209.35,2.67,2.00,2.67,2.00,-2.00,-2.01,-1.85,0.67,0.67,0.66
211.44,2.63,2.00,2.63,2.00,-2.00,-2.01,-1.88,0.63,0.63,0.63
213.56,2.58,1.99,2.58,1.99,-2.00,-2.01,-1.90,0.59,0.59,0.59
215.69,2.54,1.99,2.54,1.99,-1.99,-2.01,-1.92,0.55,0.55,0.55
217.85,2.49,1.98,2.49,1.98,-1.98,-2.00,-1.94,0.51,0.51,0.51
220.03,2.44,1.97,2.44,1.97,-1.97,-2.00,-1.96,0.47,0.47,0.47
222.23,2.39,1.96,2.39,1.96,-1.95,-1.99,-1.98,0.43,0.43,0.43
224.45,2.33,1.94,2.33,1.94,-1.94,-1.99,-2.00,0.39,0.39,0.39
226.70,2.28,1.93,2.28,1.93,-1.93,-1.98,-2.01,0.35,0.35,0.36
228.96,2.23,1.91,2.23,1.91,-1.92,-1.97,-2.03,0.32,0.32,0.32
231.25,2.19,1.90,2.19,1.90,-1.91,-1.96,-2.04,0.28,0.28,0.29
233.57,2.14,1.89,2.14,1.89,-1.90,-1.95,-2.05,0.25,0.25,0.25
235.90,2.10,1.89,2.10,1.89,-1.89,-1.93,-2.05,0.21,0.21,0.21
238.26,2.06,1.88,2.06,1.88,-1.88,-1.92,-2.05,0.18,0.18,0.18
240.64,2.01,1.87,2.01,1.87,-1.87,-1.90,-2.05,0.14,0.14,0.14
243.05,1.97,1.86,1.97,1.86,-1.86,-1.88,-2.05,0.11,0.11,0.11
245.48,1.93,1.85,1.93,1.85,-1.85,-1.86,-2.05,0.07,0.07,0.07
247.93,1.88,1.84,1.88,1.84,-1.84,-1.84,-2.04,0.04,0.04,0.04
250.41,1.84,1.83,1.84,1.83,-1.82,-1.82,-2.02,0.02,0.02,0.02
252.92,1.80,1.81,1.80,1.81,-1.80,-1.79,-2.01,-0.00,-0.00,-0.01
255.45,1.75,1.78,1.75,1.78,-1.78,-1.77,-1.99,-0.03,-0.03,-0.03
258.00,1.70,1.75,1.70,1.75,-1.75,-1.74,-1.96,-0.05,-0.05,-0.05
260.58,1.65,1.72,1.65,1.72,-1.72,-1.71,-1.94,-0.07,-0.07,-0.07
263.19,1.60,1.69,1.60,1.69,-1.70,-1.69,-1.91,-0.10,-0.10,-0.09
265.82,1.55,1.66,1.55,1.66,-1.67,-1.66,-1.88,-0.12,-0.12,-0.11
268.48,1.51,1.64,1.51,1.64,-1.64,-1.63,-1.84,-0.14,-0.14,-0.13
271.16,1.46,1.62,1.46,1.62,-1.62,-1.59,-1.80,-0.16,-0.16,-0.15
273.87,1.42,1.60,1.42,1.60,-1.59,-1.56,-1.76,-0.17,-0.17,-0.18
276.61,1.38,1.57,1.38,1.57,-1.57,-1.53,-1.72,-0.19,-0.19,-0.20
279.38,1.33,1.55,1.33,1.55,-1.55,-1.49,-1.67,-0.21,-0.21,-0.22
282.17,1.29,1.52,1.29,1.52,-1.52,-1.46,-1.62,-0.23,-0.23,-0.23
284.99,1.25,1.49,1.25,1.49,-1.49,-1.42,-1.58,-0.24,-0.24,-0.25
287.84,1.20,1.46,1.20,1.46,-1.46,-1.38,-1.52,-0.25,-0.25,-0.25
290.72,1.16,1.42,1.16,1.42,-1.42,-1.35,-1.47,-0.26,-0.26,-0.26
293.63,1.12,1.38,1.12,1.38,-1.38,-1.31,-1.42,-0.27,-0.27,-0.27
296.57,1.07,1.34,1.07,1.34,-1.35,-1.27,-1.36,-0.28,-0.28,-0.27
299.53,1.03,1.30,1.03,1.30,-1.31,-1.23,-1.31,-0.28,-0.28,-0.28
302.53,0.98,1.26,0.98,1.26,-1.27,-1.19,-1.25,-0.28,-0.28,-0.28
305.55,0.94,1.22,0.94,1.22,-1.22,-1.15,-1.19,-0.29,-0.29,-0.29
308.61,0.89,1.18,0.89,1.18,-1.18,-1.11,-1.14,-0.29,-0.29,-0.29
311.69,0.85,1.14,0.85,1.14,-1.13,-1.06,-1.08,-0.28,-0.28,-0.29
314.81,0.80,1.09,0.80,1.09,-1.08,-1.02,-1.02,-0.28,-0.28,-0.28
317.96,0.76,1.03,0.76,1.03,-1.03,-0.98,-0.96,-0.27,-0.27,-0.27
321.14,0.72,0.98,0.72,0.98,-0.98,-0.93,-0.90,-0.26,-0.26,-0.26
324.35,0.67,0.93,0.67,0.93,-0.93,-0.89,-0.84,-0.26,-0.26,-0.25
327.59,0.63,0.87,0.63,0.87,-0.88,-0.85,-0.79,-0.25,-0.25,-0.24
330.87,0.59,0.82,0.59,0.82,-0.82,-0.80,-0.73,-0.24,-0.24,-0.23
334.18,0.55,0.77,0.55,0.77,-0.77,-0.76,-0.67,-0.23,-0.23,-0.22
337.52,0.51,0.72,0.51,0.72,-0.72,-0.71,-0.61,-0.21,-0.21,-0.21
340.90,0.47,0.67,0.47,0.67,-0.67,-0.66,-0.55,-0.20,-0.20,-0.20
344.30,0.43,0.63,0.43,0.63,-0.62,-0.62,-0.50,-0.19,-0.19,-0.19
347.75,0.39,0.58,0.39,0.58,-0.57,-0.57,-0.44,-0.18,-0.18,-0.18
351.23,0.35,0.53,0.35,0.53,-0.52,-0.53,-0.38,-0.17,-0.17,-0.17
354.74,0.31,0.47,0.31,0.47,-0.47,-0.48,-0.32,-0.16,-0.16,-0.16
358.28,0.27,0.42,0.27,0.42,-0.42,-0.43,-0.27,-0.15,-0.15,-0.15
361.87,0.23,0.37,0.23,0.37,-0.37,-0.39,-0.21,-0.14,-0.14,-0.14
365.49,0.19,0.32,0.19,0.32,-0.32,-0.34,-0.15,-0.13,-0.13,-0.13
369.14,0.15,0.27,0.15,0.27,-0.27,-0.29,-0.10,-0.11,-0.11,-0.11
372.83,0.12,0.21,0.12,0.21,-0.21,-0.24,-0.04,-0.10,-0.10,-0.10
376.56,0.08,0.16,0.08,0.16,-0.16,-0.20,0.01,-0.08,-0.08,-0.08
380.33,0.04,0.10,0.04,0.10,-0.10,-0.15,0.07,-0.06,-0.06,-0.06
384.13,-0.00,0.05,-0.00,0.05,-0.04,-0.10,0.12,-0.04,-0.04,-0.05
387.97,-0.04,-0.01,-0.04,-0.01,0.02,-0.05,0.18,-0.03,-0.03,-0.03
391.85,-0.08,-0.08,-0.08,-0.08,0.07,-0.00,0.23,-0.01,-0.01,-0.01
395.77,-0.13,-0.14,-0.13,-0.14,0.13,0.05,0.28,0.01,0.01,0.01
399.73,-0.17,-0.19,-0.16,-0.19,0.19,0.09,0.34,0.03,0.03,0.03
403.72,-0.20,-0.25,-0.20,-0.25,0.25,0.14,0.39,0.04,0.04,0.05
407.76,-0.24,-0.30,-0.24,-0.30,0.30,0.19,0.44,0.06,0.06,0.06
411.84,-0.27,-0.35,-0.27,-0.35,0.35,0.24,0.49,0.08,0.08,0.08
415.96,-0.30,-0.40,-0.30,-0.40,0.40,0.29,0.54,0.10,0.10,0.10
420.12,-0.33,-0.45,-0.33,-0.45,0.45,0.34,0.59,0.11,0.11,0.11
424.32,-0.36,-0.49,-0.36,-0.49,0.49,0.39,0.64,0.13,0.13,0.13
428.56,-0.39,-0.54,-0.39,-0.54,0.54,0.43,0.69,0.14,0.14,0.15
432.85,-0.42,-0.58,-0.42,-0.58,0.58,0.48,0.73,0.16,0.16,0.16
437.18,-0.44,-0.62,-0.44,-0.62,0.61,0.53,0.78,0.18,0.18,0.18
441.55,-0.46,-0.65,-0.46,-0.65,0.65,0.58,0.82,0.19,0.19,0.19
445.96,-0.48,-0.69,-0.48,-0.69,0.69,0.63,0.86,0.21,0.21,0.21
450.42,-0.49,-0.72,-0.49,-0.72,0.72,0.67,0.90,0.23,0.23,0.23
454.93,-0.51,-0.75,-0.51,-0.75,0.75,0.72,0.94,0.25,0.25,0.25
459.48,-0.52,-0.78,-0.52,-0.78,0.79,0.77,0.98,0.26,0.26,0.26
464.07,-0.54,-0.82,-0.54,-0.82,0.82,0.81,1.01,0.28,0.28,0.28
468.71,-0.56,-0.85,-0.56,-0.86,0.86,0.86,1.04,0.30,0.30,0.30
473.40,-0.58,-0.89,-0.58,-0.89,0.90,0.90,1.07,0.32,0.32,0.31
478.13,-0.61,-0.94,-0.61,-0.94,0.94,0.95,1.10,0.33,0.33,0.33
482.91,-0.64,-0.98,-0.64,-0.98,0.98,0.99,1.13,0.34,0.34,0.34
487.74,-0.66,-1.02,-0.66,-1.02,1.02,1.03,1.15,0.35,0.35,0.36
492.62,-0.69,-1.06,-0.69,-1.06,1.06,1.08,1.17,0.36,0.36,0.37
497.55,-0.72,-1.09,-0.72,-1.09,1.09,1.12,1.18,0.38,0.38,0.38
502.52,-0.74,-1.13,-0.74,-1.13,1.13,1.16,1.20,0.39,0.39,0.39
507.55,-0.77,-1.16,-0.77,-1.16,1.16,1.19,1.21,0.39,0.39,0.39
512.62,-0.80,-1.19,-0.80,-1.19,1.19,1.23,1.22,0.40,0.40,0.40
517.75,-0.82,-1.22,-0.82,-1.22,1.22,1.27,1.23,0.40,0.40,0.40
