frequency,raw,error,smoothed,error_smoothed,equalization,parametric_eq,fixed_band_eq,equalized_raw,equalized_smoothed,target
20.00,6.71,-4.64,6.71,-4.64,4.54,4.32,1.61,11.25,11.25,11.35
20.20,6.79,-4.56,6.79,-4.56,4.54,4.38,1.66,11.32,11.33,11.35
20.40,6.85,-4.50,6.86,-4.50,4.54,4.44,1.70,11.39,11.39,11.35
20.61,6.91,-4.44,6.91,-4.47,4.54,4.51,1.75,11.45,11.44,11.35
20.81,6.95,-4.47,6.95,-4.45,4.53,4.57,1.81,11.48,11.48,11.42
21.02,6.97,-4.48,6.97,-4.47,4.53,4.62,1.86,11.50,11.50,11.45
21.23,6.98,-4.48,6.98,-4.50,4.53,4.66,1.91,11.51,11.50,11.46
21.44,6.98,-4.53,6.98,-4.53,4.52,4.67,1.97,11.50,11.50,11.51
21.66,6.97,-4.58,6.97,-4.56,4.54,4.68,2.03,11.51,11.51,11.55
21.87,6.97,-4.58,6.97,-4.58,4.55,4.64,2.09,11.53,11.53,11.55
22.09,6.99,-4.56,6.99,-4.56,4.55,4.61,2.15,11.54,11.54,11.55
22.31,7.02,-4.53,7.02,-4.54,4.53,4.54,2.22,11.55,11.55,11.55
22.54,7.07,-4.49,7.07,-4.51,4.48,4.48,2.28,11.55,11.56,11.56
22.76,7.14,-4.50,7.14,-4.46,4.43,4.41,2.35,11.56,11.57,11.64
22.99,7.22,-4.39,7.22,-4.38,4.36,4.34,2.42,11.58,11.58,11.60
23.22,7.30,-4.25,7.29,-4.28,4.29,4.27,2.49,11.59,11.59,11.55
23.45,7.37,-4.18,7.37,-4.18,4.22,4.20,2.56,11.59,11.59,11.55
23.69,7.43,-4.12,7.43,-4.12,4.16,4.14,2.63,11.59,11.58,11.55
23.92,7.47,-4.08,7.47,-4.08,4.10,4.09,2.70,11.57,11.57,11.55
24.16,7.50,-4.05,7.50,-4.06,4.05,4.04,2.78,11.54,11.54,11.55
24.40,7.51,-4.04,7.51,-4.02,4.01,3.99,2.86,11.52,11.52,11.55
24.65,7.51,-4.00,7.51,-3.99,3.99,3.95,2.93,11.50,11.50,11.51
24.89,7.51,-3.94,7.51,-3.96,3.98,3.91,3.01,11.49,11.49,11.45
25.14,7.51,-3.94,7.51,-3.94,3.97,3.87,3.09,11.48,11.48,11.45
25.39,7.51,-3.94,7.51,-3.94,3.97,3.84,3.17,11.48,11.48,11.45
25.65,7.52,-3.94,7.52,-3.96,3.96,3.81,3.25,11.48,11.48,11.46
25.91,7.54,-3.99,7.54,-3.98,3.95,3.78,3.33,11.49,11.49,11.53
26.16,7.57,-3.98,7.57,-3.97,3.93,3.76,3.41,11.50,11.50,11.55
26.43,7.61,-3.94,7.61,-3.94,3.91,3.73,3.49,11.52,11.52,11.55
26.69,7.67,-3.88,7.67,-3.88,3.87,3.71,3.57,11.54,11.54,11.55
26.96,7.73,-3.82,7.73,-3.82,3.82,3.68,3.64,11.55,11.55,11.55
27.23,7.80,-3.75,7.80,-3.75,3.76,3.66,3.72,11.56,11.56,11.55
27.50,7.86,-3.69,7.86,-3.69,3.69,3.64,3.79,11.56,11.55,11.55
27.77,7.92,-3.63,7.92,-3.63,3.63,3.62,3.86,11.55,11.54,11.55
28.05,7.96,-3.58,7.95,-3.56,3.57,3.60,3.93,11.53,11.53,11.54
28.33,7.98,-3.49,7.98,-3.51,3.53,3.58,3.99,11.51,11.51,11.47
28.62,7.99,-3.46,7.99,-3.47,3.50,3.56,4.05,11.49,11.48,11.45
28.90,7.99,-3.46,7.99,-3.46,3.48,3.54,4.10,11.46,11.46,11.45
29.19,7.98,-3.47,7.98,-3.47,3.46,3.52,4.15,11.45,11.45,11.45
29.48,7.98,-3.47,7.98,-3.47,3.46,3.50,4.20,11.44,11.44,11.45
29.78,7.98,-3.47,7.98,-3.47,3.46,3.48,4.24,11.44,11.44,11.45
30.08,7.98,-3.47,7.99,-3.46,3.46,3.46,4.27,11.45,11.45,11.45
30.38,7.99,-3.46,7.99,-3.46,3.46,3.44,4.30,11.45,11.45,11.45
30.68,7.99,-3.46,7.99,-3.46,3.46,3.42,4.32,11.45,11.45,11.45
30.99,7.99,-3.46,7.99,-3.46,3.44,3.40,4.33,11.44,11.43,11.45
31.30,7.99,-3.46,7.99,-3.44,3.42,3.38,4.34,11.41,11.41,11.45
31.61,8.00,-3.40,8.00,-3.40,3.39,3.36,4.34,11.39,11.39,11.40
31.93,8.01,-3.34,8.01,-3.36,3.35,3.34,4.33,11.36,11.36,11.35
32.24,8.04,-3.31,8.04,-3.31,3.31,3.32,4.32,11.35,11.35,11.35
32.57,8.07,-3.28,8.07,-3.28,3.27,3.30,4.30,11.34,11.34,11.35
32.89,8.11,-3.24,8.11,-3.24,3.24,3.28,4.28,11.35,11.35,11.35
33.22,8.15,-3.20,8.15,-3.20,3.21,3.26,4.25,11.36,11.36,11.35
33.55,8.19,-3.16,8.19,-3.17,3.20,3.24,4.22,11.39,11.39,11.35
33.89,8.23,-3.16,8.23,-3.17,3.20,3.22,4.17,11.42,11.42,11.39
34.23,8.27,-3.19,8.27,-3.18,3.20,3.20,4.13,11.47,11.47,11.46
34.57,8.31,-3.21,8.31,-3.21,3.22,3.18,4.08,11.53,11.53,11.52
34.92,8.35,-3.24,8.35,-3.24,3.24,3.16,4.03,11.59,11.59,11.59
35.27,8.40,-3.26,8.40,-3.27,3.25,3.14,3.97,11.65,11.65,11.66
35.62,8.44,-3.29,8.44,-3.28,3.26,3.12,3.91,11.70,11.70,11.73
35.97,8.47,-3.28,8.47,-3.28,3.25,3.09,3.85,11.73,11.73,11.75
36.33,8.50,-3.25,8.50,-3.26,3.24,3.07,3.79,11.74,11.74,11.75
36.70,8.52,-3.23,8.52,-3.22,3.21,3.05,3.73,11.73,11.73,11.75
37.06,8.53,-3.17,8.53,-3.16,3.17,3.03,3.66,11.70,11.70,11.70
37.43,8.54,-3.09,8.54,-3.10,3.13,3.01,3.59,11.66,11.66,11.63
37.81,8.54,-3.03,8.54,-3.05,3.07,2.98,3.53,11.61,11.61,11.56
38.19,8.54,-3.01,8.54,-3.01,3.01,2.96,3.46,11.55,11.55,11.55
38.57,8.55,-2.98,8.55,-2.96,2.94,2.94,3.39,11.49,11.49,11.52
38.95,8.56,-2.89,8.56,-2.89,2.87,2.92,3.33,11.43,11.43,11.46
39.34,8.59,-2.79,8.59,-2.80,2.79,2.89,3.26,11.38,11.38,11.38
39.74,8.61,-2.70,8.61,-2.71,2.71,2.87,3.20,11.31,11.31,11.31
40.14,8.63,-2.62,8.62,-2.62,2.61,2.85,3.14,11.24,11.24,11.24
40.54,8.63,-2.54,8.63,-2.53,2.52,2.82,3.08,11.15,11.15,11.18
40.94,8.63,-2.44,8.63,-2.44,2.42,2.80,3.02,11.05,11.05,11.07
41.35,8.62,-2.32,8.62,-2.34,2.34,2.78,2.96,10.96,10.96,10.94
41.76,8.62,-2.25,8.62,-2.24,2.27,2.75,2.90,10.89,10.89,10.87
42.18,8.63,-2.17,8.63,-2.18,2.22,2.73,2.85,10.85,10.85,10.80
42.60,8.64,-2.13,8.64,-2.16,2.19,2.70,2.79,10.83,10.83,10.77
43.03,8.66,-2.18,8.66,-2.15,2.17,2.68,2.74,10.83,10.83,10.84
43.46,8.67,-2.18,8.68,-2.18,2.17,2.65,2.69,10.84,10.84,10.85
43.90,8.69,-2.19,8.69,-2.20,2.17,2.63,2.65,10.87,10.87,10.88
44.33,8.71,-2.23,8.71,-2.21,2.19,2.61,2.60,10.90,10.90,10.94
44.78,8.72,-2.23,8.71,-2.23,2.22,2.58,2.56,10.93,10.93,10.95
45.23,8.71,-2.24,8.71,-2.25,2.24,2.56,2.52,10.95,10.95,10.95
45.68,8.69,-2.26,8.69,-2.26,2.27,2.53,2.48,10.96,10.96,10.95
46.13,8.66,-2.29,8.66,-2.28,2.30,2.51,2.44,10.96,10.96,10.95
46.60,8.64,-2.31,8.64,-2.32,2.33,2.48,2.41,10.96,10.97,10.95
47.06,8.62,-2.34,8.62,-2.36,2.36,2.45,2.38,10.98,10.98,10.96
47.53,8.61,-2.41,8.61,-2.40,2.39,2.43,2.35,11.01,11.01,11.03
48.01,8.61,-2.44,8.60,-2.44,2.43,2.40,2.32,11.03,11.03,11.05
48.49,8.59,-2.46,8.59,-2.47,2.46,2.38,2.29,11.05,11.05,11.05
48.97,8.57,-2.48,8.57,-2.49,2.49,2.35,2.26,11.06,11.05,11.05
49.46,8.54,-2.51,8.55,-2.50,2.51,2.33,2.24,11.06,11.06,11.05
49.96,8.53,-2.52,8.53,-2.52,2.53,2.30,2.22,11.06,11.06,11.05
50.46,8.53,-2.52,8.53,-2.52,2.54,2.28,2.20,11.06,11.06,11.05
50.96,8.53,-2.52,8.53,-2.52,2.53,2.25,2.18,11.06,11.06,11.05
51.47,8.54,-2.51,8.54,-2.51,2.49,2.22,2.16,11.04,11.04,11.05
51.99,8.56,-2.49,8.56,-2.48,2.44,2.20,2.14,10.99,10.99,11.05
52.51,8.57,-2.41,8.57,-2.42,2.36,2.17,2.13,10.93,10.93,10.99
53.03,8.59,-2.32,8.60,-2.32,2.26,2.15,2.11,10.86,10.86,10.92
53.56,8.63,-2.21,8.63,-2.19,2.16,2.12,2.09,10.79,10.79,10.83
54.10,8.67,-2.04,8.67,-2.05,2.07,2.09,2.08,10.74,10.74,10.70
54.64,8.70,-1.91,8.70,-1.92,1.99,2.07,2.07,10.69,10.69,10.61
55.18,8.71,-1.82,8.71,-1.82,1.93,2.04,2.05,10.64,10.63,10.54
55.74,8.69,-1.78,8.69,-1.79,1.87,2.02,2.04,10.56,10.56,10.47
56.29,8.65,-1.80,8.65,-1.81,1.83,1.99,2.03,10.47,10.47,10.45
56.86,8.59,-1.86,8.60,-1.85,1.79,1.96,2.01,10.39,10.39,10.45
57.42,8.56,-1.89,8.56,-1.88,1.76,1.94,2.00,10.33,10.33,10.45
58.00,8.54,-1.86,8.54,-1.83,1.75,1.91,1.99,10.28,10.29,10.39
58.58,8.54,-1.77,8.54,-1.75,1.74,1.89,1.97,10.28,10.28,10.31
59.16,8.54,-1.62,8.53,-1.67,1.73,1.86,1.96,10.27,10.27,10.16
59.76,8.53,-1.62,8.52,-1.62,1.72,1.83,1.94,10.25,10.25,10.15
60.35,8.51,-1.64,8.50,-1.63,1.71,1.81,1.92,10.22,10.21,10.15
60.96,8.48,-1.67,8.48,-1.70,1.69,1.78,1.91,10.17,10.17,10.15
61.57,8.46,-1.76,8.46,-1.75,1.68,1.76,1.89,10.14,10.14,10.22
62.18,8.46,-1.79,8.46,-1.77,1.68,1.73,1.87,10.14,10.14,10.25
62.80,8.48,-1.76,8.48,-1.75,1.68,1.71,1.85,10.16,10.16,10.24
63.43,8.50,-1.67,8.50,-1.69,1.69,1.68,1.82,10.19,10.19,10.18
64.07,8.52,-1.63,8.52,-1.65,1.70,1.66,1.80,10.23,10.22,10.15
64.71,8.51,-1.64,8.51,-1.64,1.72,1.63,1.78,10.23,10.23,10.15
65.35,8.48,-1.67,8.48,-1.66,1.74,1.60,1.75,10.22,10.21,10.15
66.01,8.43,-1.72,8.44,-1.72,1.75,1.58,1.73,10.19,10.19,10.15
66.67,8.39,-1.78,8.39,-1.80,1.77,1.55,1.70,10.16,10.16,10.17
67.33,8.36,-1.88,8.36,-1.86,1.79,1.53,1.67,10.14,10.15,10.24
68.01,8.34,-1.91,8.35,-1.89,1.80,1.50,1.64,10.14,10.15,10.25
68.69,8.36,-1.86,8.36,-1.85,1.80,1.48,1.61,10.16,10.16,10.22
69.37,8.38,-1.77,8.38,-1.77,1.79,1.45,1.58,10.17,10.17,10.15
70.07,8.40,-1.68,8.39,-1.71,1.77,1.43,1.55,10.17,10.17,10.08
70.77,8.39,-1.66,8.39,-1.67,1.74,1.40,1.52,10.13,10.13,10.05
71.48,8.36,-1.69,8.36,-1.67,1.70,1.38,1.48,10.06,10.06,10.05
72.19,8.31,-1.67,8.30,-1.68,1.66,1.35,1.45,9.97,9.96,9.98
72.91,8.24,-1.67,8.24,-1.66,1.62,1.33,1.42,9.86,9.86,9.91
73.64,8.19,-1.64,8.19,-1.61,1.57,1.31,1.39,9.76,9.77,9.82
74.38,8.16,-1.53,8.17,-1.55,1.53,1.28,1.35,9.69,9.70,9.69
75.12,8.17,-1.48,8.18,-1.48,1.48,1.26,1.32,9.65,9.66,9.65
75.87,8.23,-1.42,8.23,-1.41,1.43,1.23,1.29,9.66,9.66,9.65
76.63,8.29,-1.36,8.29,-1.35,1.37,1.21,1.26,9.66,9.66,9.65
77.40,8.37,-1.28,8.36,-1.30,1.32,1.19,1.22,9.68,9.68,9.65
78.17,8.40,-1.25,8.40,-1.25,1.27,1.16,1.19,9.68,9.68,9.65
78.95,8.42,-1.23,8.42,-1.22,1.23,1.14,1.16,9.66,9.65,9.65
79.74,8.40,-1.19,8.40,-1.20,1.19,1.12,1.13,9.59,9.59,9.59
80.54,8.35,-1.17,8.35,-1.18,1.15,1.09,1.10,9.50,9.50,9.52
81.35,8.28,-1.17,8.28,-1.15,1.11,1.07,1.07,9.39,9.39,9.45
82.16,8.21,-1.11,8.21,-1.11,1.07,1.05,1.04,9.28,9.29,9.32
82.98,8.14,-1.04,8.14,-1.04,1.04,1.02,1.01,9.19,9.19,9.19
83.81,8.08,-0.97,8.08,-0.98,1.02,1.00,0.98,9.10,9.10,9.05
84.65,8.03,-0.95,8.03,-0.95,1.00,0.98,0.95,9.04,9.04,8.98
85.50,8.00,-0.95,8.00,-0.95,0.99,0.96,0.93,8.99,8.99,8.95
86.35,7.97,-0.98,7.97,-0.98,0.99,0.93,0.90,8.95,8.95,8.95
87.22,7.94,-1.01,7.94,-1.01,0.99,0.91,0.87,8.93,8.93,8.95
88.09,7.91,-1.04,7.91,-1.04,1.01,0.89,0.85,8.92,8.92,8.95
88.97,7.88,-1.05,7.88,-1.04,1.03,0.87,0.82,8.90,8.90,8.93
89.86,7.84,-1.02,7.84,-1.02,1.04,0.85,0.80,8.88,8.87,8.86
90.76,7.80,-1.00,7.79,-1.02,1.03,0.83,0.77,8.82,8.82,8.79
91.66,7.75,-1.00,7.75,-1.02,1.00,0.80,0.75,8.75,8.75,8.75
92.58,7.70,-1.05,7.70,-1.01,0.96,0.78,0.73,8.66,8.66,8.75
93.51,7.66,-0.97,7.66,-0.96,0.91,0.76,0.71,8.57,8.57,8.63
94.44,7.63,-0.86,7.63,-0.87,0.86,0.74,0.69,8.49,8.49,8.49
95.39,7.60,-0.75,7.60,-0.76,0.80,0.72,0.66,8.41,8.41,8.35
96.34,7.59,-0.69,7.59,-0.70,0.75,0.70,0.64,8.34,8.34,8.28
97.30,7.59,-0.66,7.59,-0.66,0.69,0.68,0.62,8.28,8.28,8.25
98.28,7.59,-0.65,7.59,-0.63,0.64,0.66,0.60,8.23,8.23,8.24
99.26,7.60,-0.58,7.60,-0.59,0.59,0.64,0.59,8.19,8.18,8.17
100.25,7.60,-0.55,7.60,-0.56,0.54,0.62,0.57,8.14,8.14,8.15
101.25,7.60,-0.54,7.60,-0.52,0.49,0.60,0.55,8.09,8.09,8.14
102.27,7.60,-0.49,7.60,-0.48,0.45,0.58,0.53,8.05,8.05,8.09
103.29,7.60,-0.42,7.60,-0.41,0.40,0.56,0.51,8.00,8.00,8.02
104.32,7.60,-0.33,7.60,-0.34,0.36,0.54,0.50,7.96,7.96,7.93
105.37,7.60,-0.28,7.60,-0.28,0.32,0.52,0.48,7.92,7.92,7.88
106.42,7.60,-0.25,7.60,-0.26,0.29,0.51,0.47,7.89,7.89,7.85
107.48,7.58,-0.27,7.58,-0.26,0.28,0.49,0.45,7.86,7.86,7.85
108.56,7.56,-0.29,7.56,-0.26,0.27,0.47,0.44,7.83,7.83,7.85
109.64,7.52,-0.26,7.53,-0.28,0.28,0.45,0.42,7.81,7.81,7.79
110.74,7.48,-0.27,7.48,-0.29,0.29,0.43,0.41,7.77,7.77,7.75
111.85,7.41,-0.34,7.41,-0.31,0.30,0.41,0.39,7.72,7.71,7.75
112.97,7.33,-0.32,7.33,-0.34,0.31,0.40,0.38,7.64,7.64,7.65
114.10,7.25,-0.34,7.25,-0.35,0.31,0.38,0.36,7.56,7.56,7.59
115.24,7.18,-0.35,7.18,-0.32,0.30,0.36,0.35,7.48,7.48,7.53
116.39,7.12,-0.29,7.12,-0.29,0.30,0.35,0.34,7.41,7.41,7.41
117.55,7.07,-0.23,7.07,-0.24,0.28,0.33,0.33,7.35,7.35,7.29
118.73,7.04,-0.20,7.04,-0.22,0.25,0.31,0.31,7.30,7.30,7.25
119.92,7.03,-0.22,7.03,-0.22,0.22,0.30,0.30,7.25,7.24,7.25
121.12,7.02,-0.23,7.02,-0.23,0.17,0.28,0.29,7.19,7.19,7.25
122.33,7.02,-0.22,7.02,-0.20,0.14,0.26,0.28,7.15,7.15,7.23
123.55,7.02,-0.15,7.02,-0.13,0.11,0.25,0.26,7.14,7.14,7.17
124.79,7.03,-0.04,7.04,-0.06,0.10,0.23,0.25,7.13,7.14,7.07
126.03,7.05,-0.00,7.05,-0.01,0.10,0.22,0.24,7.15,7.15,7.05
127.29,7.06,-0.01,7.05,-0.02,0.10,0.20,0.23,7.15,7.15,7.06
128.57,7.04,-0.09,7.04,-0.08,0.10,0.19,0.22,7.14,7.13,7.13
129.85,7.00,-0.15,7.01,-0.14,0.10,0.17,0.21,7.10,7.11,7.15
131.15,6.96,-0.18,6.96,-0.18,0.11,0.16,0.20,7.07,7.07,7.14
132.46,6.89,-0.18,6.89,-0.17,0.12,0.14,0.19,7.02,7.02,7.08
133.79,6.82,-0.16,6.82,-0.15,0.14,0.13,0.18,6.95,6.96,6.97
135.12,6.74,-0.10,6.74,-0.12,0.15,0.12,0.17,6.89,6.89,6.84
136.48,6.67,-0.11,6.67,-0.10,0.15,0.10,0.16,6.81,6.82,6.78
137.84,6.61,-0.10,6.61,-0.10,0.14,0.09,0.15,6.74,6.74,6.71
139.22,6.56,-0.09,6.56,-0.11,0.12,0.08,0.14,6.68,6.68,6.65
140.61,6.52,-0.13,6.52,-0.12,0.09,0.06,0.13,6.61,6.61,6.65
142.02,6.48,-0.12,6.48,-0.12,0.07,0.05,0.12,6.55,6.55,6.60
143.44,6.44,-0.09,6.44,-0.09,0.04,0.04,0.11,6.48,6.48,6.53
144.87,6.41,-0.05,6.41,-0.02,0.01,0.03,0.10,6.41,6.41,6.46
146.32,6.38,0.06,6.38,0.03,-0.03,0.01,0.09,6.35,6.35,6.32
147.78,6.35,0.10,6.35,0.09,-0.06,0.00,0.07,6.29,6.30,6.25
149.26,6.33,0.09,6.33,0.12,-0.08,-0.01,0.06,6.25,6.25,6.24
150.75,6.30,0.14,6.30,0.12,-0.08,-0.02,0.05,6.22,6.22,6.16
152.26,6.27,0.12,6.27,0.11,-0.08,-0.03,0.04,6.19,6.19,6.15
153.78,6.23,0.08,6.23,0.09,-0.07,-0.04,0.03,6.17,6.17,6.15
155.32,6.19,0.04,6.19,0.03,-0.05,-0.05,0.02,6.14,6.14,6.15
156.88,6.14,-0.01,6.14,-0.00,-0.03,-0.06,0.01,6.11,6.11,6.15
158.44,6.10,-0.03,6.10,-0.01,-0.03,-0.07,0.00,6.07,6.07,6.13
160.03,6.06,0.01,6.06,-0.01,-0.05,-0.08,-0.01,6.01,6.02,6.05
161.63,6.03,0.04,6.03,0.04,-0.07,-0.09,-0.02,5.96,5.96,6.00
163.24,6.00,0.08,6.01,0.11,-0.11,-0.10,-0.03,5.89,5.89,5.93
164.88,5.98,0.22,5.98,0.18,-0.15,-0.11,-0.04,5.82,5.82,5.76
166.53,5.94,0.24,5.94,0.23,-0.20,-0.12,-0.06,5.74,5.74,5.70
168.19,5.90,0.26,5.90,0.28,-0.24,-0.13,-0.07,5.66,5.66,5.64
169.87,5.85,0.29,5.85,0.30,-0.27,-0.13,-0.08,5.57,5.57,5.56
171.57,5.80,0.33,5.80,0.30,-0.30,-0.14,-0.09,5.50,5.50,5.47
173.29,5.75,0.30,5.75,0.30,-0.32,-0.15,-0.10,5.44,5.44,5.45
175.02,5.71,0.26,5.71,0.30,-0.32,-0.16,-0.12,5.39,5.39,5.45
176.77,5.68,0.32,5.68,0.31,-0.33,-0.16,-0.13,5.35,5.35,5.36
178.54,5.64,0.34,5.64,0.33,-0.33,-0.17,-0.14,5.31,5.31,5.30
180.32,5.60,0.35,5.60,0.33,-0.32,-0.17,-0.16,5.28,5.28,5.25
182.13,5.55,0.30,5.55,0.32,-0.31,-0.18,-0.17,5.24,5.24,5.25
183.95,5.50,0.30,5.50,0.30,-0.29,-0.19,-0.18,5.21,5.21,5.20
185.79,5.45,0.30,5.45,0.28,-0.26,-0.19,-0.20,5.19,5.19,5.15
187.65,5.40,0.25,5.40,0.25,-0.23,-0.20,-0.21,5.17,5.17,5.15
189.52,5.35,0.20,5.35,0.20,-0.20,-0.20,-0.22,5.15,5.15,5.15
191.42,5.31,0.16,5.31,0.15,-0.18,-0.20,-0.24,5.13,5.13,5.15
193.33,5.26,0.11,5.26,0.13,-0.18,-0.21,-0.25,5.09,5.09,5.15
195.27,5.22,0.13,5.22,0.13,-0.18,-0.21,-0.26,5.04,5.04,5.09
197.22,5.17,0.17,5.17,0.16,-0.19,-0.21,-0.28,4.98,4.98,5.01
199.19,5.13,0.19,5.13,0.21,-0.21,-0.22,-0.29,4.92,4.91,4.94
201.18,5.07,0.27,5.07,0.26,-0.23,-0.22,-0.31,4.84,4.84,4.80
203.19,5.02,0.31,5.02,0.30,-0.25,-0.22,-0.32,4.77,4.77,4.71
205.23,4.97,0.32,4.97,0.31,-0.26,-0.22,-0.33,4.71,4.71,4.65
207.28,4.92,0.27,4.92,0.27,-0.26,-0.22,-0.35,4.66,4.66,4.65
209.35,4.87,0.22,4.87,0.23,-0.24,-0.23,-0.36,4.63,4.63,4.65
211.44,4.82,0.19,4.82,0.21,-0.21,-0.23,-0.37,4.61,4.61,4.64
213.56,4.77,0.21,4.77,0.19,-0.18,-0.23,-0.38,4.60,4.60,4.56
215.69,4.72,0.17,4.72,0.16,-0.15,-0.23,-0.39,4.58,4.58,4.55
217.85,4.67,0.12,4.67,0.13,-0.13,-0.22,-0.40,4.54,4.54,4.55
220.03,4.62,0.07,4.62,0.08,-0.13,-0.22,-0.41,4.49,4.49,4.55
222.23,4.57,0.07,4.57,0.07,-0.15,-0.22,-0.42,4.42,4.42,4.49
224.45,4.51,0.09,4.51,0.12,-0.16,-0.22,-0.43,4.35,4.35,4.42
226.70,4.46,0.19,4.46,0.19,-0.18,-0.22,-0.43,4.28,4.28,4.27
228.96,4.40,0.28,4.40,0.26,-0.20,-0.22,-0.44,4.20,4.20,4.12
231.25,4.35,0.30,4.35,0.28,-0.21,-0.21,-0.44,4.14,4.14,4.05
233.57,4.29,0.24,4.29,0.25,-0.22,-0.21,-0.44,4.07,4.07,4.05
235.90,4.24,0.19,4.24,0.21,-0.22,-0.20,-0.44,4.02,4.02,4.05
238.26,4.18,0.17,4.18,0.18,-0.19,-0.20,-0.44,3.99,3.99,4.01
240.64,4.13,0.18,4.13,0.15,-0.16,-0.19,-0.44,3.97,3.97,3.95
243.05,4.07,0.12,4.07,0.11,-0.12,-0.19,-0.43,3.95,3.95,3.95
245.48,4.01,0.06,4.01,0.07,-0.07,-0.18,-0.43,3.94,3.94,3.95
247.93,3.95,0.02,3.95,0.03,-0.04,-0.18,-0.42,3.91,3.91,3.93
250.41,3.89,0.02,3.89,-0.00,-0.01,-0.17,-0.41,3.88,3.88,3.86
252.92,3.83,-0.02,3.83,-0.03,0.01,-0.16,-0.40,3.83,3.84,3.85
255.45,3.76,-0.07,3.76,-0.04,0.03,-0.15,-0.38,3.79,3.79,3.83
258.00,3.70,-0.05,3.70,-0.06,0.05,-0.15,-0.36,3.75,3.75,3.75
260.58,3.64,-0.04,3.64,-0.04,0.06,-0.14,-0.35,3.70,3.70,3.69
263.19,3.58,-0.04,3.58,-0.04,0.08,-0.13,-0.33,3.65,3.65,3.62
265.82,3.51,-0.04,3.51,-0.06,0.09,-0.12,-0.30,3.60,3.60,3.55
268.48,3.45,-0.10,3.45,-0.09,0.10,-0.11,-0.28,3.54,3.54,3.55
271.16,3.38,-0.14,3.38,-0.12,0.10,-0.09,-0.25,3.48,3.48,3.52
273.87,3.32,-0.13,3.32,-0.14,0.11,-0.08,-0.23,3.43,3.43,3.45
276.61,3.26,-0.12,3.26,-0.12,0.11,-0.07,-0.20,3.37,3.37,3.38
279.38,3.21,-0.11,3.21,-0.11,0.11,-0.06,-0.17,3.32,3.32,3.32
282.17,3.17,-0.08,3.17,-0.10,0.10,-0.04,-0.13,3.27,3.27,3.25
284.99,3.14,-0.11,3.14,-0.09,0.09,-0.03,-0.10,3.23,3.23,3.25
287.84,3.12,-0.09,3.12,-0.08,0.09,-0.02,-0.06,3.21,3.21,3.20
290.72,3.10,-0.05,3.10,-0.07,0.09,0.00,-0.03,3.19,3.19,3.15
293.63,3.09,-0.06,3.09,-0.06,0.09,0.02,0.01,3.18,3.18,3.15
296.57,3.07,-0.08,3.07,-0.08,0.09,0.03,0.05,3.16,3.16,3.15
299.53,3.05,-0.10,3.05,-0.11,0.09,0.05,0.08,3.14,3.14,3.15
302.53,3.02,-0.13,3.02,-0.12,0.09,0.07,0.12,3.10,3.10,3.15
305.55,2.98,-0.11,2.98,-0.11,0.08,0.09,0.17,3.06,3.06,3.09
308.61,2.93,-0.09,2.93,-0.09,0.07,0.11,0.21,3.01,3.01,3.02
311.69,2.88,-0.07,2.88,-0.07,0.07,0.13,0.25,2.96,2.96,2.96
314.81,2.83,-0.05,2.83,-0.04,0.08,0.15,0.29,2.91,2.91,2.88
317.96,2.78,-0.03,2.78,-0.03,0.08,0.17,0.34,2.86,2.86,2.81
321.14,2.72,-0.03,2.72,-0.04,0.08,0.19,0.38,2.80,2.80,2.75
324.35,2.67,-0.08,2.67,-0.08,0.08,0.22,0.43,2.75,2.75,2.75
327.59,2.61,-0.14,2.61,-0.13,0.08,0.24,0.47,2.69,2.69,2.75
330.87,2.56,-0.17,2.56,-0.16,0.08,0.26,0.52,2.64,2.64,2.73
334.18,2.50,-0.16,2.50,-0.14,0.10,0.29,0.56,2.61,2.61,2.67
337.52,2.45,-0.10,2.45,-0.10,0.13,0.32,0.61,2.58,2.58,2.55
340.90,2.39,-0.06,2.39,-0.08,0.17,0.34,0.66,2.56,2.56,2.45
344.30,2.34,-0.11,2.34,-0.12,0.20,0.37,0.71,2.54,2.54,2.45
347.75,2.28,-0.22,2.28,-0.22,0.24,0.40,0.76,2.53,2.53,2.51
351.23,2.23,-0.34,2.23,-0.34,0.30,0.43,0.81,2.53,2.53,2.57
354.74,2.18,-0.47,2.18,-0.43,0.37,0.46,0.86,2.55,2.55,2.64
358.28,2.12,-0.46,2.12,-0.47,0.45,0.49,0.91,2.57,2.57,2.58
361.87,2.07,-0.48,2.07,-0.51,0.53,0.53,0.96,2.60,2.60,2.55
365.49,2.01,-0.55,2.01,-0.56,0.60,0.56,1.01,2.61,2.61,2.56
369.14,1.96,-0.66,1.96,-0.66,0.65,0.59,1.07,2.60,2.60,2.62
372.83,1.90,-0.75,1.90,-0.73,0.68,0.63,1.12,2.58,2.58,2.65
376.56,1.85,-0.78,1.85,-0.75,0.70,0.66,1.17,2.55,2.55,2.63
380.33,1.80,-0.71,1.80,-0.74,0.72,0.70,1.23,2.51,2.51,2.51
384.13,1.74,-0.71,1.74,-0.72,0.74,0.74,1.28,2.48,2.48,2.45
387.97,1.69,-0.74,1.69,-0.72,0.76,0.78,1.34,2.45,2.45,2.43
391.85,1.64,-0.73,1.64,-0.74,0.78,0.82,1.40,2.42,2.42,2.37
395.77,1.59,-0.76,1.59,-0.77,0.80,0.86,1.45,2.38,2.38,2.35
399.73,1.54,-0.81,1.54,-0.81,0.82,0.90,1.51,2.36,2.36,2.35
403.72,1.48,-0.87,1.48,-0.86,0.86,0.95,1.57,2.34,2.34,2.35
407.76,1.43,-0.92,1.43,-0.92,0.89,0.99,1.62,2.32,2.32,2.35
411.84,1.38,-0.97,1.38,-0.97,0.93,1.04,1.68,2.31,2.31,2.35
415.96,1.33,-1.02,1.33,-0.99,0.97,1.08,1.74,2.30,2.30,2.35
420.12,1.28,-1.00,1.28,-1.01,1.01,1.13,1.79,2.29,2.29,2.28
424.32,1.23,-1.02,1.23,-1.03,1.05,1.18,1.85,2.29,2.29,2.25
428.56,1.18,-1.07,1.18,-1.06,1.10,1.23,1.90,2.28,2.28,2.25
432.85,1.14,-1.11,1.14,-1.13,1.15,1.28,1.96,2.29,2.29,2.25
437.18,1.09,-1.21,1.09,-1.21,1.21,1.33,2.01,2.30,2.30,2.30
441.55,1.04,-1.31,1.04,-1.29,1.28,1.39,2.06,2.32,2.32,2.35
445.96,0.99,-1.36,0.99,-1.36,1.35,1.44,2.12,2.34,2.34,2.35
450.42,0.94,-1.41,0.94,-1.42,1.42,1.50,2.17,2.36,2.36,2.35
454.93,0.89,-1.47,0.89,-1.50,1.49,1.55,2.21,2.38,2.38,2.37
459.48,0.84,-1.60,0.84,-1.58,1.55,1.61,2.26,2.39,2.39,2.44
464.07,0.79,-1.66,0.79,-1.63,1.60,1.67,2.31,2.40,2.40,2.45
468.71,0.75,-1.68,0.75,-1.67,1.66,1.73,2.35,2.40,2.40,2.43
473.40,0.70,-1.66,0.70,-1.70,1.71,1.79,2.39,2.41,2.41,2.36
478.13,0.66,-1.75,0.66,-1.74,1.78,1.85,2.43,2.43,2.43,2.41
482.91,0.61,-1.84,0.61,-1.81,1.85,1.92,2.46,2.46,2.46,2.45
487.74,0.57,-1.88,0.57,-1.90,1.93,1.98,2.50,2.50,2.50,2.45
492.62,0.52,-1.99,0.52,-2.00,2.01,2.05,2.53,2.53,2.53,2.52
497.55,0.48,-2.11,0.48,-2.11,2.10,2.11,2.56,2.58,2.58,2.59
502.52,0.43,-2.22,0.43,-2.23,2.19,2.18,2.58,2.62,2.62,2.66
507.55,0.39,-2.34,0.39,-2.32,2.28,2.25,2.60,2.67,2.67,2.73
512.62,0.35,-2.40,0.35,-2.39,2.37,2.32,2.62,2.71,2.71,2.75
517.75,0.31,-2.44,0.31,-2.45,2.45,2.39,2.64,2.76,2.76,2.75
522.93,0.26,-2.49,0.26,-2.50,2.54,2.46,2.66,2.80,2.80,2.75
528.16,0.22,-2.58,0.22,-2.58,2.62,2.53,2.67,2.85,2.85,2.80
533.44,0.18,-2.69,0.18,-2.68,2.71,2.60,2.68,2.89,2.89,2.87
