frequency,raw,error,smoothed,error_smoothed,equalization,parametric_eq,fixed_band_eq,equalized_raw,equalized_smoothed,target
20.00,3.68,-0.74,3.67,-0.74,0.74,-0.21,0.03,4.41,4.41,4.42
20.20,3.69,-0.71,3.69,-0.71,0.71,-0.22,0.03,4.40,4.40,4.40
20.40,3.71,-0.68,3.71,-0.68,0.68,-0.22,0.03,4.39,4.39,4.39
20.61,3.73,-0.65,3.73,-0.65,0.65,-0.23,0.04,4.38,4.38,4.38
20.81,3.75,-0.62,3.75,-0.62,0.62,-0.23,0.04,4.37,4.37,4.36
21.02,3.76,-0.59,3.76,-0.59,0.60,-0.24,0.04,4.36,4.36,4.35
21.23,3.77,-0.56,3.77,-0.57,0.57,-0.24,0.04,4.35,4.35,4.34
21.44,3.78,-0.54,3.78,-0.54,0.55,-0.25,0.05,4.33,4.33,4.33
21.66,3.79,-0.53,3.79,-0.53,0.53,-0.25,0.05,4.32,4.32,4.31
21.87,3.79,-0.51,3.79,-0.51,0.51,-0.26,0.05,4.30,4.30,4.30
22.09,3.79,-0.50,3.79,-0.50,0.49,-0.26,0.06,4.28,4.28,4.29
22.31,3.79,-0.48,3.79,-0.48,0.48,-0.27,0.06,4.26,4.26,4.27
22.54,3.79,-0.47,3.79,-0.47,0.46,-0.27,0.06,4.24,4.24,4.25
22.76,3.79,-0.44,3.79,-0.44,0.44,-0.28,0.07,4.23,4.23,4.23
22.99,3.79,-0.42,3.80,-0.42,0.42,-0.28,0.07,4.21,4.21,4.21
23.22,3.81,-0.39,3.81,-0.40,0.40,-0.29,0.08,4.21,4.21,4.20
23.45,3.82,-0.38,3.82,-0.38,0.39,-0.29,0.08,4.21,4.21,4.19
23.69,3.83,-0.36,3.83,-0.36,0.38,-0.30,0.08,4.21,4.21,4.19
23.92,3.84,-0.36,3.84,-0.36,0.37,-0.31,0.09,4.21,4.21,4.20
24.16,3.85,-0.35,3.85,-0.36,0.36,-0.31,0.09,4.21,4.21,4.21
24.40,3.86,-0.35,3.86,-0.35,0.35,-0.32,0.09,4.21,4.21,4.21
24.65,3.86,-0.35,3.86,-0.35,0.33,-0.33,0.10,4.20,4.19,4.21
24.89,3.86,-0.34,3.86,-0.34,0.32,-0.33,0.10,4.18,4.18,4.19
25.14,3.85,-0.31,3.85,-0.31,0.30,-0.34,0.10,4.15,4.15,4.16
25.39,3.84,-0.29,3.84,-0.29,0.29,-0.35,0.11,4.13,4.13,4.13
25.65,3.83,-0.26,3.83,-0.26,0.27,-0.35,0.11,4.10,4.10,4.09
25.91,3.83,-0.23,3.83,-0.23,0.25,-0.36,0.11,4.08,4.08,4.06
26.16,3.83,-0.22,3.83,-0.22,0.23,-0.37,0.12,4.06,4.06,4.04
26.43,3.84,-0.21,3.84,-0.21,0.22,-0.37,0.12,4.05,4.05,4.05
26.69,3.86,-0.21,3.86,-0.21,0.20,-0.38,0.12,4.05,4.05,4.06
26.96,3.88,-0.20,3.88,-0.20,0.19,-0.39,0.12,4.06,4.06,4.08
27.23,3.90,-0.19,3.90,-0.19,0.17,-0.40,0.12,4.07,4.07,4.09
27.50,3.92,-0.17,3.92,-0.17,0.16,-0.41,0.12,4.09,4.08,4.09
27.77,3.94,-0.15,3.94,-0.15,0.16,-0.41,0.12,4.10,4.10,4.08
28.05,3.95,-0.13,3.95,-0.13,0.16,-0.42,0.12,4.10,4.10,4.08
28.33,3.95,-0.12,3.95,-0.13,0.15,-0.43,0.12,4.11,4.11,4.08
28.62,3.96,-0.13,3.96,-0.13,0.15,-0.44,0.12,4.10,4.10,4.08
28.90,3.96,-0.14,3.96,-0.14,0.13,-0.45,0.11,4.09,4.09,4.10
29.19,3.97,-0.14,3.97,-0.14,0.11,-0.46,0.11,4.08,4.08,4.11
29.48,3.97,-0.13,3.97,-0.12,0.08,-0.47,0.10,4.05,4.05,4.11
29.78,3.99,-0.08,3.99,-0.08,0.04,-0.48,0.09,4.03,4.03,4.06
30.08,4.00,-0.01,4.00,-0.01,-0.01,-0.48,0.09,3.99,3.99,4.01
30.38,4.02,0.08,4.02,0.08,-0.06,-0.49,0.08,3.96,3.96,3.94
30.68,4.03,0.15,4.03,0.15,-0.11,-0.50,0.07,3.92,3.92,3.88
30.99,4.04,0.20,4.04,0.20,-0.16,-0.51,0.06,3.89,3.89,3.84
31.30,4.05,0.23,4.05,0.23,-0.20,-0.52,0.04,3.85,3.85,3.82
31.61,4.05,0.24,4.05,0.24,-0.24,-0.54,0.03,3.81,3.81,3.81
31.93,4.05,0.25,4.05,0.26,-0.28,-0.55,0.01,3.78,3.77,3.80
32.24,4.05,0.28,4.05,0.28,-0.31,-0.56,-0.01,3.74,3.74,3.77
32.57,4.04,0.31,4.04,0.31,-0.34,-0.57,-0.02,3.70,3.71,3.73
32.89,4.04,0.36,4.04,0.36,-0.37,-0.58,-0.04,3.67,3.67,3.68
33.22,4.05,0.41,4.05,0.40,-0.40,-0.59,-0.06,3.64,3.64,3.64
33.55,4.05,0.45,4.06,0.45,-0.44,-0.60,-0.09,3.62,3.62,3.61
33.89,4.07,0.48,4.06,0.48,-0.47,-0.62,-0.11,3.60,3.60,3.58
34.23,4.07,0.51,4.07,0.51,-0.49,-0.63,-0.13,3.58,3.58,3.56
34.57,4.06,0.52,4.05,0.52,-0.50,-0.64,-0.16,3.56,3.55,3.53
34.92,4.03,0.53,4.03,0.53,-0.51,-0.65,-0.19,3.52,3.52,3.50
35.27,3.99,0.52,3.99,0.52,-0.51,-0.67,-0.22,3.48,3.48,3.47
35.62,3.95,0.51,3.95,0.51,-0.51,-0.68,-0.24,3.44,3.44,3.44
35.97,3.92,0.49,3.93,0.50,-0.52,-0.69,-0.27,3.40,3.40,3.43
36.33,3.92,0.50,3.93,0.51,-0.54,-0.71,-0.31,3.39,3.39,3.42
36.70,3.94,0.53,3.94,0.54,-0.56,-0.72,-0.34,3.38,3.38,3.41
37.06,3.97,0.58,3.97,0.58,-0.59,-0.74,-0.37,3.38,3.38,3.39
37.43,4.00,0.64,4.00,0.64,-0.63,-0.75,-0.40,3.38,3.37,3.36
37.81,4.02,0.69,4.02,0.69,-0.67,-0.77,-0.44,3.35,3.35,3.33
38.19,4.04,0.73,4.04,0.73,-0.72,-0.78,-0.47,3.32,3.32,3.30
38.57,4.05,0.76,4.05,0.77,-0.77,-0.80,-0.51,3.28,3.28,3.28
38.95,4.05,0.80,4.05,0.80,-0.81,-0.82,-0.55,3.24,3.24,3.25
39.34,4.06,0.84,4.06,0.84,-0.85,-0.83,-0.58,3.21,3.21,3.22
39.74,4.07,0.89,4.07,0.89,-0.89,-0.85,-0.62,3.18,3.18,3.18
40.14,4.08,0.93,4.08,0.93,-0.92,-0.87,-0.66,3.16,3.16,3.14
40.54,4.08,0.97,4.08,0.96,-0.95,-0.88,-0.70,3.12,3.12,3.11
40.94,4.07,0.99,4.07,0.99,-0.99,-0.90,-0.74,3.09,3.09,3.08
41.35,4.07,1.01,4.07,1.01,-1.02,-0.92,-0.78,3.05,3.05,3.06
41.76,4.07,1.04,4.07,1.04,-1.06,-0.94,-0.83,3.01,3.01,3.03
42.18,4.07,1.08,4.07,1.08,-1.09,-0.96,-0.87,2.98,2.98,2.99
42.60,4.07,1.12,4.07,1.12,-1.12,-0.98,-0.91,2.95,2.95,2.96
43.03,4.08,1.16,4.08,1.16,-1.15,-1.00,-0.96,2.92,2.92,2.91
43.46,4.08,1.20,4.08,1.20,-1.19,-1.02,-1.00,2.89,2.89,2.88
43.90,4.08,1.23,4.08,1.23,-1.22,-1.04,-1.05,2.86,2.86,2.85
44.33,4.08,1.25,4.08,1.25,-1.25,-1.06,-1.10,2.83,2.83,2.83
44.78,4.09,1.28,4.09,1.28,-1.28,-1.08,-1.15,2.80,2.80,2.81
45.23,4.09,1.30,4.09,1.30,-1.31,-1.11,-1.19,2.78,2.78,2.78
45.68,4.09,1.33,4.09,1.33,-1.34,-1.13,-1.24,2.75,2.75,2.75
46.13,4.09,1.37,4.09,1.37,-1.37,-1.15,-1.29,2.72,2.72,2.72
46.60,4.08,1.40,4.08,1.40,-1.40,-1.18,-1.34,2.69,2.69,2.68
47.06,4.08,1.43,4.08,1.43,-1.42,-1.20,-1.40,2.65,2.65,2.65
47.53,4.07,1.46,4.07,1.46,-1.45,-1.23,-1.45,2.62,2.62,2.61
48.01,4.07,1.48,4.07,1.48,-1.48,-1.25,-1.50,2.59,2.59,2.59
48.49,4.07,1.50,4.07,1.50,-1.50,-1.28,-1.56,2.56,2.56,2.56
48.97,4.06,1.52,4.06,1.52,-1.53,-1.30,-1.61,2.53,2.53,2.54
49.46,4.06,1.55,4.06,1.55,-1.56,-1.33,-1.66,2.50,2.50,2.51
49.96,4.06,1.58,4.06,1.58,-1.59,-1.36,-1.72,2.47,2.47,2.48
50.46,4.06,1.62,4.06,1.62,-1.62,-1.39,-1.77,2.43,2.43,2.44
50.96,4.05,1.66,4.05,1.66,-1.65,-1.41,-1.83,2.40,2.40,2.39
51.47,4.05,1.70,4.05,1.70,-1.69,-1.44,-1.88,2.36,2.36,2.35
51.99,4.05,1.73,4.05,1.73,-1.73,-1.47,-1.94,2.32,2.32,2.31
52.51,4.04,1.77,4.04,1.77,-1.77,-1.50,-2.00,2.27,2.27,2.28
53.03,4.04,1.80,4.04,1.80,-1.81,-1.54,-2.05,2.23,2.23,2.24
53.56,4.04,1.84,4.04,1.84,-1.85,-1.57,-2.10,2.19,2.19,2.19
54.10,4.03,1.89,4.03,1.88,-1.89,-1.60,-2.16,2.15,2.15,2.15
54.64,4.03,1.93,4.03,1.92,-1.93,-1.63,-2.21,2.11,2.11,2.11
55.18,4.03,1.96,4.03,1.96,-1.96,-1.67,-2.26,2.07,2.07,2.07
55.74,4.04,2.00,4.04,2.00,-2.00,-1.70,-2.31,2.04,2.04,2.04
56.29,4.04,2.03,4.04,2.03,-2.02,-1.74,-2.36,2.01,2.01,2.00
56.86,4.04,2.06,4.04,2.06,-2.05,-1.77,-2.41,1.99,1.99,1.97
57.42,4.04,2.08,4.04,2.08,-2.07,-1.81,-2.45,1.97,1.97,1.95
58.00,4.04,2.10,4.04,2.10,-2.09,-1.85,-2.50,1.94,1.94,1.94
58.58,4.03,2.10,4.03,2.10,-2.11,-1.88,-2.54,1.92,1.92,1.93
59.16,4.03,2.11,4.03,2.12,-2.13,-1.92,-2.57,1.90,1.90,1.92
59.76,4.03,2.14,4.03,2.14,-2.16,-1.96,-2.61,1.87,1.87,1.89
60.35,4.02,2.17,4.02,2.17,-2.18,-2.00,-2.64,1.84,1.84,1.85
60.96,4.02,2.21,4.02,2.21,-2.20,-2.04,-2.67,1.82,1.81,1.81
61.57,4.01,2.24,4.01,2.24,-2.23,-2.08,-2.70,1.78,1.78,1.77
62.18,4.01,2.27,4.01,2.27,-2.26,-2.12,-2.72,1.75,1.75,1.74
62.80,4.00,2.30,4.00,2.30,-2.29,-2.16,-2.75,1.71,1.71,1.71
63.43,4.00,2.33,4.00,2.33,-2.33,-2.21,-2.76,1.67,1.67,1.67
64.07,3.99,2.35,3.99,2.35,-2.36,-2.25,-2.78,1.63,1.63,1.64
64.71,3.99,2.38,3.99,2.38,-2.39,-2.29,-2.79,1.60,1.60,1.61
65.35,3.99,2.41,3.99,2.42,-2.42,-2.34,-2.80,1.57,1.57,1.57
66.01,3.98,2.45,3.98,2.45,-2.45,-2.38,-2.81,1.53,1.53,1.53
66.67,3.98,2.49,3.98,2.48,-2.48,-2.43,-2.81,1.50,1.50,1.49
67.33,3.98,2.52,3.98,2.52,-2.52,-2.47,-2.82,1.46,1.46,1.46
68.01,3.97,2.55,3.97,2.55,-2.55,-2.52,-2.82,1.42,1.42,1.42
68.69,3.97,2.58,3.97,2.58,-2.58,-2.56,-2.82,1.39,1.39,1.39
69.37,3.96,2.61,3.96,2.61,-2.61,-2.60,-2.82,1.35,1.35,1.35
70.07,3.96,2.64,3.96,2.64,-2.64,-2.65,-2.81,1.32,1.32,1.32
70.77,3.95,2.67,3.95,2.67,-2.67,-2.69,-2.81,1.28,1.28,1.28
71.48,3.95,2.70,3.95,2.70,-2.70,-2.74,-2.80,1.25,1.25,1.24
72.19,3.94,2.73,3.94,2.73,-2.73,-2.78,-2.80,1.21,1.21,1.21
72.91,3.93,2.76,3.93,2.76,-2.76,-2.83,-2.79,1.18,1.18,1.18
73.64,3.93,2.79,3.93,2.79,-2.79,-2.87,-2.79,1.14,1.14,1.14
74.38,3.92,2.82,3.92,2.82,-2.82,-2.91,-2.78,1.11,1.11,1.11
75.12,3.92,2.85,3.92,2.85,-2.85,-2.95,-2.78,1.07,1.07,1.07
75.87,3.91,2.88,3.92,2.88,-2.88,-2.99,-2.77,1.04,1.04,1.04
76.63,3.91,2.91,3.91,2.91,-2.90,-3.03,-2.77,1.01,1.01,1.00
77.40,3.91,2.93,3.91,2.93,-2.93,-3.07,-2.76,0.97,0.97,0.97
78.17,3.90,2.96,3.90,2.96,-2.96,-3.11,-2.76,0.94,0.94,0.94
78.95,3.89,2.99,3.89,2.99,-2.98,-3.15,-2.76,0.91,0.91,0.91
79.74,3.88,3.01,3.88,3.01,-3.01,-3.18,-2.76,0.87,0.87,0.87
80.54,3.88,3.03,3.88,3.03,-3.04,-3.22,-2.77,0.84,0.84,0.84
81.35,3.87,3.06,3.87,3.06,-3.06,-3.25,-2.77,0.81,0.81,0.81
82.16,3.86,3.08,3.86,3.08,-3.09,-3.28,-2.78,0.77,0.77,0.77
82.98,3.85,3.11,3.85,3.11,-3.11,-3.31,-2.79,0.74,0.74,0.74
83.81,3.84,3.14,3.84,3.14,-3.14,-3.34,-2.80,0.71,0.71,0.71
84.65,3.84,3.16,3.84,3.16,-3.17,-3.36,-2.81,0.67,0.67,0.68
85.50,3.84,3.19,3.84,3.19,-3.19,-3.39,-2.82,0.64,0.64,0.64
86.35,3.83,3.22,3.83,3.22,-3.22,-3.41,-2.84,0.61,0.61,0.61
87.22,3.83,3.25,3.83,3.25,-3.25,-3.43,-2.86,0.58,0.58,0.58
88.09,3.82,3.27,3.82,3.27,-3.27,-3.45,-2.88,0.55,0.55,0.55
88.97,3.81,3.30,3.81,3.30,-3.30,-3.47,-2.90,0.52,0.52,0.51
89.86,3.81,3.32,3.81,3.32,-3.32,-3.49,-2.93,0.48,0.48,0.48
90.76,3.80,3.35,3.80,3.35,-3.35,-3.51,-2.95,0.45,0.45,0.45
91.66,3.79,3.37,3.79,3.37,-3.37,-3.52,-2.98,0.42,0.42,0.42
92.58,3.78,3.39,3.78,3.39,-3.39,-3.53,-3.01,0.39,0.39,0.39
93.51,3.77,3.41,3.77,3.41,-3.41,-3.55,-3.05,0.36,0.36,0.36
94.44,3.76,3.43,3.76,3.43,-3.43,-3.56,-3.08,0.33,0.33,0.33
95.39,3.75,3.45,3.75,3.45,-3.45,-3.57,-3.12,0.30,0.30,0.30
96.34,3.75,3.48,3.75,3.47,-3.47,-3.58,-3.16,0.27,0.27,0.27
97.30,3.74,3.50,3.74,3.50,-3.50,-3.59,-3.20,0.24,0.24,0.24
98.28,3.73,3.52,3.73,3.52,-3.52,-3.59,-3.25,0.21,0.21,0.21
99.26,3.72,3.54,3.72,3.54,-3.54,-3.60,-3.29,0.18,0.18,0.18
100.25,3.71,3.56,3.71,3.56,-3.56,-3.61,-3.34,0.15,0.15,0.15
101.25,3.70,3.58,3.70,3.58,-3.58,-3.61,-3.38,0.12,0.12,0.12
102.27,3.69,3.60,3.69,3.60,-3.60,-3.62,-3.43,0.09,0.09,0.09
103.29,3.68,3.62,3.68,3.62,-3.62,-3.63,-3.48,0.06,0.06,0.06
104.32,3.67,3.64,3.67,3.64,-3.64,-3.63,-3.53,0.04,0.04,0.03
105.37,3.66,3.66,3.66,3.66,-3.66,-3.64,-3.58,0.01,0.01,0.01
106.42,3.65,3.67,3.65,3.67,-3.67,-3.64,-3.63,-0.02,-0.02,-0.02
107.48,3.64,3.69,3.64,3.69,-3.69,-3.65,-3.68,-0.05,-0.05,-0.05
108.56,3.63,3.71,3.63,3.71,-3.71,-3.65,-3.73,-0.08,-0.08,-0.08
109.64,3.62,3.72,3.62,3.72,-3.72,-3.66,-3.78,-0.11,-0.11,-0.11
110.74,3.61,3.74,3.61,3.74,-3.74,-3.66,-3.83,-0.13,-0.13,-0.13
111.85,3.60,3.76,3.60,3.75,-3.76,-3.67,-3.88,-0.16,-0.16,-0.16
112.97,3.59,3.77,3.59,3.77,-3.78,-3.68,-3.92,-0.19,-0.19,-0.19
114.10,3.58,3.79,3.58,3.79,-3.79,-3.68,-3.96,-0.22,-0.22,-0.22
115.24,3.57,3.81,3.57,3.81,-3.81,-3.69,-4.00,-0.24,-0.24,-0.25
116.39,3.56,3.83,3.56,3.83,-3.82,-3.70,-4.04,-0.27,-0.27,-0.27
117.55,3.55,3.84,3.55,3.84,-3.84,-3.70,-4.07,-0.29,-0.29,-0.30
118.73,3.54,3.85,3.54,3.85,-3.85,-3.71,-4.10,-0.32,-0.32,-0.32
119.92,3.52,3.87,3.52,3.87,-3.87,-3.72,-4.13,-0.34,-0.34,-0.34
121.12,3.51,3.88,3.51,3.88,-3.88,-3.73,-4.15,-0.37,-0.37,-0.37
122.33,3.50,3.89,3.50,3.89,-3.89,-3.73,-4.17,-0.39,-0.39,-0.39
123.55,3.49,3.91,3.49,3.91,-3.91,-3.74,-4.19,-0.42,-0.42,-0.42
124.79,3.47,3.92,3.47,3.92,-3.92,-3.75,-4.20,-0.44,-0.44,-0.44
126.03,3.46,3.93,3.46,3.93,-3.93,-3.76,-4.21,-0.47,-0.47,-0.47
127.29,3.45,3.94,3.45,3.94,-3.94,-3.77,-4.21,-0.50,-0.50,-0.50
128.57,3.43,3.95,3.43,3.95,-3.95,-3.78,-4.21,-0.52,-0.52,-0.52
129.85,3.42,3.96,3.42,3.96,-3.96,-3.79,-4.20,-0.55,-0.55,-0.55
131.15,3.40,3.98,3.41,3.98,-3.98,-3.80,-4.19,-0.57,-0.57,-0.57
132.46,3.39,3.99,3.39,3.99,-3.99,-3.81,-4.18,-0.59,-0.59,-0.59
133.79,3.38,4.00,3.38,4.00,-4.00,-3.82,-4.16,-0.62,-0.62,-0.62
135.12,3.37,4.01,3.37,4.01,-4.01,-3.83,-4.14,-0.64,-0.64,-0.64
136.48,3.35,4.02,3.35,4.02,-4.02,-3.84,-4.12,-0.67,-0.67,-0.67
137.84,3.34,4.03,3.34,4.03,-4.03,-3.85,-4.09,-0.69,-0.69,-0.69
139.22,3.33,4.04,3.33,4.04,-4.04,-3.86,-4.07,-0.71,-0.71,-0.71
140.61,3.31,4.05,3.31,4.05,-4.05,-3.87,-4.04,-0.74,-0.74,-0.74
142.02,3.30,4.06,3.30,4.06,-4.06,-3.89,-4.01,-0.76,-0.76,-0.76
143.44,3.28,4.07,3.28,4.07,-4.07,-3.90,-3.98,-0.79,-0.79,-0.79
144.87,3.27,4.08,3.27,4.08,-4.08,-3.91,-3.94,-0.81,-0.81,-0.81
146.32,3.25,4.09,3.25,4.09,-4.09,-3.92,-3.91,-0.84,-0.84,-0.84
147.78,3.24,4.10,3.24,4.10,-4.10,-3.93,-3.88,-0.86,-0.86,-0.86
149.26,3.22,4.11,3.22,4.11,-4.11,-3.94,-3.85,-0.89,-0.89,-0.89
150.75,3.21,4.12,3.21,4.12,-4.12,-3.95,-3.82,-0.91,-0.91,-0.91
152.26,3.19,4.12,3.19,4.13,-4.12,-3.97,-3.79,-0.93,-0.93,-0.93
153.78,3.18,4.13,3.18,4.13,-4.12,-3.98,-3.76,-0.95,-0.95,-0.95
155.32,3.16,4.13,3.16,4.13,-4.12,-3.99,-3.73,-0.96,-0.96,-0.97
156.88,3.14,4.12,3.14,4.12,-4.12,-4.00,-3.70,-0.97,-0.98,-0.98
158.44,3.13,4.11,3.13,4.11,-4.11,-4.01,-3.68,-0.99,-0.99,-0.98
160.03,3.11,4.10,3.11,4.10,-4.11,-4.02,-3.65,-1.00,-1.00,-0.99
161.63,3.09,4.10,3.09,4.10,-4.10,-4.03,-3.63,-1.01,-1.01,-1.00
163.24,3.08,4.09,3.08,4.09,-4.10,-4.04,-3.61,-1.02,-1.02,-1.02
164.88,3.06,4.09,3.06,4.09,-4.09,-4.05,-3.60,-1.03,-1.03,-1.03
166.53,3.04,4.09,3.04,4.09,-4.09,-4.06,-3.58,-1.05,-1.05,-1.05
168.19,3.03,4.09,3.03,4.09,-4.09,-4.07,-3.57,-1.07,-1.07,-1.06
169.87,3.01,4.10,3.01,4.10,-4.10,-4.08,-3.56,-1.09,-1.09,-1.09
171.57,2.99,4.10,2.99,4.10,-4.10,-4.09,-3.55,-1.11,-1.11,-1.11
173.29,2.98,4.11,2.98,4.11,-4.11,-4.10,-3.55,-1.13,-1.13,-1.13
175.02,2.96,4.11,2.96,4.11,-4.11,-4.11,-3.55,-1.15,-1.15,-1.16
176.77,2.94,4.11,2.94,4.11,-4.11,-4.11,-3.55,-1.18,-1.18,-1.18
178.54,2.92,4.12,2.92,4.12,-4.12,-4.12,-3.55,-1.20,-1.20,-1.20
180.32,2.90,4.12,2.90,4.12,-4.12,-4.13,-3.56,-1.22,-1.22,-1.22
182.13,2.88,4.12,2.88,4.12,-4.12,-4.14,-3.57,-1.24,-1.24,-1.24
183.95,2.86,4.13,2.86,4.12,-4.13,-4.14,-3.58,-1.27,-1.27,-1.26
185.79,2.84,4.13,2.84,4.13,-4.13,-4.15,-3.60,-1.29,-1.29,-1.29
187.65,2.83,4.13,2.83,4.13,-4.13,-4.15,-3.61,-1.31,-1.31,-1.31
189.52,2.81,4.13,2.81,4.13,-4.13,-4.16,-3.64,-1.33,-1.33,-1.33
191.42,2.79,4.13,2.79,4.14,-4.14,-4.16,-3.66,-1.35,-1.35,-1.35
193.33,2.77,4.13,2.77,4.14,-4.13,-4.17,-3.68,-1.37,-1.37,-1.37
195.27,2.75,4.13,2.75,4.13,-4.13,-4.17,-3.71,-1.38,-1.38,-1.39
197.22,2.73,4.13,2.73,4.13,-4.12,-4.17,-3.74,-1.40,-1.40,-1.40
199.19,2.70,4.12,2.70,4.12,-4.11,-4.18,-3.77,-1.41,-1.41,-1.42
201.18,2.68,4.11,2.68,4.11,-4.10,-4.18,-3.80,-1.42,-1.42,-1.42
203.19,2.66,4.09,2.66,4.09,-4.09,-4.18,-3.83,-1.43,-1.43,-1.43
205.23,2.64,4.08,2.64,4.08,-4.09,-4.18,-3.87,-1.44,-1.44,-1.44
207.28,2.62,4.07,2.62,4.07,-4.08,-4.18,-3.91,-1.46,-1.46,-1.45
209.35,2.60,4.07,2.60,4.07,-4.07,-4.18,-3.94,-1.47,-1.47,-1.47
211.44,2.58,4.06,2.58,4.06,-4.06,-4.18,-3.98,-1.49,-1.49,-1.49
213.56,2.55,4.06,2.55,4.06,-4.06,-4.18,-4.02,-1.50,-1.50,-1.51
215.69,2.53,4.06,2.53,4.05,-4.05,-4.18,-4.05,-1.52,-1.52,-1.52
217.85,2.51,4.05,2.51,4.05,-4.05,-4.18,-4.09,-1.54,-1.54,-1.54
220.03,2.49,4.05,2.49,4.05,-4.05,-4.18,-4.13,-1.56,-1.56,-1.56
222.23,2.46,4.04,2.46,4.04,-4.04,-4.17,-4.16,-1.58,-1.58,-1.58
224.45,2.44,4.04,2.44,4.04,-4.04,-4.17,-4.19,-1.60,-1.60,-1.60
226.70,2.42,4.03,2.42,4.03,-4.03,-4.17,-4.22,-1.62,-1.62,-1.61
228.96,2.39,4.03,2.39,4.02,-4.03,-4.16,-4.25,-1.63,-1.63,-1.63
231.25,2.37,4.02,2.37,4.02,-4.02,-4.16,-4.28,-1.65,-1.65,-1.65
233.57,2.34,4.01,2.34,4.01,-4.01,-4.15,-4.30,-1.67,-1.67,-1.67
235.90,2.32,4.01,2.32,4.01,-4.01,-4.14,-4.32,-1.69,-1.69,-1.69
238.26,2.29,4.00,2.29,4.00,-4.00,-4.14,-4.33,-1.71,-1.71,-1.71
240.64,2.27,3.99,2.27,3.99,-3.99,-4.13,-4.34,-1.72,-1.72,-1.72
243.05,2.25,3.99,2.25,3.99,-3.99,-4.12,-4.35,-1.74,-1.74,-1.74
245.48,2.22,3.98,2.22,3.98,-3.98,-4.11,-4.35,-1.76,-1.76,-1.76
247.93,2.20,3.97,2.20,3.97,-3.97,-4.10,-4.35,-1.77,-1.77,-1.77
250.41,2.17,3.96,2.17,3.96,-3.96,-4.09,-4.35,-1.79,-1.79,-1.79
252.92,2.15,3.96,2.15,3.96,-3.96,-4.08,-4.34,-1.81,-1.81,-1.81
255.45,2.12,3.95,2.12,3.95,-3.95,-4.07,-4.32,-1.83,-1.83,-1.83
258.00,2.09,3.94,2.09,3.94,-3.94,-4.06,-4.30,-1.84,-1.84,-1.84
260.58,2.07,3.93,2.07,3.93,-3.93,-4.04,-4.27,-1.86,-1.86,-1.86
263.19,2.04,3.92,2.04,3.92,-3.92,-4.03,-4.25,-1.88,-1.88,-1.88
265.82,2.01,3.91,2.01,3.91,-3.91,-4.02,-4.21,-1.89,-1.89,-1.89
268.48,1.98,3.89,1.98,3.89,-3.90,-4.00,-4.18,-1.91,-1.91,-1.91
271.16,1.96,3.88,1.96,3.88,-3.89,-3.99,-4.14,-1.93,-1.93,-1.93
273.87,1.93,3.87,1.93,3.87,-3.87,-3.97,-4.09,-1.94,-1.94,-1.94
276.61,1.90,3.86,1.90,3.86,-3.86,-3.96,-4.05,-1.96,-1.96,-1.96
279.38,1.87,3.85,1.87,3.85,-3.85,-3.94,-4.00,-1.98,-1.98,-1.98
282.17,1.84,3.84,1.84,3.84,-3.84,-3.93,-3.95,-1.99,-1.99,-2.00
284.99,1.81,3.82,1.81,3.82,-3.82,-3.91,-3.90,-2.01,-2.01,-2.01
287.84,1.78,3.81,1.78,3.81,-3.81,-3.89,-3.84,-2.03,-2.03,-2.03
290.72,1.75,3.80,1.75,3.80,-3.80,-3.87,-3.79,-2.04,-2.04,-2.04
293.63,1.72,3.78,1.72,3.78,-3.78,-3.85,-3.73,-2.06,-2.06,-2.06
296.57,1.69,3.77,1.69,3.77,-3.77,-3.83,-3.68,-2.08,-2.08,-2.08
299.53,1.66,3.76,1.66,3.76,-3.76,-3.81,-3.62,-2.09,-2.09,-2.10
302.53,1.63,3.74,1.63,3.74,-3.74,-3.79,-3.57,-2.11,-2.11,-2.11
305.55,1.60,3.72,1.60,3.73,-3.73,-3.77,-3.51,-2.12,-2.12,-2.12
308.61,1.57,3.71,1.57,3.71,-3.71,-3.75,-3.46,-2.14,-2.14,-2.14
311.69,1.54,3.70,1.54,3.70,-3.70,-3.73,-3.41,-2.16,-2.16,-2.16
314.81,1.51,3.68,1.51,3.68,-3.68,-3.71,-3.35,-2.17,-2.17,-2.17
317.96,1.48,3.66,1.48,3.66,-3.66,-3.69,-3.30,-2.19,-2.19,-2.19
321.14,1.44,3.65,1.44,3.65,-3.65,-3.66,-3.25,-2.20,-2.20,-2.20
324.35,1.41,3.63,1.41,3.63,-3.63,-3.64,-3.21,-2.22,-2.22,-2.22
327.59,1.38,3.62,1.38,3.62,-3.62,-3.62,-3.16,-2.24,-2.24,-2.24
330.87,1.35,3.60,1.35,3.60,-3.60,-3.59,-3.12,-2.25,-2.25,-2.25
334.18,1.32,3.58,1.32,3.58,-3.58,-3.57,-3.07,-2.27,-2.27,-2.27
337.52,1.28,3.57,1.28,3.57,-3.57,-3.55,-3.04,-2.28,-2.28,-2.28
340.90,1.25,3.55,1.25,3.55,-3.55,-3.52,-3.00,-2.30,-2.30,-2.30
344.30,1.22,3.53,1.22,3.53,-3.53,-3.50,-2.96,-2.31,-2.31,-2.31
347.75,1.19,3.52,1.19,3.52,-3.52,-3.47,-2.93,-2.33,-2.33,-2.33
351.23,1.16,3.50,1.16,3.50,-3.50,-3.44,-2.90,-2.34,-2.34,-2.34
354.74,1.13,3.49,1.13,3.48,-3.48,-3.42,-2.87,-2.36,-2.36,-2.36
358.28,1.10,3.47,1.10,3.47,-3.47,-3.39,-2.84,-2.37,-2.37,-2.37
361.87,1.06,3.45,1.06,3.45,-3.45,-3.36,-2.82,-2.39,-2.39,-2.39
365.49,1.03,3.43,1.03,3.43,-3.43,-3.34,-2.79,-2.40,-2.40,-2.40
369.14,1.00,3.42,1.00,3.42,-3.42,-3.31,-2.77,-2.42,-2.42,-2.42
372.83,0.97,3.40,0.97,3.40,-3.40,-3.28,-2.76,-2.43,-2.43,-2.43
376.56,0.93,3.38,0.93,3.38,-3.38,-3.26,-2.74,-2.45,-2.45,-2.45
380.33,0.90,3.36,0.90,3.36,-3.36,-3.23,-2.73,-2.46,-2.46,-2.46
384.13,0.86,3.34,0.86,3.34,-3.34,-3.20,-2.71,-2.47,-2.47,-2.47
387.97,0.82,3.31,0.83,3.31,-3.31,-3.17,-2.70,-2.49,-2.49,-2.49
391.85,0.79,3.29,0.79,3.29,-3.29,-3.14,-2.69,-2.50,-2.50,-2.50
395.77,0.75,3.27,0.75,3.27,-3.27,-3.11,-2.69,-2.52,-2.52,-2.52
399.73,0.71,3.24,0.71,3.24,-3.24,-3.09,-2.68,-2.53,-2.53,-2.53
403.72,0.67,3.22,0.67,3.22,-3.22,-3.06,-2.68,-2.55,-2.55,-2.55
407.76,0.63,3.19,0.63,3.19,-3.19,-3.03,-2.68,-2.56,-2.56,-2.56
411.84,0.59,3.17,0.59,3.16,-3.17,-3.00,-2.68,-2.57,-2.57,-2.57
415.96,0.55,3.14,0.55,3.14,-3.14,-2.97,-2.67,-2.59,-2.59,-2.58
420.12,0.51,3.11,0.51,3.11,-3.11,-2.94,-2.68,-2.60,-2.60,-2.60
424.32,0.47,3.09,0.47,3.09,-3.08,-2.91,-2.68,-2.61,-2.61,-2.61
428.56,0.43,3.06,0.43,3.06,-3.06,-2.88,-2.68,-2.63,-2.63,-2.63
432.85,0.39,3.03,0.39,3.03,-3.03,-2.85,-2.68,-2.64,-2.64,-2.64
437.18,0.35,3.00,0.35,3.00,-3.00,-2.82,-2.68,-2.65,-2.65,-2.65
441.55,0.31,2.97,0.31,2.97,-2.97,-2.79,-2.68,-2.66,-2.66,-2.66
445.96,0.26,2.94,0.26,2.94,-2.94,-2.76,-2.69,-2.68,-2.68,-2.68
450.42,0.22,2.91,0.22,2.91,-2.91,-2.73,-2.69,-2.69,-2.69,-2.69
454.93,0.18,2.88,0.18,2.88,-2.88,-2.70,-2.69,-2.70,-2.70,-2.70
459.48,0.13,2.85,0.13,2.85,-2.85,-2.67,-2.69,-2.71,-2.71,-2.71
464.07,0.09,2.81,0.09,2.81,-2.81,-2.64,-2.69,-2.72,-2.72,-2.72
468.71,0.05,2.78,0.05,2.78,-2.78,-2.62,-2.68,-2.73,-2.73,-2.73
473.40,0.00,2.75,0.00,2.75,-2.75,-2.59,-2.68,-2.75,-2.75,-2.75
478.13,-0.04,2.71,-0.04,2.71,-2.71,-2.56,-2.67,-2.76,-2.76,-2.76
482.91,-0.09,2.68,-0.09,2.68,-2.68,-2.53,-2.66,-2.77,-2.77,-2.77
487.74,-0.13,2.65,-0.13,2.65,-2.65,-2.50,-2.65,-2.78,-2.78,-2.78
492.62,-0.18,2.61,-0.18,2.61,-2.61,-2.47,-2.64,-2.79,-2.79,-2.79
497.55,-0.22,2.58,-0.22,2.58,-2.58,-2.44,-2.63,-2.80,-2.80,-2.80
502.52,-0.27,2.54,-0.27,2.54,-2.54,-2.41,-2.61,-2.81,-2.81,-2.81
