frequency,raw,error,smoothed,error_smoothed,equalization,parametric_eq,fixed_band_eq,equalized_raw,equalized_smoothed,target
20.00,7.62,4.01,7.62,4.01,-4.03,-4.26,-1.62,3.60,3.60,3.61
20.20,7.65,4.01,7.65,4.01,-4.02,-4.29,-1.67,3.63,3.63,3.64
20.40,7.67,4.01,7.67,4.01,-4.01,-4.32,-1.71,3.66,3.66,3.66
20.61,7.69,4.01,7.68,4.01,-4.00,-4.28,-1.77,3.68,3.68,3.67
20.81,7.70,4.01,7.70,4.01,-3.99,-4.24,-1.82,3.71,3.71,3.69
21.02,7.71,4.00,7.71,4.00,-3.98,-4.17,-1.87,3.73,3.73,3.71
21.23,7.72,3.99,7.72,3.99,-3.97,-4.10,-1.93,3.76,3.76,3.74
21.44,7.74,3.96,7.74,3.96,-3.95,-4.03,-1.98,3.78,3.78,3.77
21.66,7.75,3.94,7.75,3.94,-3.93,-3.96,-2.04,3.82,3.82,3.82
21.87,7.77,3.91,7.77,3.91,-3.91,-3.91,-2.10,3.86,3.86,3.86
22.09,7.78,3.88,7.78,3.88,-3.89,-3.85,-2.16,3.89,3.89,3.90
22.31,7.80,3.86,7.80,3.86,-3.88,-3.81,-2.23,3.92,3.92,3.94
22.54,7.83,3.86,7.83,3.86,-3.87,-3.77,-2.29,3.95,3.95,3.97
22.76,7.85,3.86,7.85,3.86,-3.87,-3.74,-2.36,3.98,3.98,3.99
22.99,7.88,3.87,7.88,3.87,-3.88,-3.72,-2.43,4.00,4.00,4.01
23.22,7.91,3.89,7.91,3.89,-3.89,-3.70,-2.50,4.02,4.02,4.01
23.45,7.93,3.91,7.93,3.91,-3.90,-3.68,-2.57,4.03,4.03,4.02
23.69,7.95,3.92,7.95,3.92,-3.90,-3.67,-2.64,4.05,4.05,4.03
23.92,7.97,3.92,7.97,3.92,-3.90,-3.66,-2.72,4.07,4.07,4.05
24.16,7.98,3.91,7.98,3.91,-3.90,-3.66,-2.79,4.08,4.08,4.07
24.40,7.98,3.89,7.98,3.89,-3.89,-3.65,-2.87,4.10,4.10,4.09
24.65,7.98,3.87,7.98,3.87,-3.87,-3.65,-2.95,4.11,4.11,4.11
24.89,7.98,3.84,7.98,3.84,-3.86,-3.65,-3.02,4.12,4.12,4.14
25.14,7.98,3.83,7.98,3.83,-3.85,-3.65,-3.10,4.13,4.14,4.16
25.39,7.98,3.81,7.99,3.82,-3.83,-3.65,-3.18,4.15,4.15,4.17
25.65,7.99,3.81,7.99,3.81,-3.82,-3.65,-3.26,4.17,4.17,4.18
25.91,8.00,3.82,8.00,3.82,-3.81,-3.65,-3.34,4.19,4.19,4.19
26.16,8.01,3.82,8.01,3.81,-3.80,-3.66,-3.42,4.21,4.21,4.19
26.43,8.00,3.80,8.00,3.80,-3.78,-3.66,-3.50,4.22,4.22,4.20
26.69,7.98,3.78,7.98,3.78,-3.76,-3.66,-3.58,4.23,4.23,4.21
26.96,7.96,3.74,7.96,3.74,-3.73,-3.66,-3.66,4.23,4.23,4.22
27.23,7.93,3.69,7.93,3.69,-3.70,-3.66,-3.73,4.23,4.23,4.23
27.50,7.90,3.65,7.90,3.65,-3.66,-3.66,-3.81,4.23,4.24,4.25
27.77,7.88,3.61,7.88,3.61,-3.63,-3.67,-3.87,4.25,4.25,4.27
28.05,7.88,3.58,7.88,3.58,-3.60,-3.67,-3.94,4.28,4.29,4.30
28.33,7.90,3.56,7.90,3.56,-3.57,-3.67,-4.01,4.33,4.33,4.34
28.62,7.92,3.55,7.92,3.55,-3.54,-3.67,-4.07,4.39,4.39,4.37
28.90,7.95,3.53,7.95,3.53,-3.51,-3.67,-4.12,4.45,4.44,4.42
29.19,7.97,3.50,7.97,3.50,-3.48,-3.67,-4.18,4.49,4.49,4.47
29.48,7.98,3.47,7.98,3.47,-3.46,-3.66,-4.22,4.52,4.52,4.51
29.78,7.99,3.43,7.99,3.43,-3.45,-3.66,-4.26,4.54,4.54,4.55
30.08,8.00,3.40,8.00,3.41,-3.44,-3.66,-4.30,4.56,4.56,4.59
30.38,8.01,3.40,8.02,3.40,-3.44,-3.66,-4.33,4.57,4.57,4.62
30.68,8.05,3.42,8.05,3.42,-3.45,-3.65,-4.35,4.59,4.59,4.63
30.99,8.08,3.46,8.08,3.46,-3.47,-3.65,-4.37,4.62,4.62,4.62
31.30,8.11,3.50,8.11,3.50,-3.47,-3.64,-4.38,4.64,4.64,4.61
31.61,8.12,3.53,8.12,3.53,-3.48,-3.64,-4.39,4.64,4.64,4.59
31.93,8.10,3.53,8.10,3.53,-3.47,-3.63,-4.38,4.63,4.63,4.57
32.24,8.06,3.50,8.06,3.50,-3.46,-3.63,-4.38,4.60,4.60,4.56
32.57,8.01,3.45,8.01,3.45,-3.44,-3.62,-4.36,4.57,4.57,4.56
32.89,7.97,3.40,7.98,3.40,-3.43,-3.61,-4.34,4.55,4.55,4.58
33.22,7.96,3.36,7.96,3.36,-3.41,-3.60,-4.32,4.55,4.55,4.60
33.55,7.97,3.35,7.98,3.36,-3.41,-3.59,-4.29,4.56,4.57,4.62
33.89,8.01,3.38,8.01,3.38,-3.42,-3.58,-4.25,4.60,4.60,4.64
34.23,8.06,3.42,8.06,3.42,-3.44,-3.57,-4.21,4.62,4.62,4.64
34.57,8.10,3.47,8.10,3.47,-3.46,-3.56,-4.17,4.64,4.64,4.63
34.92,8.13,3.52,8.13,3.51,-3.49,-3.55,-4.12,4.64,4.64,4.61
35.27,8.14,3.54,8.14,3.54,-3.50,-3.54,-4.07,4.63,4.63,4.60
35.62,8.13,3.55,8.13,3.54,-3.51,-3.52,-4.02,4.63,4.63,4.59
35.97,8.11,3.53,8.11,3.52,-3.49,-3.51,-3.97,4.62,4.62,4.59
36.33,8.08,3.48,8.08,3.48,-3.46,-3.49,-3.91,4.62,4.62,4.60
36.70,8.04,3.42,8.04,3.42,-3.42,-3.48,-3.85,4.62,4.62,4.61
37.06,7.99,3.36,7.98,3.36,-3.37,-3.46,-3.79,4.61,4.61,4.63
37.43,7.93,3.30,7.93,3.30,-3.33,-3.45,-3.74,4.60,4.60,4.63
37.81,7.89,3.27,7.89,3.27,-3.30,-3.43,-3.68,4.59,4.58,4.62
38.19,7.85,3.25,7.86,3.25,-3.29,-3.42,-3.62,4.57,4.57,4.61
38.57,7.85,3.26,7.85,3.26,-3.29,-3.40,-3.56,4.56,4.57,4.59
38.95,7.87,3.28,7.86,3.28,-3.29,-3.38,-3.50,4.57,4.57,4.58
39.34,7.89,3.31,7.89,3.31,-3.30,-3.36,-3.45,4.59,4.59,4.58
39.74,7.92,3.34,7.92,3.34,-3.31,-3.35,-3.39,4.60,4.60,4.58
40.14,7.94,3.35,7.94,3.35,-3.32,-3.33,-3.34,4.63,4.63,4.59
40.54,7.96,3.35,7.96,3.34,-3.31,-3.31,-3.28,4.66,4.65,4.61
40.94,7.96,3.31,7.96,3.31,-3.29,-3.29,-3.23,4.68,4.68,4.65
41.35,7.95,3.27,7.95,3.26,-3.26,-3.27,-3.18,4.70,4.70,4.69
41.76,7.93,3.21,7.93,3.21,-3.22,-3.25,-3.14,4.71,4.71,4.72
42.18,7.90,3.16,7.90,3.16,-3.19,-3.23,-3.09,4.71,4.71,4.74
42.60,7.87,3.12,7.87,3.12,-3.16,-3.21,-3.05,4.71,4.71,4.75
43.03,7.84,3.10,7.84,3.10,-3.13,-3.19,-3.01,4.71,4.71,4.74
43.46,7.82,3.10,7.82,3.10,-3.11,-3.17,-2.97,4.72,4.72,4.72
43.90,7.81,3.10,7.81,3.10,-3.09,-3.14,-2.94,4.72,4.72,4.71
44.33,7.80,3.10,7.80,3.09,-3.07,-3.12,-2.90,4.73,4.73,4.71
44.78,7.79,3.08,7.79,3.08,-3.06,-3.10,-2.87,4.73,4.73,4.71
45.23,7.78,3.06,7.78,3.06,-3.05,-3.08,-2.84,4.73,4.73,4.72
45.68,7.76,3.04,7.76,3.04,-3.04,-3.06,-2.81,4.72,4.72,4.72
46.13,7.74,3.01,7.74,3.01,-3.02,-3.04,-2.79,4.71,4.71,4.73
46.60,7.72,2.99,7.72,3.00,-3.02,-3.01,-2.77,4.70,4.70,4.72
47.06,7.70,2.99,7.70,2.99,-3.01,-2.99,-2.75,4.69,4.69,4.71
47.53,7.69,3.00,7.69,3.00,-3.01,-2.97,-2.73,4.68,4.68,4.69
48.01,7.68,3.01,7.68,3.01,-3.01,-2.95,-2.71,4.68,4.68,4.67
48.49,7.68,3.03,7.68,3.02,-3.01,-2.93,-2.70,4.67,4.67,4.65
48.97,7.67,3.03,7.67,3.03,-3.01,-2.91,-2.68,4.66,4.66,4.64
49.46,7.66,3.02,7.66,3.02,-3.02,-2.88,-2.67,4.65,4.64,4.64
49.96,7.65,3.01,7.65,3.01,-3.01,-2.86,-2.66,4.63,4.63,4.64
50.46,7.63,3.00,7.63,3.00,-3.01,-2.84,-2.66,4.62,4.62,4.62
50.96,7.60,3.00,7.60,3.00,-2.99,-2.82,-2.65,4.61,4.61,4.61
51.47,7.57,2.99,7.57,2.98,-2.98,-2.80,-2.64,4.60,4.60,4.59
51.99,7.54,2.96,7.54,2.96,-2.96,-2.78,-2.64,4.58,4.58,4.58
52.51,7.51,2.94,7.51,2.94,-2.94,-2.76,-2.64,4.57,4.57,4.57
53.03,7.47,2.90,7.47,2.91,-2.91,-2.74,-2.63,4.55,4.55,4.56
53.56,7.42,2.88,7.42,2.88,-2.88,-2.72,-2.63,4.54,4.54,4.54
54.10,7.38,2.86,7.38,2.86,-2.85,-2.69,-2.63,4.53,4.53,4.52
54.64,7.34,2.84,7.34,2.83,-2.82,-2.68,-2.63,4.52,4.52,4.51
55.18,7.31,2.80,7.31,2.80,-2.80,-2.66,-2.63,4.51,4.51,4.51
55.74,7.28,2.76,7.28,2.76,-2.77,-2.64,-2.63,4.50,4.50,4.52
56.29,7.25,2.73,7.25,2.73,-2.75,-2.62,-2.63,4.49,4.49,4.52
56.86,7.22,2.71,7.22,2.71,-2.73,-2.60,-2.62,4.49,4.49,4.51
57.42,7.20,2.71,7.20,2.71,-2.71,-2.58,-2.62,4.49,4.49,4.49
58.00,7.18,2.71,7.18,2.70,-2.68,-2.56,-2.62,4.50,4.50,4.47
58.58,7.16,2.69,7.16,2.69,-2.66,-2.55,-2.61,4.51,4.51,4.48
59.16,7.15,2.65,7.14,2.65,-2.64,-2.53,-2.60,4.51,4.51,4.49
59.76,7.12,2.60,7.12,2.60,-2.62,-2.51,-2.60,4.51,4.51,4.52
60.35,7.10,2.56,7.10,2.57,-2.60,-2.50,-2.59,4.50,4.50,4.53
60.96,7.07,2.54,7.07,2.55,-2.57,-2.48,-2.57,4.49,4.49,4.53
61.57,7.04,2.54,7.04,2.54,-2.55,-2.46,-2.56,4.49,4.49,4.50
62.18,7.00,2.54,7.00,2.54,-2.52,-2.45,-2.54,4.48,4.48,4.46
62.80,6.97,2.53,6.97,2.52,-2.49,-2.44,-2.53,4.48,4.48,4.44
63.43,6.93,2.49,6.93,2.49,-2.46,-2.42,-2.51,4.47,4.47,4.44
64.07,6.89,2.45,6.89,2.45,-2.44,-2.41,-2.49,4.45,4.45,4.44
64.71,6.85,2.39,6.85,2.40,-2.42,-2.39,-2.46,4.43,4.43,4.46
65.35,6.81,2.36,6.81,2.36,-2.40,-2.38,-2.44,4.41,4.41,4.45
66.01,6.77,2.34,6.77,2.35,-2.38,-2.37,-2.41,4.39,4.39,4.43
66.67,6.73,2.35,6.73,2.35,-2.36,-2.35,-2.38,4.38,4.38,4.39
67.33,6.70,2.35,6.70,2.35,-2.34,-2.34,-2.35,4.36,4.36,4.34
68.01,6.66,2.36,6.66,2.35,-2.31,-2.33,-2.32,4.35,4.35,4.31
68.69,6.63,2.33,6.63,2.33,-2.29,-2.32,-2.29,4.34,4.34,4.30
69.37,6.60,2.29,6.60,2.29,-2.27,-2.30,-2.25,4.33,4.33,4.31
70.07,6.56,2.23,6.56,2.23,-2.24,-2.29,-2.22,4.32,4.32,4.33
70.77,6.53,2.18,6.53,2.19,-2.21,-2.28,-2.18,4.32,4.32,4.35
71.48,6.50,2.15,6.50,2.15,-2.19,-2.27,-2.15,4.31,4.31,4.35
72.19,6.47,2.13,6.47,2.14,-2.17,-2.26,-2.11,4.30,4.30,4.33
72.91,6.44,2.13,6.44,2.13,-2.15,-2.24,-2.07,4.29,4.29,4.30
73.64,6.40,2.14,6.40,2.14,-2.13,-2.23,-2.03,4.27,4.27,4.26
74.38,6.36,2.14,6.36,2.14,-2.11,-2.22,-2.00,4.25,4.25,4.22
75.12,6.31,2.12,6.31,2.12,-2.09,-2.20,-1.96,4.22,4.22,4.19
75.87,6.26,2.09,6.26,2.09,-2.07,-2.19,-1.92,4.20,4.20,4.18
76.63,6.22,2.04,6.22,2.04,-2.03,-2.17,-1.88,4.19,4.19,4.17
77.40,6.17,1.99,6.17,1.99,-1.99,-2.16,-1.85,4.18,4.18,4.18
78.17,6.13,1.93,6.13,1.93,-1.94,-2.14,-1.81,4.19,4.19,4.19
78.95,6.09,1.88,6.09,1.88,-1.89,-2.12,-1.78,4.20,4.20,4.21
79.74,6.06,1.84,6.06,1.84,-1.84,-2.10,-1.74,4.21,4.21,4.22
80.54,6.02,1.80,6.02,1.80,-1.81,-2.08,-1.71,4.22,4.22,4.23
81.35,5.99,1.76,5.99,1.77,-1.78,-2.07,-1.67,4.21,4.21,4.23
82.16,5.96,1.75,5.96,1.75,-1.76,-2.04,-1.64,4.20,4.20,4.21
82.98,5.92,1.74,5.92,1.74,-1.75,-2.02,-1.61,4.16,4.16,4.18
83.81,5.88,1.75,5.88,1.75,-1.76,-2.00,-1.58,4.12,4.12,4.13
84.65,5.83,1.77,5.83,1.77,-1.77,-1.98,-1.55,4.07,4.07,4.06
85.50,5.79,1.79,5.79,1.79,-1.78,-1.95,-1.52,4.01,4.01,4.00
86.35,5.75,1.80,5.75,1.80,-1.80,-1.92,-1.50,3.95,3.95,3.95
87.22,5.71,1.82,5.71,1.82,-1.82,-1.90,-1.47,3.89,3.89,3.89
88.09,5.66,1.83,5.66,1.83,-1.83,-1.87,-1.45,3.83,3.83,3.83
88.97,5.62,1.84,5.62,1.85,-1.84,-1.84,-1.42,3.78,3.78,3.77
89.86,5.57,1.86,5.57,1.85,-1.84,-1.81,-1.40,3.73,3.73,3.72
90.76,5.52,1.85,5.52,1.85,-1.83,-1.78,-1.38,3.69,3.69,3.67
91.66,5.47,1.83,5.47,1.83,-1.81,-1.75,-1.36,3.66,3.66,3.64
92.58,5.42,1.80,5.42,1.80,-1.79,-1.72,-1.34,3.63,3.63,3.62
93.51,5.37,1.75,5.37,1.76,-1.76,-1.69,-1.32,3.61,3.61,3.62
94.44,5.32,1.71,5.32,1.71,-1.73,-1.66,-1.30,3.58,3.58,3.60
95.39,5.26,1.68,5.26,1.68,-1.70,-1.63,-1.28,3.56,3.56,3.58
96.34,5.21,1.66,5.21,1.66,-1.68,-1.60,-1.27,3.53,3.53,3.55
97.30,5.15,1.64,5.15,1.64,-1.65,-1.57,-1.25,3.49,3.49,3.51
98.28,5.09,1.63,5.09,1.63,-1.63,-1.54,-1.24,3.45,3.45,3.46
99.26,5.03,1.61,5.03,1.61,-1.61,-1.50,-1.23,3.42,3.42,3.42
100.25,4.97,1.59,4.97,1.59,-1.58,-1.47,-1.21,3.38,3.38,3.38
101.25,4.91,1.56,4.91,1.56,-1.54,-1.44,-1.20,3.37,3.37,3.34
102.27,4.84,1.51,4.84,1.51,-1.48,-1.41,-1.19,3.37,3.37,3.33
103.29,4.78,1.45,4.78,1.45,-1.39,-1.38,-1.18,3.39,3.39,3.33
104.32,4.73,1.36,4.73,1.35,-1.30,-1.35,-1.17,3.42,3.42,3.36
105.37,4.67,1.24,4.67,1.24,-1.21,-1.32,-1.16,3.46,3.46,3.43
106.42,4.62,1.12,4.62,1.12,-1.13,-1.29,-1.15,3.49,3.49,3.50
107.48,4.58,1.01,4.58,1.02,-1.08,-1.26,-1.14,3.50,3.50,3.57
108.56,4.55,0.96,4.55,0.96,-1.06,-1.23,-1.14,3.49,3.49,3.59
109.64,4.53,0.97,4.53,0.97,-1.08,-1.20,-1.13,3.46,3.45,3.56
110.74,4.52,1.03,4.52,1.05,-1.12,-1.17,-1.12,3.40,3.40,3.49
111.85,4.52,1.17,4.52,1.17,-1.19,-1.15,-1.11,3.33,3.33,3.35
112.97,4.53,1.31,4.53,1.31,-1.27,-1.12,-1.10,3.26,3.26,3.21
114.10,4.53,1.44,4.53,1.42,-1.33,-1.09,-1.09,3.19,3.19,3.09
115.24,4.52,1.49,4.52,1.48,-1.38,-1.07,-1.09,3.14,3.14,3.03
116.39,4.51,1.47,4.51,1.48,-1.40,-1.04,-1.08,3.11,3.11,3.04
117.55,4.49,1.43,4.49,1.42,-1.39,-1.02,-1.07,3.10,3.10,3.06
118.73,4.46,1.34,4.46,1.34,-1.35,-0.99,-1.06,3.11,3.11,3.12
119.92,4.42,1.24,4.42,1.25,-1.28,-0.97,-1.05,3.14,3.14,3.18
121.12,4.38,1.16,4.37,1.16,-1.20,-0.94,-1.04,3.18,3.18,3.22
122.33,4.32,1.08,4.32,1.09,-1.12,-0.92,-1.03,3.20,3.20,3.24
123.55,4.26,1.03,4.26,1.03,-1.05,-0.89,-1.01,3.21,3.21,3.24
124.79,4.20,0.98,4.20,0.98,-0.99,-0.87,-1.00,3.21,3.21,3.22
126.03,4.14,0.94,4.14,0.94,-0.94,-0.85,-0.99,3.20,3.20,3.20
127.29,4.08,0.91,4.08,0.91,-0.90,-0.83,-0.97,3.18,3.18,3.17
128.57,4.02,0.88,4.02,0.88,-0.87,-0.81,-0.96,3.15,3.15,3.15
129.85,3.96,0.85,3.96,0.85,-0.85,-0.79,-0.94,3.12,3.12,3.12
131.15,3.91,0.82,3.91,0.82,-0.83,-0.77,-0.93,3.08,3.08,3.09
132.46,3.85,0.80,3.85,0.80,-0.80,-0.75,-0.91,3.04,3.04,3.05
133.79,3.79,0.78,3.79,0.78,-0.78,-0.73,-0.89,3.01,3.01,3.01
135.12,3.73,0.76,3.73,0.76,-0.75,-0.71,-0.87,2.99,2.99,2.97
136.48,3.67,0.73,3.67,0.73,-0.71,-0.69,-0.86,2.96,2.96,2.94
137.84,3.61,0.69,3.61,0.69,-0.68,-0.67,-0.84,2.94,2.94,2.92
139.22,3.55,0.64,3.55,0.64,-0.64,-0.65,-0.82,2.92,2.92,2.91
140.61,3.50,0.59,3.50,0.59,-0.60,-0.63,-0.80,2.90,2.90,2.90
142.02,3.44,0.55,3.44,0.55,-0.56,-0.62,-0.78,2.88,2.88,2.89
143.44,3.38,0.51,3.38,0.51,-0.53,-0.60,-0.76,2.85,2.86,2.87
144.87,3.33,0.48,3.33,0.48,-0.50,-0.58,-0.74,2.83,2.83,2.84
146.32,3.27,0.47,3.27,0.47,-0.47,-0.56,-0.72,2.80,2.80,2.81
147.78,3.22,0.45,3.22,0.45,-0.45,-0.55,-0.69,2.77,2.77,2.77
149.26,3.17,0.44,3.17,0.44,-0.43,-0.53,-0.67,2.73,2.73,2.72
150.75,3.12,0.43,3.12,0.43,-0.42,-0.52,-0.65,2.70,2.70,2.69
152.26,3.07,0.41,3.07,0.41,-0.41,-0.50,-0.63,2.66,2.66,2.66
153.78,3.02,0.39,3.02,0.39,-0.39,-0.48,-0.61,2.63,2.63,2.63
155.32,2.98,0.38,2.98,0.38,-0.38,-0.47,-0.59,2.60,2.60,2.60
156.88,2.93,0.36,2.93,0.36,-0.37,-0.46,-0.57,2.56,2.56,2.57
158.44,2.89,0.35,2.89,0.35,-0.36,-0.44,-0.55,2.53,2.53,2.54
160.03,2.85,0.35,2.85,0.35,-0.35,-0.43,-0.53,2.50,2.50,2.50
161.63,2.80,0.34,2.80,0.34,-0.34,-0.41,-0.51,2.46,2.46,2.46
163.24,2.75,0.33,2.75,0.33,-0.33,-0.40,-0.49,2.42,2.42,2.42
164.88,2.70,0.32,2.70,0.32,-0.32,-0.38,-0.47,2.38,2.38,2.38
166.53,2.65,0.31,2.65,0.31,-0.30,-0.37,-0.45,2.34,2.34,2.34
168.19,2.59,0.29,2.59,0.29,-0.29,-0.36,-0.43,2.30,2.30,2.30
169.87,2.53,0.27,2.53,0.27,-0.27,-0.34,-0.41,2.26,2.26,2.26
171.57,2.48,0.25,2.48,0.25,-0.25,-0.33,-0.39,2.23,2.23,2.23
173.29,2.42,0.23,2.42,0.23,-0.23,-0.32,-0.37,2.19,2.19,2.19
175.02,2.36,0.21,2.36,0.21,-0.21,-0.31,-0.35,2.15,2.15,2.15
176.77,2.30,0.19,2.30,0.19,-0.18,-0.29,-0.33,2.12,2.12,2.12
178.54,2.24,0.16,2.24,0.16,-0.16,-0.28,-0.31,2.08,2.08,2.08
180.32,2.19,0.14,2.19,0.14,-0.14,-0.27,-0.29,2.05,2.05,2.05
182.13,2.13,0.12,2.13,0.12,-0.12,-0.26,-0.28,2.01,2.01,2.01
183.95,2.07,0.10,2.07,0.10,-0.10,-0.24,-0.26,1.97,1.97,1.97
185.79,2.02,0.08,2.02,0.08,-0.08,-0.23,-0.24,1.93,1.93,1.93
187.65,1.96,0.07,1.96,0.07,-0.07,-0.22,-0.22,1.89,1.89,1.89
189.52,1.91,0.06,1.91,0.06,-0.06,-0.21,-0.21,1.85,1.85,1.85
191.42,1.85,0.05,1.85,0.05,-0.05,-0.20,-0.19,1.80,1.80,1.80
193.33,1.80,0.05,1.80,0.05,-0.05,-0.19,-0.17,1.76,1.76,1.76
195.27,1.76,0.05,1.76,0.05,-0.05,-0.17,-0.16,1.71,1.71,1.71
197.22,1.71,0.05,1.71,0.05,-0.05,-0.16,-0.14,1.66,1.66,1.66
199.19,1.67,0.05,1.67,0.05,-0.06,-0.15,-0.12,1.62,1.62,1.62
201.18,1.64,0.06,1.64,0.06,-0.07,-0.14,-0.11,1.57,1.57,1.58
203.19,1.61,0.08,1.62,0.08,-0.08,-0.13,-0.09,1.53,1.53,1.54
205.23,1.59,0.10,1.59,0.10,-0.10,-0.12,-0.08,1.49,1.49,1.50
207.28,1.57,0.12,1.57,0.12,-0.12,-0.11,-0.06,1.45,1.45,1.45
209.35,1.55,0.15,1.55,0.15,-0.14,-0.10,-0.05,1.41,1.41,1.41
211.44,1.53,0.17,1.53,0.17,-0.16,-0.09,-0.03,1.37,1.37,1.36
213.56,1.50,0.19,1.50,0.19,-0.18,-0.08,-0.02,1.33,1.33,1.32
215.69,1.47,0.19,1.47,0.20,-0.19,-0.07,-0.00,1.28,1.28,1.27
217.85,1.43,0.20,1.43,0.20,-0.19,-0.06,0.01,1.24,1.24,1.23
220.03,1.39,0.19,1.39,0.19,-0.19,-0.05,0.02,1.20,1.20,1.19
222.23,1.34,0.18,1.34,0.19,-0.18,-0.04,0.04,1.16,1.16,1.16
224.45,1.29,0.17,1.29,0.17,-0.17,-0.02,0.05,1.12,1.13,1.12
226.70,1.25,0.15,1.25,0.15,-0.15,-0.01,0.06,1.09,1.09,1.09
228.96,1.20,0.13,1.20,0.13,-0.13,-0.00,0.07,1.06,1.06,1.07
231.25,1.15,0.11,1.15,0.11,-0.11,0.01,0.09,1.04,1.04,1.04
233.57,1.10,0.09,1.10,0.09,-0.09,0.02,0.10,1.01,1.01,1.01
235.90,1.05,0.07,1.05,0.07,-0.07,0.03,0.11,0.98,0.98,0.98
238.26,1.00,0.05,1.00,0.05,-0.05,0.04,0.12,0.95,0.95,0.95
240.64,0.95,0.03,0.95,0.03,-0.04,0.05,0.13,0.91,0.91,0.92
243.05,0.90,0.02,0.90,0.02,-0.02,0.06,0.14,0.88,0.88,0.88
245.48,0.85,0.01,0.85,0.01,-0.01,0.07,0.15,0.84,0.84,0.85
247.93,0.81,-0.00,0.81,-0.00,0.00,0.08,0.15,0.81,0.81,0.81
250.41,0.76,-0.01,0.76,-0.01,0.02,0.09,0.16,0.78,0.78,0.77
252.92,0.71,-0.03,0.71,-0.03,0.04,0.10,0.17,0.75,0.75,0.74
255.45,0.66,-0.05,0.66,-0.05,0.06,0.11,0.18,0.73,0.73,0.71
258.00,0.61,-0.08,0.62,-0.08,0.09,0.12,0.18,0.71,0.71,0.70
260.58,0.57,-0.12,0.57,-0.12,0.13,0.13,0.19,0.70,0.70,0.69
263.19,0.52,-0.17,0.52,-0.16,0.16,0.14,0.19,0.69,0.69,0.69
265.82,0.48,-0.21,0.48,-0.20,0.20,0.15,0.20,0.68,0.68,0.69
268.48,0.44,-0.24,0.44,-0.24,0.23,0.16,0.20,0.67,0.67,0.68
271.16,0.40,-0.27,0.39,-0.27,0.26,0.17,0.21,0.66,0.66,0.67
273.87,0.35,-0.29,0.35,-0.29,0.29,0.18,0.21,0.64,0.64,0.65
276.61,0.31,-0.31,0.31,-0.31,0.31,0.19,0.21,0.62,0.62,0.62
279.38,0.27,-0.33,0.27,-0.33,0.33,0.20,0.22,0.60,0.60,0.60
282.17,0.22,-0.35,0.22,-0.35,0.35,0.21,0.22,0.57,0.57,0.57
284.99,0.18,-0.36,0.18,-0.36,0.36,0.21,0.22,0.54,0.54,0.54
287.84,0.14,-0.37,0.14,-0.37,0.37,0.22,0.23,0.51,0.51,0.51
290.72,0.09,-0.38,0.09,-0.38,0.38,0.23,0.23,0.47,0.47,0.48
293.63,0.05,-0.39,0.05,-0.39,0.39,0.24,0.23,0.44,0.44,0.44
296.57,0.01,-0.39,0.01,-0.39,0.39,0.25,0.24,0.40,0.40,0.40
299.53,-0.03,-0.39,-0.03,-0.39,0.39,0.26,0.24,0.37,0.37,0.37
302.53,-0.07,-0.40,-0.07,-0.40,0.40,0.27,0.24,0.33,0.33,0.33
305.55,-0.11,-0.40,-0.11,-0.40,0.40,0.28,0.25,0.29,0.29,0.29
308.61,-0.14,-0.40,-0.14,-0.40,0.40,0.29,0.25,0.26,0.26,0.26
311.69,-0.18,-0.40,-0.18,-0.40,0.40,0.30,0.25,0.22,0.22,0.22
314.81,-0.22,-0.41,-0.22,-0.41,0.41,0.31,0.25,0.19,0.19,0.19
317.96,-0.26,-0.41,-0.26,-0.41,0.41,0.32,0.26,0.15,0.15,0.15
321.14,-0.29,-0.42,-0.29,-0.42,0.41,0.33,0.26,0.12,0.12,0.12
324.35,-0.33,-0.42,-0.33,-0.42,0.42,0.34,0.26,0.09,0.09,0.09
327.59,-0.37,-0.42,-0.37,-0.42,0.42,0.35,0.27,0.05,0.05,0.05
330.87,-0.41,-0.43,-0.41,-0.43,0.43,0.36,0.27,0.02,0.02,0.02
334.18,-0.44,-0.43,-0.44,-0.43,0.43,0.37,0.28,-0.01,-0.01,-0.01
337.52,-0.48,-0.43,-0.48,-0.43,0.43,0.38,0.28,-0.05,-0.05,-0.05
340.90,-0.51,-0.43,-0.51,-0.43,0.43,0.39,0.29,-0.08,-0.08,-0.08
344.30,-0.55,-0.44,-0.55,-0.44,0.44,0.40,0.29,-0.11,-0.11,-0.11
347.75,-0.58,-0.44,-0.58,-0.44,0.44,0.41,0.30,-0.14,-0.14,-0.14
351.23,-0.61,-0.44,-0.61,-0.44,0.44,0.42,0.30,-0.17,-0.17,-0.17
354.74,-0.65,-0.45,-0.65,-0.45,0.45,0.43,0.31,-0.20,-0.20,-0.20
358.28,-0.68,-0.45,-0.68,-0.45,0.45,0.43,0.31,-0.23,-0.23,-0.23
361.87,-0.71,-0.45,-0.71,-0.45,0.45,0.44,0.32,-0.26,-0.26,-0.26
365.49,-0.74,-0.45,-0.74,-0.45,0.45,0.45,0.33,-0.29,-0.29,-0.29
369.14,-0.77,-0.46,-0.77,-0.46,0.46,0.46,0.34,-0.32,-0.32,-0.32
372.83,-0.81,-0.46,-0.81,-0.46,0.46,0.47,0.34,-0.35,-0.35,-0.35
376.56,-0.84,-0.46,-0.84,-0.46,0.46,0.48,0.35,-0.38,-0.38,-0.38
380.33,-0.87,-0.46,-0.87,-0.46,0.46,0.49,0.36,-0.41,-0.41,-0.41
384.13,-0.90,-0.46,-0.90,-0.46,0.46,0.50,0.37,-0.43,-0.43,-0.43
387.97,-0.93,-0.46,-0.93,-0.47,0.47,0.50,0.37,-0.46,-0.46,-0.46
391.85,-0.96,-0.47,-0.96,-0.47,0.47,0.51,0.38,-0.49,-0.49,-0.49
395.77,-0.98,-0.47,-0.98,-0.47,0.47,0.52,0.39,-0.51,-0.51,-0.51
399.73,-1.01,-0.47,-1.01,-0.47,0.47,0.53,0.40,-0.54,-0.54,-0.54
403.72,-1.04,-0.48,-1.04,-0.48,0.48,0.53,0.41,-0.57,-0.57,-0.57
407.76,-1.07,-0.48,-1.07,-0.48,0.48,0.54,0.42,-0.59,-0.59,-0.59
411.84,-1.10,-0.48,-1.10,-0.48,0.48,0.55,0.43,-0.62,-0.62,-0.62
415.96,-1.12,-0.48,-1.12,-0.48,0.48,0.56,0.43,-0.64,-0.64,-0.64
420.12,-1.15,-0.48,-1.15,-0.48,0.48,0.56,0.44,-0.67,-0.67,-0.67
424.32,-1.17,-0.48,-1.17,-0.48,0.48,0.57,0.45,-0.69,-0.69,-0.69
428.56,-1.20,-0.48,-1.20,-0.48,0.48,0.57,0.46,-0.72,-0.72,-0.72
432.85,-1.22,-0.48,-1.22,-0.48,0.49,0.58,0.47,-0.74,-0.74,-0.74
437.18,-1.25,-0.49,-1.25,-0.49,0.49,0.59,0.48,-0.76,-0.76,-0.76
441.55,-1.27,-0.49,-1.27,-0.49,0.49,0.59,0.48,-0.78,-0.78,-0.78
445.96,-1.29,-0.49,-1.29,-0.49,0.49,0.60,0.49,-0.81,-0.81,-0.81
450.42,-1.32,-0.49,-1.32,-0.49,0.49,0.60,0.50,-0.83,-0.83,-0.83
454.93,-1.34,-0.49,-1.34,-0.49,0.49,0.61,0.51,-0.85,-0.85,-0.85
459.48,-1.36,-0.49,-1.36,-0.49,0.49,0.61,0.51,-0.87,-0.87,-0.87
464.07,-1.38,-0.49,-1.38,-0.49,0.49,0.62,0.52,-0.89,-0.89,-0.89
468.71,-1.40,-0.49,-1.40,-0.49,0.49,0.62,0.52,-0.91,-0.91,-0.92
473.40,-1.42,-0.49,-1.42,-0.49,0.49,0.62,0.53,-0.93,-0.93,-0.94
478.13,-1.44,-0.49,-1.44,-0.49,0.49,0.63,0.53,-0.95,-0.95,-0.95
482.91,-1.46,-0.49,-1.46,-0.49,0.49,0.63,0.53,-0.97,-0.97,-0.97
487.74,-1.48,-0.49,-1.48,-0.49,0.49,0.63,0.53,-0.99,-0.99,-0.99
492.62,-1.50,-0.49,-1.50,-0.49,0.49,0.63,0.53,-1.01,-1.01,-1.01
497.55,-1.51,-0.49,-1.51,-0.49,0.49,0.63,0.53,-1.03,-1.03,-1.03
502.52,-1.53,-0.49,-1.53,-0.49,0.49,0.64,0.53,-1.04,-1.04,-1.04
507.55,-1.55,-0.49,-1.55,-0.49,0.49,0.64,0.53,-1.06,-1.06,-1.06
512.62,-1.56,-0.49,-1.56,-0.49,0.49,0.64,0.53,-1.07,-1.07,-1.07
517.75,-1.58,-0.49,-1.58,-0.49,0.49,0.64,0.53,-1.09,-1.09,-1.09
522.93,-1.59,-0.49,-1.59,-0.49,0.49,0.64,0.52,-1.10,-1.10,-1.10
528.16,-1.61,-0.49,-1.61,-0.49,0.49,0.64,0.52,-1.12,-1.12,-1.12
533.44,-1.62,-0.49,-1.62,-0.49,0.49,0.64,0.51,-1.13,-1.13,-1.13
