frequency,raw,error,smoothed,error_smoothed,equalization,parametric_eq,fixed_band_eq,equalized_raw,equalized_smoothed,target
20.00,7.58,-5.27,7.58,-5.27,5.30,-0.11,1.36,12.89,12.89,12.85
20.20,7.60,-5.26,7.60,-5.26,5.27,-0.11,1.40,12.86,12.86,12.86
20.40,7.61,-5.24,7.61,-5.24,5.23,-0.11,1.44,12.84,12.84,12.86
20.61,7.63,-5.22,7.63,-5.22,5.19,-0.11,1.49,12.82,12.82,12.85
20.81,7.65,-5.18,7.65,-5.18,5.15,-0.11,1.54,12.80,12.80,12.83
21.02,7.67,-5.13,7.67,-5.13,5.11,-0.12,1.59,12.78,12.78,12.81
21.23,7.70,-5.08,7.69,-5.08,5.07,-0.12,1.63,12.77,12.76,12.78
21.44,7.72,-5.02,7.72,-5.02,5.03,-0.12,1.69,12.74,12.74,12.74
21.66,7.74,-4.97,7.74,-4.97,4.97,-0.13,1.74,12.71,12.71,12.71
21.87,7.76,-4.91,7.76,-4.91,4.92,-0.13,1.79,12.69,12.69,12.67
22.09,7.78,-4.86,7.78,-4.87,4.88,-0.13,1.85,12.66,12.66,12.65
22.31,7.81,-4.82,7.81,-4.82,4.83,-0.13,1.90,12.64,12.64,12.63
22.54,7.83,-4.79,7.83,-4.79,4.80,-0.14,1.96,12.62,12.62,12.62
22.76,7.85,-4.76,7.85,-4.76,4.76,-0.14,2.02,12.61,12.61,12.61
22.99,7.87,-4.73,7.87,-4.73,4.73,-0.14,2.08,12.60,12.60,12.60
23.22,7.90,-4.70,7.90,-4.70,4.70,-0.15,2.15,12.59,12.59,12.60
23.45,7.93,-4.67,7.93,-4.67,4.66,-0.15,2.21,12.59,12.59,12.59
23.69,7.95,-4.63,7.95,-4.63,4.62,-0.15,2.28,12.58,12.58,12.58
23.92,7.98,-4.58,7.98,-4.58,4.58,-0.16,2.34,12.56,12.56,12.57
24.16,8.02,-4.53,8.02,-4.53,4.53,-0.16,2.41,12.54,12.54,12.55
24.40,8.05,-4.47,8.05,-4.47,4.47,-0.16,2.48,12.52,12.52,12.52
24.65,8.09,-4.41,8.09,-4.41,4.41,-0.17,2.55,12.50,12.50,12.50
24.89,8.12,-4.34,8.12,-4.34,4.35,-0.17,2.62,12.47,12.47,12.47
25.14,8.16,-4.27,8.16,-4.27,4.27,-0.17,2.69,12.44,12.44,12.43
25.39,8.20,-4.20,8.20,-4.20,4.20,-0.18,2.76,12.40,12.40,12.40
25.65,8.24,-4.12,8.24,-4.12,4.11,-0.18,2.82,12.36,12.36,12.36
25.91,8.29,-4.03,8.29,-4.03,4.03,-0.19,2.89,12.31,12.31,12.32
26.16,8.33,-3.94,8.33,-3.94,3.94,-0.19,2.96,12.27,12.27,12.27
26.43,8.38,-3.85,8.38,-3.85,3.85,-0.20,3.03,12.22,12.22,12.22
26.69,8.42,-3.75,8.42,-3.75,3.76,-0.20,3.10,12.18,12.18,12.17
26.96,8.46,-3.66,8.46,-3.66,3.67,-0.20,3.16,12.13,12.13,12.12
27.23,8.51,-3.57,8.51,-3.57,3.58,-0.21,3.22,12.09,12.09,12.08
27.50,8.55,-3.48,8.55,-3.49,3.50,-0.21,3.28,12.05,12.05,12.04
27.77,8.60,-3.41,8.60,-3.41,3.42,-0.22,3.33,12.01,12.01,12.01
28.05,8.64,-3.34,8.64,-3.34,3.33,-0.22,3.39,11.97,11.97,11.98
28.33,8.69,-3.26,8.69,-3.26,3.25,-0.23,3.43,11.93,11.93,11.95
28.62,8.73,-3.18,8.73,-3.18,3.16,-0.24,3.48,11.89,11.89,11.91
28.90,8.78,-3.08,8.78,-3.08,3.07,-0.24,3.51,11.85,11.85,11.87
29.19,8.83,-2.98,8.83,-2.98,2.97,-0.25,3.55,11.80,11.80,11.81
29.48,8.88,-2.87,8.88,-2.87,2.88,-0.25,3.57,11.76,11.76,11.76
29.78,8.94,-2.77,8.94,-2.77,2.79,-0.26,3.59,11.72,11.72,11.70
30.08,8.99,-2.67,8.99,-2.67,2.70,-0.26,3.60,11.69,11.69,11.66
30.38,9.05,-2.59,9.05,-2.59,2.61,-0.27,3.61,11.66,11.66,11.63
30.68,9.10,-2.52,9.10,-2.52,2.53,-0.28,3.60,11.63,11.63,11.62
30.99,9.16,-2.45,9.16,-2.45,2.44,-0.28,3.59,11.60,11.60,11.61
31.30,9.22,-2.37,9.22,-2.37,2.34,-0.29,3.57,11.56,11.56,11.59
31.61,9.27,-2.28,9.27,-2.28,2.24,-0.30,3.55,11.51,11.51,11.55
31.93,9.33,-2.17,9.33,-2.16,2.13,-0.31,3.51,11.46,11.46,11.50
32.24,9.39,-2.03,9.39,-2.03,2.02,-0.31,3.47,11.41,11.41,11.42
32.57,9.45,-1.89,9.45,-1.89,1.91,-0.32,3.42,11.35,11.35,11.34
32.89,9.51,-1.76,9.51,-1.76,1.79,-0.33,3.36,11.30,11.30,11.27
33.22,9.57,-1.65,9.57,-1.65,1.69,-0.34,3.29,11.25,11.25,11.21
33.55,9.62,-1.56,9.62,-1.56,1.59,-0.35,3.22,11.21,11.21,11.18
33.89,9.68,-1.49,9.68,-1.49,1.49,-0.35,3.15,11.17,11.17,11.17
34.23,9.74,-1.43,9.74,-1.42,1.41,-0.36,3.06,11.15,11.15,11.17
34.57,9.80,-1.36,9.80,-1.36,1.33,-0.37,2.97,11.13,11.13,11.16
34.92,9.86,-1.28,9.86,-1.28,1.27,-0.38,2.88,11.12,11.12,11.14
35.27,9.91,-1.20,9.91,-1.20,1.21,-0.39,2.78,11.12,11.12,11.11
35.62,9.97,-1.12,9.97,-1.12,1.14,-0.40,2.68,11.11,11.11,11.09
35.97,10.02,-1.05,10.02,-1.06,1.08,-0.41,2.57,11.10,11.10,11.07
36.33,10.08,-1.00,10.08,-1.00,1.01,-0.42,2.46,11.09,11.09,11.08
36.70,10.13,-0.95,10.13,-0.95,0.94,-0.44,2.35,11.07,11.07,11.08
37.06,10.19,-0.89,10.19,-0.89,0.86,-0.45,2.23,11.04,11.04,11.08
37.43,10.24,-0.81,10.24,-0.81,0.77,-0.46,2.11,11.01,11.01,11.05
37.81,10.29,-0.70,10.29,-0.70,0.68,-0.47,1.99,10.97,10.97,10.99
38.19,10.35,-0.58,10.35,-0.58,0.58,-0.48,1.87,10.93,10.93,10.92
38.57,10.40,-0.46,10.40,-0.46,0.48,-0.50,1.75,10.88,10.88,10.85
38.95,10.45,-0.35,10.45,-0.35,0.37,-0.51,1.62,10.82,10.82,10.80
39.34,10.50,-0.25,10.50,-0.25,0.27,-0.53,1.50,10.76,10.76,10.75
39.74,10.55,-0.16,10.55,-0.16,0.16,-0.54,1.37,10.71,10.71,10.71
40.14,10.59,-0.08,10.59,-0.08,0.07,-0.56,1.25,10.66,10.66,10.67
40.54,10.64,0.01,10.64,0.01,-0.02,-0.57,1.12,10.62,10.62,10.63
40.94,10.69,0.10,10.69,0.10,-0.10,-0.59,1.00,10.59,10.59,10.59
41.35,10.73,0.18,10.73,0.18,-0.17,-0.60,0.87,10.56,10.56,10.55
41.76,10.78,0.25,10.78,0.25,-0.24,-0.62,0.74,10.53,10.53,10.52
42.18,10.82,0.31,10.82,0.31,-0.31,-0.64,0.62,10.51,10.51,10.51
42.60,10.86,0.37,10.86,0.37,-0.37,-0.66,0.49,10.49,10.49,10.49
43.03,10.90,0.42,10.90,0.42,-0.42,-0.68,0.36,10.48,10.48,10.48
43.46,10.94,0.48,10.94,0.48,-0.48,-0.70,0.24,10.46,10.46,10.47
43.90,10.98,0.53,10.98,0.53,-0.54,-0.72,0.11,10.45,10.45,10.45
44.33,11.02,0.59,11.02,0.59,-0.60,-0.74,-0.02,10.43,10.43,10.43
44.78,11.06,0.65,11.06,0.65,-0.66,-0.77,-0.15,10.40,10.40,10.41
45.23,11.10,0.71,11.10,0.71,-0.72,-0.79,-0.27,10.37,10.37,10.38
45.68,11.13,0.79,11.13,0.79,-0.79,-0.81,-0.40,10.34,10.34,10.35
46.13,11.17,0.87,11.17,0.86,-0.86,-0.84,-0.52,10.31,10.31,10.30
46.60,11.20,0.94,11.20,0.94,-0.93,-0.87,-0.65,10.28,10.28,10.26
47.06,11.24,1.01,11.24,1.01,-1.00,-0.90,-0.78,10.24,10.24,10.23
47.53,11.27,1.08,11.27,1.08,-1.07,-0.92,-0.90,10.20,10.20,10.19
48.01,11.30,1.15,11.30,1.15,-1.15,-0.96,-1.03,10.16,10.16,10.16
48.49,11.33,1.22,11.33,1.22,-1.23,-0.99,-1.15,10.10,10.11,10.11
48.97,11.36,1.30,11.36,1.30,-1.32,-1.02,-1.28,10.05,10.05,10.06
49.46,11.39,1.39,11.39,1.39,-1.41,-1.06,-1.41,9.98,9.98,10.00
49.96,11.42,1.49,11.42,1.50,-1.52,-1.09,-1.53,9.90,9.90,9.92
50.46,11.44,1.61,11.44,1.61,-1.62,-1.13,-1.65,9.82,9.82,9.83
50.96,11.46,1.73,11.46,1.73,-1.73,-1.17,-1.78,9.73,9.73,9.73
51.47,11.48,1.85,11.48,1.85,-1.83,-1.21,-1.90,9.65,9.65,9.63
51.99,11.50,1.95,11.50,1.95,-1.93,-1.26,-2.02,9.57,9.57,9.55
52.51,11.52,2.04,11.52,2.04,-2.01,-1.30,-2.14,9.51,9.51,9.49
53.03,11.54,2.11,11.54,2.11,-2.09,-1.35,-2.25,9.46,9.46,9.43
53.56,11.56,2.16,11.56,2.16,-2.14,-1.40,-2.37,9.41,9.41,9.40
54.10,11.57,2.19,11.57,2.19,-2.19,-1.46,-2.48,9.38,9.38,9.38
54.64,11.58,2.23,11.58,2.22,-2.23,-1.51,-2.59,9.35,9.35,9.36
55.18,11.59,2.25,11.59,2.25,-2.26,-1.57,-2.70,9.33,9.33,9.34
55.74,11.60,2.29,11.60,2.29,-2.29,-1.63,-2.81,9.31,9.31,9.32
56.29,11.61,2.32,11.61,2.32,-2.32,-1.70,-2.91,9.29,9.29,9.29
56.86,11.62,2.36,11.62,2.36,-2.37,-1.77,-3.00,9.26,9.26,9.26
57.42,11.63,2.42,11.63,2.42,-2.42,-1.84,-3.10,9.21,9.21,9.21
58.00,11.64,2.48,11.64,2.48,-2.49,-1.91,-3.18,9.15,9.15,9.17
58.58,11.65,2.56,11.65,2.56,-2.58,-1.99,-3.27,9.07,9.07,9.09
59.16,11.66,2.66,11.66,2.66,-2.68,-2.07,-3.34,8.98,8.98,9.00
59.76,11.67,2.78,11.67,2.78,-2.80,-2.16,-3.42,8.87,8.87,8.89
60.35,11.67,2.91,11.67,2.91,-2.93,-2.25,-3.48,8.74,8.74,8.76
60.96,11.68,3.05,11.68,3.05,-3.07,-2.35,-3.54,8.60,8.60,8.62
61.57,11.68,3.20,11.68,3.20,-3.21,-2.44,-3.60,8.47,8.47,8.47
62.18,11.68,3.35,11.68,3.35,-3.34,-2.55,-3.65,8.34,8.34,8.32
62.80,11.67,3.49,11.67,3.48,-3.44,-2.66,-3.69,8.23,8.23,8.19
63.43,11.67,3.58,11.67,3.58,-3.53,-2.77,-3.73,8.14,8.14,8.09
64.07,11.67,3.66,11.67,3.64,-3.58,-2.88,-3.76,8.08,8.08,8.01
64.71,11.66,3.66,11.66,3.66,-3.62,-3.00,-3.78,8.04,8.04,8.00
65.35,11.65,3.65,11.65,3.65,-3.65,-3.12,-3.80,8.01,8.01,8.00
66.01,11.65,3.62,11.65,3.63,-3.66,-3.24,-3.82,7.98,7.98,8.02
66.67,11.64,3.62,11.64,3.62,-3.68,-3.36,-3.82,7.96,7.96,8.02
67.33,11.63,3.64,11.63,3.64,-3.70,-3.49,-3.83,7.92,7.92,7.99
68.01,11.61,3.68,11.61,3.69,-3.73,-3.61,-3.83,7.88,7.88,7.93
68.69,11.60,3.76,11.60,3.76,-3.77,-3.73,-3.83,7.83,7.83,7.84
69.37,11.59,3.84,11.59,3.84,-3.81,-3.85,-3.82,7.78,7.78,7.75
70.07,11.57,3.90,11.57,3.89,-3.85,-3.96,-3.81,7.72,7.72,7.67
70.77,11.55,3.93,11.55,3.92,-3.88,-4.06,-3.80,7.67,7.67,7.63
71.48,11.53,3.93,11.54,3.93,-3.91,-4.15,-3.78,7.62,7.62,7.60
72.19,11.52,3.93,11.52,3.93,-3.93,-4.24,-3.76,7.59,7.59,7.59
72.91,11.50,3.92,11.50,3.92,-3.94,-4.31,-3.75,7.56,7.56,7.58
73.64,11.48,3.92,11.48,3.92,-3.94,-4.38,-3.73,7.54,7.54,7.56
74.38,11.45,3.93,11.45,3.93,-3.94,-4.42,-3.71,7.51,7.51,7.53
75.12,11.43,3.94,11.43,3.94,-3.95,-4.46,-3.69,7.49,7.49,7.49
75.87,11.41,3.95,11.41,3.95,-3.95,-4.48,-3.67,7.45,7.45,7.46
76.63,11.39,3.97,11.39,3.97,-3.97,-4.49,-3.65,7.42,7.42,7.42
77.40,11.36,3.99,11.36,3.99,-3.99,-4.48,-3.64,7.38,7.38,7.37
78.17,11.34,4.01,11.34,4.01,-4.01,-4.47,-3.62,7.33,7.33,7.33
78.95,11.31,4.03,11.31,4.03,-4.03,-4.45,-3.61,7.28,7.28,7.28
79.74,11.28,4.05,11.28,4.05,-4.05,-4.41,-3.60,7.23,7.23,7.23
80.54,11.25,4.08,11.25,4.08,-4.08,-4.38,-3.58,7.18,7.18,7.18
81.35,11.22,4.10,11.22,4.10,-4.10,-4.33,-3.58,7.12,7.12,7.12
82.16,11.19,4.13,11.19,4.13,-4.13,-4.29,-3.57,7.06,7.06,7.06
82.98,11.16,4.16,11.16,4.16,-4.16,-4.24,-3.57,7.00,7.00,7.00
83.81,11.12,4.19,11.12,4.19,-4.20,-4.20,-3.56,6.93,6.93,6.93
84.65,11.09,4.23,11.09,4.23,-4.23,-4.15,-3.56,6.86,6.86,6.86
85.50,11.06,4.27,11.06,4.27,-4.27,-4.11,-3.57,6.78,6.78,6.79
86.35,11.03,4.31,11.03,4.31,-4.31,-4.07,-3.57,6.71,6.71,6.72
87.22,11.00,4.35,11.00,4.35,-4.35,-4.03,-3.58,6.64,6.64,6.64
88.09,10.97,4.40,10.97,4.40,-4.39,-4.00,-3.60,6.58,6.57,6.57
88.97,10.93,4.44,10.93,4.44,-4.43,-3.97,-3.61,6.51,6.51,6.50
89.86,10.90,4.47,10.90,4.47,-4.46,-3.94,-3.63,6.44,6.44,6.43
90.76,10.85,4.49,10.85,4.49,-4.48,-3.93,-3.65,6.37,6.37,6.36
91.66,10.80,4.50,10.80,4.50,-4.51,-3.91,-3.67,6.30,6.30,6.30
92.58,10.75,4.52,10.75,4.52,-4.52,-3.90,-3.70,6.23,6.23,6.24
93.51,10.70,4.53,10.70,4.53,-4.54,-3.90,-3.73,6.17,6.17,6.18
94.44,10.65,4.54,10.65,4.54,-4.54,-3.90,-3.76,6.11,6.11,6.11
95.39,10.60,4.55,10.60,4.55,-4.54,-3.90,-3.79,6.06,6.06,6.05
96.34,10.55,4.55,10.55,4.55,-4.54,-3.92,-3.83,6.01,6.01,6.00
97.30,10.50,4.56,10.50,4.55,-4.53,-3.93,-3.87,5.97,5.97,5.95
98.28,10.45,4.54,10.45,4.54,-4.52,-3.95,-3.91,5.93,5.93,5.91
99.26,10.40,4.52,10.40,4.52,-4.52,-3.97,-3.95,5.88,5.88,5.88
100.25,10.35,4.49,10.35,4.50,-4.52,-4.00,-4.00,5.83,5.83,5.85
101.25,10.29,4.49,10.29,4.50,-4.53,-4.02,-4.04,5.76,5.76,5.80
102.27,10.24,4.52,10.24,4.52,-4.55,-4.06,-4.09,5.69,5.69,5.72
103.29,10.19,4.56,10.19,4.56,-4.57,-4.09,-4.14,5.61,5.61,5.63
104.32,10.13,4.61,10.13,4.61,-4.60,-4.13,-4.19,5.53,5.53,5.52
105.37,10.07,4.65,10.07,4.65,-4.63,-4.16,-4.24,5.45,5.45,5.42
106.42,10.02,4.68,10.02,4.68,-4.66,-4.20,-4.29,5.36,5.36,5.34
107.48,9.96,4.70,9.96,4.69,-4.68,-4.24,-4.34,5.28,5.28,5.26
108.56,9.90,4.70,9.90,4.70,-4.70,-4.28,-4.38,5.20,5.20,5.20
109.64,9.84,4.70,9.84,4.70,-4.71,-4.32,-4.43,5.13,5.13,5.14
110.74,9.78,4.70,9.78,4.70,-4.71,-4.36,-4.47,5.07,5.07,5.09
111.85,9.72,4.69,9.72,4.69,-4.70,-4.39,-4.52,5.02,5.02,5.03
112.97,9.65,4.68,9.65,4.68,-4.68,-4.43,-4.56,4.98,4.98,4.98
114.10,9.59,4.66,9.59,4.66,-4.65,-4.46,-4.59,4.94,4.94,4.93
115.24,9.52,4.63,9.52,4.63,-4.61,-4.49,-4.63,4.90,4.90,4.89
116.39,9.44,4.58,9.44,4.58,-4.57,-4.52,-4.66,4.88,4.88,4.86
117.55,9.37,4.53,9.37,4.52,-4.51,-4.54,-4.68,4.86,4.86,4.84
118.73,9.30,4.45,9.30,4.46,-4.45,-4.56,-4.70,4.85,4.85,4.84
119.92,9.23,4.38,9.23,4.38,-4.38,-4.57,-4.71,4.85,4.85,4.85
121.12,9.16,4.31,9.16,4.31,-4.31,-4.58,-4.72,4.85,4.85,4.85
122.33,9.09,4.24,9.09,4.23,-4.24,-4.59,-4.72,4.85,4.85,4.85
123.55,9.02,4.17,9.02,4.17,-4.18,-4.59,-4.72,4.84,4.84,4.85
124.79,8.95,4.11,8.95,4.11,-4.13,-4.58,-4.71,4.82,4.82,4.84
126.03,8.88,4.07,8.88,4.07,-4.10,-4.57,-4.70,4.78,4.78,4.81
127.29,8.80,4.05,8.80,4.05,-4.07,-4.55,-4.67,4.73,4.73,4.75
128.57,8.72,4.04,8.72,4.04,-4.05,-4.53,-4.65,4.67,4.67,4.68
129.85,8.64,4.04,8.64,4.04,-4.03,-4.49,-4.61,4.61,4.61,4.60
131.15,8.56,4.04,8.56,4.04,-4.02,-4.46,-4.57,4.54,4.54,4.52
132.46,8.48,4.03,8.48,4.03,-4.01,-4.42,-4.53,4.47,4.47,4.45
133.79,8.40,4.01,8.40,4.01,-3.99,-4.37,-4.48,4.41,4.41,4.39
135.12,8.32,3.98,8.32,3.98,-3.97,-4.32,-4.42,4.35,4.35,4.34
136.48,8.23,3.94,8.23,3.94,-3.94,-4.27,-4.36,4.29,4.29,4.29
137.84,8.15,3.90,8.15,3.90,-3.91,-4.20,-4.30,4.24,4.24,4.24
139.22,8.06,3.87,8.06,3.87,-3.88,-4.14,-4.23,4.18,4.18,4.19
140.61,7.97,3.83,7.97,3.84,-3.84,-4.07,-4.16,4.13,4.13,4.14
142.02,7.88,3.80,7.88,3.80,-3.81,-4.00,-4.08,4.07,4.07,4.08
143.44,7.79,3.77,7.79,3.77,-3.77,-3.93,-4.01,4.02,4.02,4.02
144.87,7.70,3.74,7.70,3.74,-3.74,-3.85,-3.93,3.96,3.96,3.96
146.32,7.60,3.70,7.60,3.70,-3.70,-3.77,-3.85,3.90,3.90,3.90
147.78,7.51,3.66,7.51,3.66,-3.66,-3.70,-3.77,3.84,3.84,3.84
149.26,7.41,3.62,7.41,3.62,-3.62,-3.61,-3.69,3.79,3.79,3.79
150.75,7.31,3.58,7.31,3.58,-3.58,-3.53,-3.61,3.73,3.73,3.73
152.26,7.22,3.54,7.22,3.54,-3.54,-3.45,-3.52,3.68,3.68,3.68
153.78,7.12,3.50,7.12,3.50,-3.50,-3.37,-3.44,3.62,3.62,3.62
155.32,7.02,3.45,7.02,3.45,-3.45,-3.29,-3.36,3.57,3.57,3.57
156.88,6.92,3.40,6.92,3.40,-3.40,-3.20,-3.28,3.52,3.52,3.52
158.44,6.82,3.35,6.82,3.35,-3.35,-3.12,-3.20,3.47,3.47,3.47
160.03,6.72,3.30,6.72,3.30,-3.30,-3.04,-3.12,3.42,3.42,3.42
161.63,6.62,3.24,6.62,3.24,-3.24,-2.96,-3.04,3.37,3.37,3.38
163.24,6.51,3.18,6.51,3.18,-3.19,-2.88,-2.97,3.32,3.32,3.33
164.88,6.41,3.13,6.41,3.13,-3.13,-2.80,-2.89,3.28,3.28,3.28
166.53,6.30,3.07,6.30,3.07,-3.07,-2.73,-2.82,3.23,3.23,3.23
168.19,6.20,3.02,6.20,3.02,-3.01,-2.65,-2.75,3.18,3.18,3.18
169.87,6.09,2.96,6.09,2.96,-2.95,-2.58,-2.68,3.14,3.14,3.13
171.57,5.98,2.89,5.98,2.89,-2.89,-2.50,-2.61,3.09,3.09,3.09
173.29,5.87,2.82,5.87,2.82,-2.82,-2.43,-2.55,3.05,3.05,3.04
175.02,5.76,2.76,5.76,2.76,-2.76,-2.36,-2.48,3.00,3.00,3.00
176.77,5.64,2.69,5.64,2.69,-2.69,-2.29,-2.42,2.95,2.95,2.95
178.54,5.53,2.62,5.53,2.62,-2.63,-2.23,-2.36,2.90,2.90,2.91
180.32,5.42,2.56,5.42,2.56,-2.57,-2.16,-2.30,2.85,2.85,2.86
182.13,5.31,2.51,5.31,2.51,-2.51,-2.10,-2.24,2.80,2.80,2.80
183.95,5.20,2.45,5.20,2.45,-2.45,-2.04,-2.19,2.75,2.75,2.75
185.79,5.10,2.40,5.10,2.40,-2.39,-1.98,-2.14,2.71,2.71,2.70
187.65,4.99,2.34,4.99,2.34,-2.33,-1.92,-2.09,2.66,2.66,2.65
189.52,4.88,2.28,4.88,2.28,-2.27,-1.86,-2.04,2.61,2.61,2.60
191.42,4.77,2.21,4.77,2.21,-2.21,-1.81,-1.99,2.56,2.56,2.56
193.33,4.66,2.14,4.66,2.14,-2.15,-1.75,-1.94,2.52,2.52,2.52
195.27,4.55,2.08,4.55,2.08,-2.08,-1.70,-1.90,2.47,2.47,2.47
197.22,4.44,2.01,4.44,2.01,-2.02,-1.65,-1.86,2.42,2.42,2.43
199.19,4.33,1.95,4.33,1.95,-1.96,-1.60,-1.81,2.37,2.37,2.37
201.18,4.22,1.89,4.22,1.89,-1.89,-1.55,-1.77,2.32,2.32,2.32
203.19,4.11,1.83,4.11,1.83,-1.83,-1.51,-1.73,2.28,2.28,2.27
205.23,4.00,1.77,4.00,1.77,-1.77,-1.46,-1.70,2.23,2.23,2.23
207.28,3.89,1.71,3.89,1.71,-1.71,-1.42,-1.66,2.19,2.19,2.18
209.35,3.79,1.65,3.79,1.64,-1.64,-1.37,-1.63,2.14,2.14,2.14
211.44,3.69,1.58,3.69,1.58,-1.59,-1.33,-1.59,2.10,2.10,2.11
213.56,3.59,1.52,3.59,1.52,-1.53,-1.29,-1.56,2.07,2.07,2.07
215.69,3.50,1.47,3.50,1.47,-1.47,-1.25,-1.53,2.03,2.03,2.03
217.85,3.41,1.41,3.40,1.41,-1.42,-1.21,-1.50,1.99,1.99,1.99
220.03,3.31,1.36,3.31,1.36,-1.36,-1.18,-1.46,1.95,1.95,1.95
222.23,3.22,1.31,3.22,1.31,-1.31,-1.14,-1.43,1.90,1.90,1.90
224.45,3.12,1.27,3.12,1.27,-1.26,-1.11,-1.40,1.86,1.86,1.86
226.70,3.02,1.21,3.02,1.21,-1.21,-1.07,-1.38,1.82,1.82,1.81
228.96,2.92,1.16,2.93,1.16,-1.16,-1.04,-1.35,1.77,1.77,1.77
231.25,2.83,1.11,2.83,1.11,-1.10,-1.01,-1.32,1.72,1.72,1.72
233.57,2.73,1.05,2.73,1.05,-1.05,-0.98,-1.29,1.68,1.68,1.68
235.90,2.63,1.00,2.63,1.00,-1.00,-0.94,-1.26,1.63,1.63,1.63
238.26,2.54,0.95,2.54,0.95,-0.95,-0.91,-1.23,1.59,1.59,1.59
240.64,2.46,0.91,2.46,0.91,-0.91,-0.89,-1.20,1.55,1.55,1.55
243.05,2.37,0.86,2.37,0.86,-0.87,-0.86,-1.18,1.51,1.51,1.51
245.48,2.29,0.82,2.29,0.82,-0.83,-0.83,-1.15,1.47,1.47,1.47
247.93,2.21,0.79,2.21,0.79,-0.79,-0.80,-1.12,1.43,1.42,1.42
250.41,2.13,0.75,2.13,0.75,-0.75,-0.78,-1.09,1.38,1.38,1.38
252.92,2.06,0.72,2.06,0.72,-0.71,-0.75,-1.06,1.34,1.34,1.34
255.45,1.98,0.68,1.98,0.68,-0.68,-0.73,-1.03,1.30,1.30,1.30
258.00,1.91,0.64,1.91,0.64,-0.64,-0.70,-1.00,1.26,1.26,1.26
260.58,1.84,0.61,1.84,0.61,-0.61,-0.68,-0.97,1.23,1.23,1.23
263.19,1.77,0.58,1.77,0.58,-0.58,-0.65,-0.94,1.19,1.19,1.19
265.82,1.71,0.55,1.71,0.55,-0.55,-0.63,-0.91,1.16,1.16,1.16
268.48,1.65,0.52,1.64,0.52,-0.52,-0.61,-0.88,1.12,1.12,1.12
271.16,1.58,0.50,1.58,0.50,-0.50,-0.58,-0.85,1.09,1.09,1.09
273.87,1.52,0.47,1.52,0.47,-0.47,-0.56,-0.82,1.05,1.05,1.05
276.61,1.46,0.45,1.46,0.45,-0.45,-0.54,-0.78,1.02,1.02,1.02
279.38,1.41,0.42,1.41,0.42,-0.42,-0.52,-0.75,0.98,0.98,0.98
282.17,1.35,0.40,1.35,0.40,-0.40,-0.50,-0.72,0.95,0.95,0.95
284.99,1.29,0.37,1.29,0.37,-0.38,-0.48,-0.69,0.91,0.91,0.91
287.84,1.23,0.35,1.23,0.35,-0.35,-0.46,-0.65,0.87,0.87,0.88
290.72,1.17,0.33,1.17,0.33,-0.33,-0.44,-0.62,0.84,0.84,0.84
293.63,1.11,0.31,1.11,0.31,-0.31,-0.42,-0.59,0.80,0.80,0.80
296.57,1.06,0.29,1.06,0.29,-0.30,-0.40,-0.55,0.76,0.76,0.77
299.53,1.01,0.28,1.01,0.28,-0.28,-0.38,-0.52,0.73,0.73,0.73
302.53,0.95,0.26,0.95,0.26,-0.26,-0.36,-0.49,0.69,0.69,0.69
305.55,0.90,0.25,0.90,0.25,-0.25,-0.34,-0.45,0.65,0.65,0.65
308.61,0.85,0.23,0.85,0.23,-0.23,-0.32,-0.42,0.62,0.62,0.62
311.69,0.79,0.21,0.79,0.21,-0.21,-0.31,-0.38,0.58,0.58,0.58
314.81,0.74,0.19,0.74,0.19,-0.19,-0.29,-0.35,0.55,0.55,0.55
317.96,0.69,0.17,0.69,0.17,-0.17,-0.27,-0.32,0.52,0.52,0.52
321.14,0.63,0.15,0.63,0.15,-0.15,-0.25,-0.28,0.49,0.49,0.49
324.35,0.58,0.12,0.58,0.12,-0.12,-0.23,-0.25,0.46,0.46,0.46
327.59,0.53,0.10,0.53,0.10,-0.10,-0.21,-0.21,0.42,0.42,0.43
330.87,0.47,0.08,0.47,0.08,-0.08,-0.20,-0.18,0.39,0.39,0.40
334.18,0.42,0.06,0.42,0.06,-0.06,-0.18,-0.15,0.36,0.36,0.36
337.52,0.36,0.04,0.36,0.04,-0.04,-0.16,-0.11,0.32,0.32,0.33
340.90,0.31,0.02,0.31,0.02,-0.02,-0.14,-0.08,0.29,0.29,0.29
344.30,0.26,0.00,0.26,0.01,-0.01,-0.12,-0.04,0.26,0.26,0.26
347.75,0.21,-0.01,0.21,-0.01,0.01,-0.10,-0.01,0.22,0.22,0.22
351.23,0.16,-0.02,0.16,-0.02,0.03,-0.09,0.03,0.19,0.19,0.19
354.74,0.12,-0.04,0.12,-0.04,0.04,-0.07,0.06,0.16,0.16,0.16
358.28,0.07,-0.06,0.07,-0.06,0.06,-0.05,0.10,0.13,0.13,0.13
361.87,0.02,-0.08,0.02,-0.08,0.08,-0.03,0.13,0.10,0.10,0.10
365.49,-0.03,-0.10,-0.03,-0.10,0.10,-0.01,0.17,0.07,0.07,0.07
369.14,-0.08,-0.12,-0.08,-0.12,0.12,0.01,0.20,0.04,0.04,0.04
372.83,-0.13,-0.14,-0.13,-0.14,0.14,0.03,0.24,0.01,0.01,0.01
376.56,-0.18,-0.16,-0.18,-0.16,0.16,0.05,0.27,-0.02,-0.02,-0.03
380.33,-0.24,-0.18,-0.24,-0.18,0.18,0.08,0.31,-0.06,-0.06,-0.06
384.13,-0.29,-0.20,-0.29,-0.20,0.20,0.10,0.34,-0.09,-0.09,-0.09
387.97,-0.35,-0.23,-0.35,-0.22,0.23,0.12,0.38,-0.12,-0.12,-0.12
391.85,-0.40,-0.25,-0.40,-0.25,0.25,0.14,0.41,-0.15,-0.15,-0.15
395.77,-0.45,-0.27,-0.46,-0.28,0.28,0.17,0.45,-0.18,-0.18,-0.18
399.73,-0.51,-0.30,-0.51,-0.30,0.30,0.19,0.48,-0.21,-0.21,-0.21
403.72,-0.56,-0.33,-0.56,-0.33,0.33,0.21,0.52,-0.23,-0.23,-0.23
407.76,-0.61,-0.36,-0.61,-0.36,0.35,0.24,0.55,-0.26,-0.26,-0.25
411.84,-0.65,-0.38,-0.65,-0.38,0.38,0.27,0.59,-0.28,-0.28,-0.27
415.96,-0.70,-0.40,-0.70,-0.40,0.40,0.29,0.62,-0.30,-0.30,-0.29
420.12,-0.74,-0.42,-0.74,-0.42,0.43,0.32,0.65,-0.32,-0.32,-0.32
424.32,-0.79,-0.45,-0.79,-0.45,0.46,0.35,0.69,-0.33,-0.33,-0.34
428.56,-0.84,-0.48,-0.84,-0.48,0.48,0.38,0.72,-0.35,-0.35,-0.36
432.85,-0.88,-0.51,-0.88,-0.51,0.51,0.41,0.75,-0.37,-0.37,-0.38
437.18,-0.93,-0.54,-0.93,-0.54,0.54,0.44,0.78,-0.39,-0.39,-0.39
441.55,-0.98,-0.57,-0.98,-0.57,0.57,0.47,0.81,-0.41,-0.41,-0.41
445.96,-1.03,-0.61,-1.03,-0.61,0.60,0.50,0.84,-0.43,-0.43,-0.42
450.42,-1.07,-0.63,-1.07,-0.63,0.62,0.54,0.87,-0.45,-0.45,-0.44
454.93,-1.12,-0.65,-1.11,-0.65,0.64,0.57,0.90,-0.47,-0.47,-0.46
459.48,-1.16,-0.66,-1.16,-0.66,0.66,0.61,0.92,-0.49,-0.49,-0.49
464.07,-1.20,-0.68,-1.20,-0.68,0.68,0.64,0.94,-0.51,-0.51,-0.52
468.71,-1.24,-0.69,-1.23,-0.69,0.70,0.68,0.97,-0.53,-0.53,-0.54
473.40,-1.27,-0.71,-1.27,-0.71,0.72,0.72,0.99,-0.55,-0.55,-0.56
478.13,-1.32,-0.74,-1.32,-0.74,0.74,0.75,1.00,-0.57,-0.57,-0.58
482.91,-1.36,-0.77,-1.36,-0.77,0.77,0.79,1.02,-0.59,-0.59,-0.59
487.74,-1.40,-0.79,-1.40,-0.79,0.79,0.83,1.04,-0.60,-0.60,-0.60
492.62,-1.44,-0.82,-1.43,-0.82,0.82,0.86,1.05,-0.62,-0.62,-0.61
