frequency,raw,error,smoothed,error_smoothed,equalization,parametric_eq,fixed_band_eq,equalized_raw,equalized_smoothed,target
20.00,1.82,-6.34,1.82,-6.34,6.00,5.69,2.16,7.82,7.82,8.16
20.20,1.88,-6.28,1.88,-6.28,6.01,5.69,2.22,7.89,7.89,8.16
20.40,1.94,-6.23,1.94,-6.23,6.01,5.69,2.29,7.95,7.95,8.16
20.61,2.00,-6.17,2.00,-6.17,6.01,5.68,2.35,8.00,8.00,8.17
20.81,2.06,-6.11,2.06,-6.11,5.99,5.68,2.42,8.05,8.05,8.17
21.02,2.12,-6.05,2.12,-6.05,5.97,5.67,2.49,8.09,8.09,8.17
21.23,2.17,-5.99,2.17,-5.99,5.95,5.66,2.57,8.12,8.12,8.16
21.44,2.23,-5.93,2.23,-5.93,5.91,5.64,2.64,8.15,8.15,8.16
21.66,2.29,-5.86,2.29,-5.86,5.87,5.63,2.72,8.16,8.16,8.16
21.87,2.35,-5.80,2.35,-5.80,5.82,5.61,2.80,8.16,8.16,8.15
22.09,2.40,-5.75,2.40,-5.75,5.76,5.59,2.88,8.16,8.16,8.15
22.31,2.46,-5.69,2.46,-5.69,5.70,5.57,2.96,8.16,8.16,8.15
22.54,2.51,-5.63,2.51,-5.63,5.64,5.55,3.05,8.15,8.15,8.14
22.76,2.56,-5.58,2.56,-5.58,5.58,5.52,3.14,8.14,8.14,8.14
22.99,2.61,-5.53,2.61,-5.53,5.53,5.50,3.23,8.14,8.14,8.14
23.22,2.66,-5.47,2.66,-5.47,5.47,5.47,3.32,8.13,8.13,8.14
23.45,2.71,-5.42,2.71,-5.42,5.42,5.44,3.42,8.13,8.13,8.13
23.69,2.77,-5.36,2.77,-5.36,5.36,5.40,3.51,8.13,8.13,8.13
23.92,2.82,-5.31,2.82,-5.31,5.30,5.37,3.61,8.12,8.12,8.12
24.16,2.87,-5.25,2.87,-5.25,5.25,5.34,3.71,8.12,8.12,8.12
24.40,2.92,-5.19,2.92,-5.19,5.19,5.30,3.81,8.11,8.11,8.11
24.65,2.97,-5.13,2.97,-5.14,5.14,5.26,3.92,8.11,8.11,8.11
24.89,3.02,-5.08,3.02,-5.08,5.08,5.22,4.02,8.10,8.10,8.10
25.14,3.07,-5.03,3.07,-5.03,5.03,5.18,4.12,8.10,8.10,8.10
25.39,3.12,-4.97,3.12,-4.97,4.97,5.14,4.23,8.09,8.09,8.09
25.65,3.17,-4.92,3.17,-4.92,4.92,5.10,4.34,8.09,8.09,8.09
25.91,3.21,-4.87,3.21,-4.87,4.87,5.05,4.44,8.08,8.08,8.08
26.16,3.26,-4.82,3.26,-4.82,4.82,5.01,4.55,8.08,8.08,8.08
26.43,3.31,-4.77,3.31,-4.77,4.77,4.96,4.65,8.08,8.08,8.08
26.69,3.36,-4.72,3.36,-4.72,4.73,4.92,4.76,8.08,8.08,8.08
26.96,3.41,-4.68,3.41,-4.68,4.68,4.87,4.86,8.08,8.08,8.08
27.23,3.45,-4.63,3.45,-4.63,4.63,4.82,4.96,8.08,8.08,8.09
27.50,3.50,-4.59,3.50,-4.59,4.58,4.77,5.05,8.08,8.08,8.09
27.77,3.55,-4.54,3.55,-4.54,4.54,4.73,5.14,8.08,8.08,8.09
28.05,3.59,-4.49,3.59,-4.49,4.49,4.68,5.23,8.08,8.08,8.08
28.33,3.64,-4.44,3.64,-4.44,4.44,4.63,5.32,8.08,8.08,8.08
28.62,3.68,-4.39,3.68,-4.39,4.39,4.58,5.40,8.07,8.07,8.07
28.90,3.72,-4.34,3.72,-4.34,4.34,4.52,5.46,8.07,8.07,8.06
29.19,3.76,-4.29,3.76,-4.29,4.30,4.47,5.53,8.06,8.06,8.06
29.48,3.80,-4.25,3.80,-4.25,4.25,4.42,5.59,8.05,8.05,8.05
29.78,3.84,-4.20,3.84,-4.20,4.20,4.37,5.64,8.04,8.04,8.04
30.08,3.88,-4.15,3.88,-4.15,4.15,4.32,5.68,8.03,8.03,8.03
30.38,3.92,-4.11,3.92,-4.11,4.11,4.27,5.71,8.02,8.02,8.02
30.68,3.96,-4.06,3.96,-4.06,4.06,4.21,5.73,8.01,8.01,8.02
30.99,3.99,-4.01,3.99,-4.01,4.01,4.16,5.74,8.00,8.00,8.01
31.30,4.03,-3.96,4.03,-3.96,3.96,4.11,5.74,8.00,8.00,8.00
31.61,4.07,-3.92,4.07,-3.92,3.92,4.06,5.74,7.99,7.99,7.99
31.93,4.11,-3.87,4.11,-3.87,3.87,4.01,5.72,7.98,7.98,7.98
32.24,4.15,-3.82,4.15,-3.82,3.82,3.96,5.70,7.96,7.96,7.96
32.57,4.18,-3.77,4.18,-3.77,3.77,3.90,5.66,7.95,7.95,7.95
32.89,4.22,-3.72,4.22,-3.72,3.72,3.85,5.62,7.94,7.94,7.94
33.22,4.25,-3.68,4.25,-3.68,3.68,3.80,5.56,7.93,7.93,7.93
33.55,4.29,-3.63,4.29,-3.63,3.63,3.75,5.50,7.92,7.92,7.92
33.89,4.32,-3.58,4.32,-3.58,3.58,3.70,5.43,7.90,7.90,7.91
34.23,4.36,-3.54,4.36,-3.54,3.53,3.65,5.36,7.89,7.89,7.89
34.57,4.39,-3.49,4.39,-3.49,3.49,3.60,5.28,7.88,7.88,7.88
34.92,4.42,-3.44,4.42,-3.44,3.44,3.55,5.19,7.87,7.87,7.86
35.27,4.45,-3.39,4.45,-3.39,3.40,3.50,5.10,7.85,7.85,7.85
35.62,4.48,-3.35,4.48,-3.35,3.36,3.45,5.00,7.84,7.84,7.84
35.97,4.51,-3.31,4.51,-3.32,3.32,3.41,4.90,7.83,7.83,7.83
36.33,4.54,-3.28,4.54,-3.28,3.28,3.36,4.80,7.82,7.82,7.82
36.70,4.57,-3.25,4.57,-3.24,3.24,3.31,4.70,7.81,7.81,7.82
37.06,4.60,-3.21,4.60,-3.20,3.20,3.26,4.59,7.80,7.80,7.81
37.43,4.63,-3.16,4.63,-3.16,3.16,3.22,4.49,7.79,7.79,7.79
37.81,4.66,-3.11,4.66,-3.11,3.12,3.17,4.38,7.77,7.77,7.77
38.19,4.68,-3.07,4.68,-3.07,3.08,3.13,4.27,7.76,7.76,7.75
38.57,4.71,-3.03,4.71,-3.03,3.04,3.08,4.16,7.75,7.75,7.74
38.95,4.74,-3.00,4.74,-3.00,3.00,3.04,4.05,7.74,7.74,7.74
39.34,4.76,-2.97,4.76,-2.97,2.97,2.99,3.95,7.73,7.73,7.73
39.74,4.79,-2.94,4.79,-2.93,2.93,2.95,3.84,7.72,7.72,7.72
40.14,4.81,-2.90,4.81,-2.90,2.89,2.91,3.73,7.70,7.70,7.71
40.54,4.83,-2.85,4.83,-2.86,2.86,2.86,3.63,7.69,7.69,7.69
40.94,4.85,-2.82,4.85,-2.82,2.82,2.82,3.53,7.67,7.67,7.67
41.35,4.88,-2.78,4.88,-2.78,2.78,2.78,3.43,7.66,7.66,7.66
41.76,4.90,-2.75,4.90,-2.74,2.74,2.74,3.33,7.64,7.64,7.64
42.18,4.92,-2.71,4.92,-2.70,2.70,2.70,3.23,7.62,7.62,7.62
42.60,4.94,-2.66,4.94,-2.66,2.66,2.66,3.14,7.60,7.60,7.60
43.03,4.96,-2.62,4.96,-2.62,2.62,2.62,3.04,7.58,7.58,7.57
43.46,4.98,-2.58,4.98,-2.58,2.58,2.58,2.95,7.56,7.56,7.56
43.90,4.99,-2.55,4.99,-2.55,2.55,2.55,2.86,7.54,7.54,7.54
44.33,5.01,-2.51,5.01,-2.51,2.51,2.51,2.78,7.52,7.52,7.52
44.78,5.03,-2.48,5.03,-2.48,2.47,2.47,2.69,7.50,7.50,7.50
45.23,5.04,-2.44,5.04,-2.44,2.44,2.44,2.61,7.48,7.48,7.48
45.68,5.05,-2.40,5.06,-2.41,2.41,2.40,2.53,7.46,7.46,7.46
46.13,5.07,-2.37,5.07,-2.38,2.38,2.37,2.45,7.45,7.45,7.44
46.60,5.08,-2.35,5.08,-2.35,2.35,2.33,2.37,7.43,7.43,7.43
47.06,5.09,-2.32,5.09,-2.32,2.32,2.30,2.30,7.41,7.41,7.41
47.53,5.10,-2.30,5.10,-2.30,2.29,2.27,2.22,7.39,7.39,7.40
48.01,5.11,-2.27,5.11,-2.27,2.27,2.24,2.15,7.38,7.38,7.38
48.49,5.12,-2.24,5.12,-2.24,2.25,2.20,2.09,7.36,7.36,7.36
48.97,5.12,-2.22,5.12,-2.22,2.23,2.17,2.02,7.35,7.35,7.34
49.46,5.13,-2.20,5.13,-2.20,2.21,2.14,1.95,7.34,7.34,7.33
49.96,5.14,-2.19,5.14,-2.19,2.19,2.11,1.89,7.33,7.33,7.33
50.46,5.15,-2.17,5.15,-2.17,2.17,2.08,1.83,7.31,7.31,7.32
50.96,5.15,-2.16,5.15,-2.15,2.15,2.06,1.77,7.30,7.30,7.31
51.47,5.15,-2.14,5.15,-2.14,2.13,2.03,1.72,7.29,7.29,7.29
51.99,5.16,-2.12,5.16,-2.12,2.12,2.00,1.66,7.28,7.28,7.27
52.51,5.16,-2.10,5.16,-2.10,2.10,1.97,1.61,7.26,7.26,7.26
53.03,5.17,-2.08,5.17,-2.08,2.08,1.95,1.56,7.25,7.25,7.25
53.56,5.17,-2.06,5.17,-2.06,2.06,1.92,1.51,7.23,7.23,7.24
54.10,5.18,-2.04,5.18,-2.04,2.04,1.90,1.46,7.22,7.22,7.22
54.64,5.18,-2.02,5.18,-2.02,2.02,1.87,1.42,7.20,7.20,7.20
55.18,5.18,-2.00,5.18,-2.00,2.00,1.85,1.37,7.18,7.18,7.18
55.74,5.18,-1.98,5.18,-1.98,1.98,1.83,1.33,7.15,7.15,7.16
56.29,5.18,-1.95,5.18,-1.95,1.95,1.81,1.29,7.13,7.13,7.13
56.86,5.17,-1.92,5.17,-1.93,1.92,1.78,1.26,7.10,7.10,7.10
57.42,5.17,-1.90,5.17,-1.90,1.90,1.76,1.22,7.07,7.07,7.07
58.00,5.16,-1.88,5.16,-1.88,1.87,1.74,1.19,7.04,7.04,7.05
58.58,5.16,-1.85,5.16,-1.85,1.85,1.72,1.16,7.01,7.01,7.01
59.16,5.15,-1.82,5.15,-1.82,1.83,1.70,1.13,6.98,6.98,6.97
59.76,5.15,-1.80,5.15,-1.80,1.81,1.68,1.11,6.96,6.96,6.94
60.35,5.14,-1.79,5.14,-1.79,1.79,1.67,1.08,6.93,6.93,6.93
60.96,5.13,-1.79,5.13,-1.78,1.77,1.65,1.06,6.90,6.90,6.92
61.57,5.12,-1.77,5.12,-1.76,1.75,1.63,1.04,6.87,6.87,6.89
62.18,5.11,-1.73,5.11,-1.74,1.74,1.62,1.02,6.85,6.85,6.84
62.80,5.10,-1.72,5.10,-1.72,1.72,1.60,1.01,6.82,6.82,6.81
63.43,5.08,-1.70,5.08,-1.70,1.71,1.58,1.00,6.79,6.79,6.79
64.07,5.07,-1.69,5.07,-1.69,1.69,1.57,0.99,6.76,6.76,6.76
64.71,5.06,-1.67,5.06,-1.68,1.68,1.56,0.98,6.73,6.73,6.73
65.35,5.04,-1.66,5.04,-1.66,1.66,1.54,0.97,6.70,6.70,6.70
66.01,5.02,-1.65,5.02,-1.65,1.65,1.53,0.97,6.67,6.67,6.67
66.67,5.00,-1.64,5.00,-1.64,1.64,1.52,0.97,6.64,6.64,6.64
67.33,4.98,-1.63,4.98,-1.63,1.63,1.51,0.97,6.60,6.60,6.60
68.01,4.96,-1.62,4.96,-1.62,1.62,1.50,0.97,6.57,6.57,6.57
68.69,4.93,-1.61,4.93,-1.60,1.60,1.49,0.98,6.54,6.54,6.54
69.37,4.91,-1.59,4.91,-1.59,1.59,1.48,0.98,6.51,6.51,6.51
70.07,4.89,-1.58,4.89,-1.58,1.58,1.47,0.99,6.47,6.47,6.47
70.77,4.86,-1.57,4.87,-1.57,1.57,1.46,1.00,6.44,6.44,6.44
71.48,4.84,-1.56,4.84,-1.56,1.57,1.45,1.01,6.41,6.41,6.40
72.19,4.81,-1.56,4.81,-1.56,1.56,1.45,1.03,6.37,6.37,6.37
72.91,4.79,-1.55,4.79,-1.55,1.55,1.44,1.04,6.34,6.34,6.34
73.64,4.76,-1.55,4.76,-1.55,1.54,1.43,1.06,6.31,6.31,6.31
74.38,4.73,-1.54,4.73,-1.54,1.54,1.43,1.08,6.27,6.27,6.27
75.12,4.71,-1.53,4.71,-1.53,1.53,1.43,1.10,6.24,6.24,6.24
75.87,4.68,-1.53,4.68,-1.53,1.53,1.42,1.12,6.20,6.20,6.20
76.63,4.65,-1.52,4.65,-1.52,1.52,1.42,1.14,6.17,6.17,6.17
77.40,4.61,-1.51,4.61,-1.51,1.51,1.42,1.16,6.13,6.13,6.13
78.17,4.58,-1.51,4.58,-1.51,1.51,1.42,1.19,6.09,6.09,6.09
78.95,4.55,-1.51,4.55,-1.50,1.50,1.42,1.21,6.05,6.05,6.06
79.74,4.51,-1.49,4.51,-1.50,1.50,1.42,1.24,6.01,6.01,6.01
80.54,4.48,-1.49,4.48,-1.49,1.49,1.42,1.27,5.97,5.97,5.96
81.35,4.44,-1.49,4.44,-1.48,1.49,1.42,1.30,5.92,5.92,5.92
82.16,4.40,-1.48,4.40,-1.48,1.49,1.42,1.33,5.88,5.88,5.88
82.98,4.36,-1.48,4.36,-1.48,1.48,1.42,1.36,5.84,5.84,5.84
83.81,4.32,-1.48,4.31,-1.49,1.48,1.43,1.39,5.80,5.80,5.80
84.65,4.27,-1.49,4.27,-1.49,1.48,1.43,1.43,5.76,5.76,5.76
85.50,4.23,-1.49,4.23,-1.49,1.49,1.44,1.46,5.72,5.72,5.72
86.35,4.19,-1.49,4.19,-1.49,1.49,1.44,1.50,5.68,5.68,5.68
87.22,4.14,-1.50,4.14,-1.49,1.49,1.45,1.54,5.64,5.64,5.64
88.09,4.10,-1.50,4.10,-1.50,1.50,1.46,1.58,5.60,5.60,5.60
88.97,4.05,-1.50,4.05,-1.51,1.51,1.47,1.62,5.56,5.56,5.56
89.86,4.00,-1.51,4.00,-1.51,1.51,1.48,1.66,5.52,5.52,5.51
90.76,3.95,-1.52,3.95,-1.52,1.52,1.49,1.70,5.47,5.47,5.47
91.66,3.90,-1.53,3.90,-1.53,1.53,1.50,1.74,5.43,5.43,5.43
92.58,3.84,-1.55,3.84,-1.55,1.55,1.51,1.79,5.39,5.39,5.39
93.51,3.78,-1.56,3.78,-1.56,1.56,1.53,1.83,5.35,5.35,5.34
94.44,3.73,-1.58,3.73,-1.58,1.58,1.54,1.88,5.30,5.30,5.30
95.39,3.67,-1.59,3.67,-1.59,1.59,1.56,1.93,5.26,5.26,5.26
96.34,3.61,-1.61,3.61,-1.61,1.61,1.57,1.97,5.22,5.22,5.22
97.30,3.55,-1.63,3.55,-1.63,1.63,1.59,2.02,5.18,5.18,5.18
98.28,3.49,-1.65,3.49,-1.65,1.65,1.61,2.07,5.14,5.14,5.14
99.26,3.43,-1.67,3.43,-1.67,1.67,1.63,2.12,5.10,5.10,5.10
100.25,3.36,-1.69,3.36,-1.69,1.69,1.65,2.17,5.05,5.05,5.05
101.25,3.30,-1.71,3.30,-1.71,1.71,1.67,2.22,5.01,5.01,5.01
102.27,3.23,-1.73,3.23,-1.73,1.73,1.70,2.28,4.96,4.96,4.96
103.29,3.16,-1.75,3.16,-1.75,1.75,1.72,2.33,4.91,4.91,4.91
104.32,3.10,-1.77,3.10,-1.77,1.77,1.75,2.38,4.86,4.86,4.86
105.37,3.03,-1.78,3.03,-1.78,1.79,1.78,2.43,4.81,4.81,4.81
106.42,2.95,-1.81,2.95,-1.81,1.81,1.80,2.48,4.76,4.76,4.76
107.48,2.88,-1.83,2.88,-1.83,1.83,1.83,2.53,4.71,4.71,4.71
108.56,2.81,-1.85,2.81,-1.85,1.86,1.87,2.58,4.66,4.66,4.66
109.64,2.73,-1.88,2.73,-1.88,1.88,1.90,2.63,4.62,4.62,4.62
110.74,2.66,-1.91,2.66,-1.91,1.91,1.93,2.67,4.57,4.57,4.57
111.85,2.58,-1.94,2.58,-1.94,1.95,1.97,2.72,4.53,4.53,4.53
112.97,2.50,-1.98,2.50,-1.98,1.98,2.00,2.76,4.48,4.48,4.48
114.10,2.42,-2.02,2.42,-2.02,2.01,2.04,2.80,4.44,4.44,4.44
115.24,2.34,-2.05,2.34,-2.05,2.05,2.08,2.84,4.39,4.39,4.40
116.39,2.26,-2.09,2.26,-2.09,2.09,2.12,2.88,4.35,4.35,4.35
117.55,2.18,-2.13,2.18,-2.13,2.12,2.16,2.91,4.30,4.30,4.31
118.73,2.10,-2.16,2.10,-2.16,2.16,2.20,2.94,4.26,4.26,4.26
119.92,2.01,-2.20,2.01,-2.20,2.20,2.25,2.97,4.21,4.21,4.21
121.12,1.92,-2.24,1.92,-2.24,2.24,2.29,2.99,4.16,4.16,4.16
122.33,1.83,-2.28,1.83,-2.28,2.28,2.34,3.01,4.11,4.11,4.11
123.55,1.74,-2.32,1.74,-2.32,2.32,2.39,3.03,4.06,4.06,4.06
124.79,1.65,-2.36,1.65,-2.36,2.36,2.44,3.04,4.01,4.01,4.01
126.03,1.56,-2.41,1.56,-2.41,2.41,2.49,3.05,3.97,3.97,3.97
127.29,1.47,-2.46,1.47,-2.46,2.46,2.54,3.05,3.92,3.92,3.92
128.57,1.37,-2.51,1.37,-2.51,2.51,2.59,3.06,3.88,3.88,3.88
129.85,1.28,-2.56,1.28,-2.56,2.56,2.65,3.05,3.84,3.84,3.84
131.15,1.19,-2.61,1.19,-2.61,2.62,2.70,3.05,3.80,3.80,3.80
132.46,1.09,-2.67,1.09,-2.67,2.68,2.76,3.04,3.77,3.77,3.76
133.79,1.00,-2.73,1.00,-2.73,2.74,2.81,3.03,3.74,3.74,3.73
135.12,0.90,-2.80,0.90,-2.80,2.80,2.87,3.02,3.71,3.71,3.70
136.48,0.81,-2.87,0.81,-2.87,2.87,2.93,3.00,3.68,3.68,3.68
137.84,0.71,-2.94,0.71,-2.94,2.94,2.98,2.98,3.64,3.64,3.65
139.22,0.61,-3.01,0.61,-3.00,3.00,3.04,2.96,3.61,3.61,3.61
140.61,0.51,-3.07,0.51,-3.07,3.07,3.09,2.94,3.58,3.58,3.58
142.02,0.41,-3.13,0.41,-3.13,3.13,3.15,2.92,3.54,3.54,3.54
143.44,0.31,-3.19,0.31,-3.19,3.19,3.20,2.89,3.50,3.50,3.50
144.87,0.22,-3.24,0.22,-3.24,3.24,3.26,2.87,3.46,3.46,3.46
146.32,0.12,-3.29,0.12,-3.29,3.29,3.31,2.84,3.41,3.41,3.41
147.78,0.02,-3.34,0.02,-3.34,3.34,3.36,2.82,3.36,3.36,3.36
149.26,-0.07,-3.38,-0.07,-3.38,3.38,3.40,2.79,3.31,3.31,3.31
150.75,-0.17,-3.42,-0.17,-3.42,3.42,3.45,2.76,3.25,3.25,3.25
152.26,-0.26,-3.46,-0.26,-3.46,3.46,3.49,2.74,3.19,3.20,3.19
153.78,-0.36,-3.49,-0.36,-3.50,3.50,3.54,2.71,3.14,3.14,3.14
155.32,-0.45,-3.53,-0.45,-3.53,3.53,3.57,2.69,3.08,3.08,3.08
156.88,-0.54,-3.56,-0.54,-3.57,3.57,3.61,2.67,3.02,3.02,3.02
158.44,-0.63,-3.60,-0.63,-3.60,3.60,3.64,2.64,2.97,2.97,2.97
160.03,-0.72,-3.63,-0.72,-3.63,3.63,3.67,2.62,2.91,2.91,2.91
161.63,-0.81,-3.66,-0.81,-3.66,3.66,3.69,2.60,2.86,2.86,2.86
163.24,-0.89,-3.69,-0.89,-3.69,3.69,3.72,2.59,2.80,2.80,2.80
164.88,-0.97,-3.72,-0.97,-3.72,3.72,3.73,2.57,2.75,2.75,2.75
166.53,-1.05,-3.74,-1.05,-3.74,3.75,3.75,2.55,2.70,2.70,2.70
168.19,-1.12,-3.76,-1.12,-3.77,3.77,3.76,2.54,2.65,2.65,2.64
169.87,-1.20,-3.78,-1.20,-3.78,3.79,3.77,2.53,2.59,2.59,2.59
171.57,-1.27,-3.80,-1.27,-3.80,3.80,3.77,2.52,2.53,2.53,2.53
173.29,-1.34,-3.81,-1.34,-3.82,3.80,3.77,2.51,2.47,2.47,2.48
175.02,-1.40,-3.82,-1.40,-3.82,3.80,3.76,2.51,2.40,2.40,2.42
176.77,-1.46,-3.82,-1.46,-3.81,3.81,3.76,2.50,2.34,2.34,2.35
178.54,-1.52,-3.79,-1.52,-3.79,3.81,3.75,2.50,2.29,2.28,2.27
180.32,-1.58,-3.76,-1.58,-3.78,3.81,3.74,2.50,2.23,2.23,2.18
182.13,-1.63,-3.80,-1.63,-3.79,3.80,3.73,2.51,2.17,2.17,2.17
183.95,-1.68,-3.81,-1.68,-3.80,3.80,3.71,2.51,2.12,2.12,2.13
185.79,-1.73,-3.80,-1.73,-3.81,3.79,3.70,2.52,2.06,2.06,2.08
187.65,-1.77,-3.79,-1.77,-3.79,3.78,3.68,2.52,2.01,2.01,2.02
189.52,-1.81,-3.77,-1.81,-3.77,3.77,3.66,2.53,1.96,1.96,1.96
191.42,-1.84,-3.75,-1.84,-3.75,3.75,3.65,2.54,1.91,1.91,1.91
193.33,-1.88,-3.73,-1.88,-3.73,3.73,3.63,2.56,1.85,1.85,1.85
195.27,-1.90,-3.70,-1.90,-3.70,3.70,3.61,2.57,1.80,1.80,1.80
197.22,-1.92,-3.67,-1.92,-3.67,3.67,3.59,2.59,1.74,1.74,1.74
199.19,-1.94,-3.63,-1.94,-3.63,3.63,3.57,2.60,1.69,1.69,1.69
201.18,-1.96,-3.60,-1.96,-3.60,3.60,3.55,2.62,1.64,1.64,1.64
203.19,-1.97,-3.56,-1.97,-3.56,3.56,3.53,2.64,1.59,1.59,1.59
205.23,-1.98,-3.52,-1.98,-3.52,3.52,3.51,2.66,1.54,1.54,1.54
207.28,-1.99,-3.48,-1.99,-3.48,3.48,3.49,2.68,1.49,1.49,1.49
209.35,-2.00,-3.43,-2.00,-3.44,3.44,3.46,2.70,1.44,1.44,1.44
211.44,-2.00,-3.39,-2.00,-3.39,3.39,3.44,2.72,1.39,1.39,1.39
213.56,-2.00,-3.35,-2.00,-3.35,3.34,3.40,2.74,1.34,1.34,1.34
215.69,-2.00,-3.30,-2.00,-3.30,3.29,3.37,2.76,1.29,1.29,1.29
217.85,-2.00,-3.24,-2.00,-3.24,3.24,3.33,2.78,1.24,1.24,1.25
220.03,-1.99,-3.19,-1.99,-3.19,3.19,3.28,2.80,1.20,1.20,1.20
222.23,-1.98,-3.13,-1.98,-3.13,3.13,3.23,2.82,1.15,1.15,1.15
224.45,-1.97,-3.07,-1.97,-3.07,3.07,3.18,2.83,1.10,1.10,1.10
226.70,-1.96,-3.01,-1.96,-3.01,3.01,3.11,2.85,1.05,1.05,1.05
228.96,-1.95,-2.95,-1.95,-2.95,2.95,3.05,2.86,1.00,1.00,1.00
231.25,-1.94,-2.89,-1.94,-2.89,2.89,2.97,2.87,0.95,0.95,0.95
233.57,-1.92,-2.82,-1.92,-2.82,2.82,2.90,2.88,0.90,0.90,0.90
235.90,-1.91,-2.76,-1.91,-2.76,2.76,2.82,2.89,0.85,0.85,0.85
238.26,-1.89,-2.69,-1.89,-2.69,2.70,2.74,2.89,0.80,0.80,0.80
240.64,-1.88,-2.63,-1.88,-2.63,2.63,2.65,2.89,0.75,0.75,0.75
243.05,-1.86,-2.57,-1.86,-2.57,2.57,2.57,2.89,0.70,0.70,0.70
245.48,-1.85,-2.50,-1.85,-2.50,2.50,2.49,2.88,0.65,0.65,0.65
247.93,-1.83,-2.44,-1.83,-2.44,2.44,2.41,2.87,0.61,0.61,0.61
250.41,-1.81,-2.37,-1.81,-2.37,2.37,2.33,2.86,0.56,0.56,0.56
252.92,-1.80,-2.31,-1.80,-2.31,2.31,2.25,2.84,0.51,0.51,0.51
255.45,-1.78,-2.24,-1.78,-2.24,2.24,2.17,2.82,0.46,0.46,0.46
258.00,-1.77,-2.18,-1.77,-2.18,2.18,2.10,2.79,0.41,0.41,0.41
260.58,-1.75,-2.12,-1.75,-2.12,2.12,2.03,2.76,0.37,0.37,0.37
263.19,-1.74,-2.06,-1.74,-2.06,2.06,1.96,2.73,0.32,0.32,0.32
265.82,-1.72,-2.00,-1.72,-2.00,2.00,1.89,2.70,0.27,0.27,0.27
268.48,-1.71,-1.94,-1.71,-1.94,1.94,1.83,2.66,0.23,0.23,0.23
271.16,-1.70,-1.88,-1.70,-1.88,1.88,1.77,2.62,0.18,0.18,0.18
273.87,-1.68,-1.82,-1.68,-1.82,1.82,1.71,2.58,0.14,0.14,0.14
276.61,-1.67,-1.77,-1.67,-1.77,1.76,1.65,2.53,0.09,0.09,0.10
279.38,-1.66,-1.71,-1.66,-1.71,1.71,1.60,2.49,0.05,0.05,0.05
282.17,-1.65,-1.66,-1.65,-1.66,1.66,1.55,2.44,0.01,0.01,0.01
284.99,-1.64,-1.60,-1.64,-1.60,1.61,1.50,2.39,-0.03,-0.03,-0.04
287.84,-1.63,-1.55,-1.63,-1.55,1.56,1.46,2.33,-0.08,-0.08,-0.08
290.72,-1.62,-1.50,-1.62,-1.50,1.51,1.41,2.28,-0.12,-0.12,-0.12
293.63,-1.61,-1.45,-1.61,-1.46,1.46,1.37,2.22,-0.16,-0.16,-0.16
296.57,-1.61,-1.41,-1.61,-1.41,1.41,1.33,2.17,-0.20,-0.20,-0.19
299.53,-1.60,-1.38,-1.60,-1.37,1.36,1.29,2.11,-0.24,-0.24,-0.22
302.53,-1.59,-1.32,-1.59,-1.32,1.31,1.26,2.05,-0.28,-0.28,-0.28
305.55,-1.59,-1.26,-1.59,-1.27,1.27,1.22,2.00,-0.32,-0.32,-0.33
308.61,-1.58,-1.22,-1.58,-1.22,1.22,1.19,1.94,-0.36,-0.36,-0.37
311.69,-1.58,-1.17,-1.58,-1.17,1.18,1.16,1.88,-0.40,-0.40,-0.41
314.81,-1.58,-1.13,-1.58,-1.13,1.13,1.13,1.83,-0.44,-0.44,-0.44
317.96,-1.58,-1.09,-1.58,-1.09,1.09,1.10,1.77,-0.48,-0.48,-0.48
321.14,-1.57,-1.05,-1.57,-1.05,1.05,1.07,1.72,-0.52,-0.52,-0.52
324.35,-1.57,-1.02,-1.57,-1.02,1.02,1.04,1.66,-0.56,-0.56,-0.56
327.59,-1.57,-0.98,-1.57,-0.98,0.98,1.02,1.61,-0.59,-0.59,-0.59
330.87,-1.57,-0.94,-1.57,-0.94,0.94,0.99,1.55,-0.63,-0.63,-0.63
334.18,-1.58,-0.91,-1.58,-0.91,0.91,0.97,1.50,-0.66,-0.66,-0.66
337.52,-1.58,-0.88,-1.58,-0.88,0.88,0.95,1.45,-0.70,-0.70,-0.70
340.90,-1.58,-0.85,-1.58,-0.85,0.85,0.93,1.39,-0.73,-0.73,-0.73
344.30,-1.58,-0.82,-1.58,-0.82,0.82,0.91,1.34,-0.77,-0.77,-0.76
347.75,-1.59,-0.79,-1.59,-0.79,0.79,0.89,1.29,-0.80,-0.80,-0.80
351.23,-1.59,-0.76,-1.59,-0.76,0.76,0.87,1.24,-0.83,-0.83,-0.83
354.74,-1.59,-0.74,-1.59,-0.73,0.73,0.85,1.20,-0.86,-0.86,-0.86
358.28,-1.60,-0.71,-1.60,-0.71,0.71,0.83,1.15,-0.89,-0.89,-0.89
361.87,-1.61,-0.69,-1.61,-0.69,0.69,0.82,1.10,-0.92,-0.92,-0.92
365.49,-1.61,-0.66,-1.61,-0.66,0.66,0.80,1.06,-0.95,-0.95,-0.95
369.14,-1.62,-0.64,-1.62,-0.64,0.64,0.79,1.01,-0.98,-0.98,-0.98
372.83,-1.63,-0.62,-1.63,-0.62,0.62,0.77,0.97,-1.00,-1.00,-1.00
376.56,-1.63,-0.60,-1.63,-0.60,0.60,0.76,0.92,-1.03,-1.03,-1.03
380.33,-1.64,-0.59,-1.64,-0.59,0.59,0.75,0.88,-1.06,-1.06,-1.06
384.13,-1.65,-0.57,-1.65,-0.57,0.57,0.73,0.84,-1.08,-1.08,-1.08
387.97,-1.66,-0.56,-1.66,-0.56,0.55,0.72,0.80,-1.10,-1.10,-1.10
391.85,-1.67,-0.54,-1.67,-0.54,0.54,0.71,0.76,-1.13,-1.13,-1.13
395.77,-1.68,-0.53,-1.68,-0.53,0.53,0.70,0.72,-1.15,-1.15,-1.15
399.73,-1.69,-0.51,-1.69,-0.52,0.52,0.69,0.69,-1.17,-1.17,-1.17
403.72,-1.69,-0.50,-1.69,-0.50,0.50,0.68,0.65,-1.19,-1.19,-1.19
407.76,-1.70,-0.50,-1.70,-0.49,0.49,0.67,0.62,-1.21,-1.21,-1.21
411.84,-1.71,-0.49,-1.71,-0.49,0.49,0.66,0.58,-1.23,-1.23,-1.23
415.96,-1.72,-0.48,-1.72,-0.48,0.48,0.65,0.55,-1.24,-1.24,-1.24
420.12,-1.73,-0.47,-1.73,-0.47,0.47,0.65,0.52,-1.26,-1.26,-1.26
424.32,-1.74,-0.47,-1.74,-0.47,0.47,0.64,0.49,-1.27,-1.27,-1.28
428.56,-1.75,-0.46,-1.75,-0.46,0.46,0.63,0.46,-1.29,-1.29,-1.29
432.85,-1.76,-0.46,-1.76,-0.46,0.46,0.63,0.43,-1.30,-1.30,-1.30
437.18,-1.77,-0.46,-1.77,-0.46,0.46,0.62,0.40,-1.31,-1.31,-1.31
441.55,-1.78,-0.46,-1.78,-0.46,0.46,0.62,0.38,-1.33,-1.32,-1.32
445.96,-1.79,-0.46,-1.79,-0.46,0.46,0.61,0.35,-1.33,-1.33,-1.34
450.42,-1.80,-0.46,-1.80,-0.46,0.46,0.61,0.33,-1.34,-1.34,-1.35
454.93,-1.81,-0.46,-1.81,-0.46,0.46,0.60,0.31,-1.35,-1.35,-1.35
459.48,-1.82,-0.46,-1.82,-0.46,0.46,0.60,0.29,-1.36,-1.36,-1.36
464.07,-1.83,-0.47,-1.83,-0.47,0.47,0.60,0.27,-1.37,-1.36,-1.36
468.71,-1.84,-0.47,-1.84,-0.47,0.47,0.59,0.26,-1.37,-1.37,-1.37
473.40,-1.85,-0.48,-1.85,-0.48,0.48,0.59,0.24,-1.38,-1.37,-1.37
478.13,-1.86,-0.48,-1.86,-0.48,0.48,0.59,0.23,-1.38,-1.38,-1.38
482.91,-1.87,-0.49,-1.87,-0.49,0.49,0.59,0.22,-1.38,-1.38,-1.38
487.74,-1.88,-0.49,-1.88,-0.49,0.49,0.59,0.21,-1.38,-1.38,-1.38
492.62,-1.88,-0.50,-1.89,-0.50,0.50,0.59,0.21,-1.38,-1.38,-1.39
497.55,-1.89,-0.51,-1.89,-0.51,0.51,0.59,0.20,-1.39,-1.39,-1.39
502.52,-1.90,-0.52,-1.90,-0.51,0.51,0.59,0.20,-1.39,-1.39,-1.39
507.55,-1.91,-0.52,-1.91,-0.52,0.52,0.59,0.20,-1.39,-1.39,-1.39
512.62,-1.92,-0.53,-1.92,-0.53,0.53,0.59,0.20,-1.38,-1.38,-1.38
517.75,-1.92,-0.54,-1.92,-0.54,0.54,0.59,0.21,-1.38,-1.38,-1.38
522.93,-1.93,-0.55,-1.93,-0.55,0.55,0.59,0.21,-1.38,-1.38,-1.38
528.16,-1.93,-0.56,-1.93,-0.56,0.56,0.59,0.22,-1.38,-1.38,-1.38
533.44,-1.94,-0.56,-1.94,-0.56,0.57,0.60,0.23,-1.37,-1.37,-1.37
