frequency,raw,error,smoothed,error_smoothed,equalization,parametric_eq,fixed_band_eq,equalized_raw,equalized_smoothed,target
20.00,3.81,-8.82,3.81,-8.82,6.00,6.00,2.82,9.81,9.81,12.63
20.20,3.88,-8.75,3.88,-8.75,6.00,6.01,2.90,9.88,9.88,12.63
20.40,3.95,-8.68,3.95,-8.69,6.00,6.02,2.98,9.95,9.95,12.63
20.61,4.02,-8.62,4.02,-8.64,6.00,6.02,3.07,10.02,10.02,12.63
20.81,4.08,-8.62,4.08,-8.61,6.00,6.03,3.15,10.08,10.08,12.70
21.02,4.14,-8.59,4.14,-8.57,6.00,6.03,3.24,10.14,10.14,12.73
21.23,4.20,-8.53,4.20,-8.53,6.00,6.03,3.34,10.20,10.20,12.73
21.44,4.26,-8.47,4.26,-8.48,6.00,6.03,3.43,10.26,10.26,12.73
21.66,4.31,-8.42,4.31,-8.42,6.00,6.03,3.53,10.31,10.31,12.73
21.87,4.36,-8.37,4.36,-8.37,6.00,6.02,3.63,10.36,10.36,12.73
22.09,4.42,-8.31,4.42,-8.31,6.00,6.02,3.73,10.42,10.42,12.73
22.31,4.48,-8.25,4.48,-8.25,6.00,6.01,3.84,10.48,10.48,12.73
22.54,4.55,-8.18,4.55,-8.18,6.00,6.01,3.95,10.55,10.55,12.73
22.76,4.63,-8.10,4.63,-8.09,6.00,6.00,4.06,10.63,10.63,12.73
22.99,4.72,-8.01,4.72,-8.01,6.00,5.99,4.17,10.72,10.72,12.73
23.22,4.81,-7.92,4.81,-7.95,6.00,5.98,4.29,10.81,10.81,12.74
23.45,4.90,-7.91,4.90,-7.89,6.00,5.97,4.41,10.90,10.90,12.82
23.69,4.99,-7.85,4.98,-7.83,6.00,5.97,4.53,10.99,10.98,12.83
23.92,5.06,-7.77,5.06,-7.78,6.00,5.97,4.65,11.06,11.06,12.83
24.16,5.13,-7.70,5.13,-7.73,6.00,5.97,4.78,11.13,11.13,12.83
24.40,5.19,-7.71,5.19,-7.69,6.00,5.98,4.91,11.19,11.19,12.90
24.65,5.24,-7.69,5.25,-7.67,6.00,5.99,5.04,11.24,11.25,12.93
24.89,5.30,-7.63,5.30,-7.66,6.00,5.99,5.17,11.30,11.30,12.93
25.14,5.36,-7.64,5.36,-7.63,6.00,5.99,5.31,11.36,11.36,12.99
25.39,5.41,-7.62,5.41,-7.60,6.00,6.00,5.44,11.41,11.41,13.03
25.65,5.46,-7.57,5.46,-7.57,6.00,5.99,5.58,11.46,11.46,13.03
25.91,5.50,-7.53,5.50,-7.53,6.00,5.99,5.72,11.50,11.50,13.03
26.16,5.54,-7.50,5.53,-7.50,6.00,5.99,5.85,11.54,11.53,13.03
26.43,5.56,-7.47,5.56,-7.48,6.00,5.98,5.99,11.56,11.56,13.03
26.69,5.58,-7.45,5.58,-7.44,6.00,5.99,6.12,11.58,11.58,13.03
26.96,5.61,-7.38,5.61,-7.37,6.00,5.99,6.26,11.61,11.61,12.99
27.23,5.65,-7.27,5.65,-7.27,6.00,5.99,6.39,11.65,11.65,12.92
27.50,5.70,-7.13,5.70,-7.14,6.00,6.00,6.52,11.70,11.70,12.83
27.77,5.76,-7.02,5.76,-7.01,6.00,6.01,6.64,11.76,11.76,12.78
28.05,5.81,-6.91,5.81,-6.90,6.00,6.01,6.76,11.81,11.81,12.72
28.33,5.84,-6.81,5.83,-6.83,6.00,6.02,6.88,11.84,11.83,12.65
28.62,5.85,-6.78,5.84,-6.78,6.00,6.02,6.99,11.85,11.84,12.63
28.90,5.83,-6.77,5.83,-6.76,6.00,6.02,7.09,11.83,11.83,12.61
29.19,5.81,-6.72,5.81,-6.75,6.00,6.03,7.18,11.81,11.81,12.53
29.48,5.79,-6.74,5.80,-6.74,6.00,6.03,7.26,11.79,11.80,12.53
29.78,5.82,-6.71,5.82,-6.70,6.00,6.03,7.34,11.82,11.82,12.53
30.08,5.87,-6.65,5.87,-6.63,6.00,6.02,7.40,11.87,11.87,12.52
30.38,5.96,-6.50,5.96,-6.51,6.00,6.02,7.46,11.96,11.96,12.46
30.68,6.07,-6.37,6.06,-6.38,6.00,6.02,7.50,12.07,12.06,12.43
30.99,6.16,-6.27,6.15,-6.27,6.00,6.01,7.54,12.16,12.15,12.43
31.30,6.22,-6.21,6.22,-6.21,6.00,6.00,7.55,12.22,12.22,12.43
31.61,6.26,-6.18,6.25,-6.18,6.00,6.00,7.56,12.26,12.25,12.43
31.93,6.26,-6.17,6.26,-6.17,6.00,5.99,7.56,12.26,12.26,12.43
32.24,6.26,-6.17,6.26,-6.17,6.00,5.98,7.55,12.26,12.26,12.43
32.57,6.26,-6.17,6.27,-6.16,6.00,5.97,7.52,12.26,12.27,12.43
32.89,6.28,-6.15,6.28,-6.15,6.00,5.96,7.49,12.28,12.28,12.43
33.22,6.31,-6.12,6.31,-6.14,6.00,5.94,7.44,12.31,12.31,12.44
33.55,6.35,-6.15,6.35,-6.14,6.00,5.93,7.39,12.35,12.35,12.50
33.89,6.40,-6.13,6.40,-6.12,6.00,5.92,7.32,12.40,12.40,12.53
34.23,6.44,-6.09,6.44,-6.09,6.01,5.91,7.26,12.45,12.44,12.53
34.57,6.48,-6.05,6.48,-6.07,6.00,5.89,7.18,12.48,12.48,12.53
34.92,6.51,-6.06,6.52,-6.06,6.00,5.88,7.10,12.52,12.52,12.57
35.27,6.55,-6.08,6.55,-6.06,6.00,5.86,7.01,12.55,12.55,12.63
35.62,6.59,-6.04,6.59,-6.04,5.99,5.85,6.92,12.58,12.58,12.63
35.97,6.63,-6.00,6.63,-6.00,5.98,5.83,6.83,12.62,12.62,12.63
36.33,6.68,-5.95,6.68,-5.95,5.97,5.81,6.73,12.65,12.65,12.63
36.70,6.72,-5.91,6.72,-5.93,5.95,5.80,6.63,12.68,12.68,12.63
37.06,6.77,-5.91,6.77,-5.92,5.93,5.78,6.53,12.69,12.69,12.68
37.43,6.81,-5.92,6.81,-5.91,5.89,5.76,6.44,12.70,12.70,12.73
37.81,6.84,-5.89,6.84,-5.88,5.84,5.74,6.34,12.68,12.69,12.73
38.19,6.87,-5.81,6.86,-5.81,5.79,5.73,6.24,12.66,12.65,12.67
38.57,6.88,-5.73,6.88,-5.73,5.73,5.71,6.14,12.61,12.61,12.60
38.95,6.88,-5.66,6.88,-5.65,5.66,5.69,6.05,12.54,12.54,12.54
39.34,6.88,-5.58,6.88,-5.58,5.58,5.67,5.96,12.47,12.47,12.46
39.74,6.88,-5.51,6.88,-5.51,5.50,5.65,5.87,12.38,12.38,12.39
40.14,6.89,-5.44,6.89,-5.44,5.42,5.63,5.78,12.31,12.31,12.33
40.54,6.89,-5.37,6.89,-5.36,5.36,5.61,5.69,12.25,12.25,12.26
40.94,6.89,-5.30,6.89,-5.29,5.32,5.59,5.61,12.21,12.21,12.19
41.35,6.90,-5.23,6.90,-5.24,5.29,5.57,5.54,12.19,12.19,12.13
41.76,6.92,-5.21,6.92,-5.22,5.28,5.55,5.46,12.19,12.19,12.13
42.18,6.94,-5.24,6.94,-5.25,5.28,5.53,5.39,12.21,12.21,12.18
42.60,6.95,-5.30,6.95,-5.29,5.29,5.51,5.32,12.24,12.24,12.25
43.03,6.97,-5.35,6.97,-5.33,5.30,5.49,5.26,12.27,12.27,12.32
43.46,6.98,-5.35,6.98,-5.35,5.31,5.47,5.20,12.29,12.29,12.33
43.90,6.99,-5.34,6.99,-5.35,5.32,5.45,5.14,12.31,12.31,12.33
44.33,7.00,-5.34,7.00,-5.34,5.32,5.43,5.09,12.32,12.32,12.33
44.78,7.00,-5.33,7.00,-5.32,5.31,5.41,5.04,12.31,12.31,12.33
45.23,7.00,-5.29,7.00,-5.28,5.29,5.39,5.00,12.29,12.29,12.30
45.68,7.01,-5.23,7.01,-5.25,5.27,5.37,4.96,12.27,12.27,12.23
46.13,7.01,-5.23,7.01,-5.23,5.25,5.35,4.92,12.25,12.25,12.23
46.60,7.00,-5.23,7.00,-5.22,5.23,5.33,4.89,12.24,12.24,12.23
47.06,7.00,-5.23,7.00,-5.23,5.23,5.31,4.86,12.23,12.23,12.23
47.53,7.00,-5.23,7.00,-5.23,5.24,5.29,4.83,12.24,12.24,12.23
48.01,7.00,-5.24,6.99,-5.24,5.26,5.26,4.81,12.26,12.26,12.23
48.49,6.99,-5.25,6.99,-5.27,5.28,5.24,4.79,12.28,12.28,12.24
48.97,6.99,-5.33,6.99,-5.31,5.31,5.22,4.77,12.30,12.30,12.31
49.46,6.98,-5.35,6.98,-5.34,5.33,5.20,4.76,12.31,12.31,12.33
49.96,6.98,-5.35,6.98,-5.36,5.35,5.18,4.75,12.32,12.33,12.33
50.46,6.97,-5.36,6.97,-5.36,5.35,5.16,4.74,12.33,12.33,12.33
50.96,6.97,-5.36,6.97,-5.35,5.34,5.14,4.74,12.31,12.31,12.33
51.47,6.97,-5.34,6.97,-5.33,5.31,5.12,4.73,12.28,12.28,12.31
51.99,6.96,-5.27,6.96,-5.28,5.26,5.10,4.73,12.22,12.22,12.23
52.51,6.96,-5.21,6.96,-5.22,5.19,5.08,4.73,12.15,12.15,12.17
53.03,6.95,-5.15,6.95,-5.14,5.12,5.06,4.73,12.07,12.07,12.10
53.56,6.94,-5.07,6.94,-5.05,5.04,5.04,4.74,11.98,11.98,12.02
54.10,6.94,-4.94,6.94,-4.95,4.97,5.02,4.74,11.91,11.91,11.88
54.64,6.93,-4.86,6.93,-4.87,4.92,5.00,4.75,11.85,11.85,11.79
55.18,6.92,-4.81,6.92,-4.82,4.89,4.98,4.75,11.81,11.81,11.73
55.74,6.91,-4.82,6.91,-4.81,4.87,4.96,4.75,11.78,11.78,11.73
56.29,6.89,-4.84,6.89,-4.84,4.87,4.94,4.76,11.77,11.77,11.73
56.86,6.88,-4.87,6.88,-4.89,4.88,4.92,4.76,11.76,11.76,11.75
57.42,6.87,-4.95,6.87,-4.94,4.89,4.90,4.76,11.76,11.76,11.82
58.00,6.86,-4.97,6.86,-4.96,4.90,4.88,4.76,11.76,11.76,11.83
58.58,6.85,-4.96,6.85,-4.96,4.90,4.86,4.76,11.75,11.75,11.81
59.16,6.83,-4.90,6.83,-4.91,4.88,4.84,4.76,11.72,11.72,11.74
59.76,6.82,-4.85,6.82,-4.85,4.85,4.82,4.76,11.67,11.67,11.67
60.35,6.81,-4.80,6.81,-4.79,4.81,4.80,4.75,11.62,11.62,11.60
60.96,6.79,-4.74,6.79,-4.74,4.77,4.78,4.74,11.56,11.56,11.54
61.57,6.78,-4.68,6.78,-4.70,4.72,4.77,4.73,11.50,11.50,11.46
62.18,6.77,-4.66,6.77,-4.67,4.68,4.75,4.71,11.45,11.45,11.43
62.80,6.75,-4.67,6.75,-4.65,4.65,4.73,4.69,11.40,11.40,11.42
63.43,6.74,-4.62,6.74,-4.64,4.62,4.71,4.67,11.36,11.36,11.36
64.07,6.72,-4.61,6.72,-4.62,4.61,4.69,4.65,11.32,11.32,11.33
64.71,6.70,-4.62,6.70,-4.60,4.60,4.67,4.62,11.29,11.29,11.32
65.35,6.68,-4.57,6.68,-4.59,4.59,4.66,4.59,11.27,11.27,11.25
66.01,6.66,-4.57,6.66,-4.58,4.60,4.64,4.56,11.26,11.26,11.23
66.67,6.64,-4.59,6.64,-4.59,4.61,4.62,4.52,11.25,11.25,11.23
67.33,6.62,-4.61,6.62,-4.61,4.62,4.61,4.48,11.24,11.24,11.23
68.01,6.60,-4.63,6.60,-4.63,4.64,4.59,4.44,11.24,11.24,11.23
68.69,6.58,-4.66,6.58,-4.66,4.66,4.57,4.40,11.23,11.23,11.23
69.37,6.55,-4.68,6.55,-4.68,4.67,4.55,4.36,11.22,11.22,11.23
70.07,6.53,-4.70,6.53,-4.70,4.67,4.54,4.32,11.20,11.20,11.23
70.77,6.50,-4.70,6.50,-4.69,4.66,4.52,4.27,11.16,11.16,11.20
71.48,6.47,-4.66,6.47,-4.66,4.64,4.50,4.23,11.11,11.11,11.13
72.19,6.45,-4.62,6.45,-4.62,4.61,4.49,4.19,11.06,11.06,11.06
72.91,6.42,-4.57,6.42,-4.57,4.58,4.47,4.14,11.00,11.00,10.99
73.64,6.39,-4.53,6.39,-4.52,4.55,4.46,4.10,10.95,10.95,10.92
74.38,6.37,-4.48,6.37,-4.50,4.53,4.44,4.05,10.89,10.89,10.85
75.12,6.34,-4.49,6.34,-4.48,4.50,4.43,4.01,10.85,10.85,10.83
75.87,6.32,-4.50,6.32,-4.48,4.49,4.41,3.97,10.80,10.80,10.82
76.63,6.29,-4.46,6.29,-4.48,4.47,4.39,3.93,10.76,10.76,10.75
77.40,6.26,-4.47,6.26,-4.47,4.46,4.38,3.89,10.72,10.72,10.73
78.17,6.23,-4.48,6.23,-4.46,4.44,4.36,3.85,10.68,10.68,10.71
78.95,6.20,-4.44,6.20,-4.44,4.42,4.35,3.81,10.63,10.63,10.64
79.74,6.17,-4.40,6.17,-4.41,4.40,4.33,3.78,10.57,10.57,10.57
80.54,6.14,-4.36,6.14,-4.36,4.37,4.32,3.75,10.51,10.51,10.50
81.35,6.11,-4.33,6.11,-4.33,4.33,4.30,3.72,10.44,10.44,10.44
82.16,6.08,-4.29,6.08,-4.29,4.29,4.29,3.69,10.37,10.37,10.37
82.98,6.05,-4.25,6.05,-4.25,4.25,4.27,3.66,10.29,10.29,10.30
83.81,6.02,-4.21,6.02,-4.21,4.21,4.26,3.64,10.22,10.22,10.23
84.65,5.99,-4.17,5.99,-4.17,4.17,4.25,3.62,10.16,10.16,10.16
85.50,5.96,-4.13,5.96,-4.13,4.14,4.23,3.60,10.09,10.09,10.09
86.35,5.92,-4.10,5.92,-4.09,4.11,4.22,3.59,10.03,10.03,10.02
87.22,5.89,-4.06,5.89,-4.08,4.09,4.20,3.58,9.98,9.98,9.95
88.09,5.85,-4.08,5.85,-4.07,4.09,4.19,3.57,9.94,9.94,9.93
88.97,5.82,-4.10,5.82,-4.07,4.08,4.18,3.56,9.90,9.90,9.91
89.86,5.78,-4.06,5.78,-4.08,4.08,4.16,3.55,9.86,9.86,9.84
90.76,5.75,-4.08,5.75,-4.09,4.09,4.15,3.55,9.83,9.83,9.83
91.66,5.72,-4.11,5.72,-4.11,4.09,4.13,3.55,9.81,9.81,9.83
92.58,5.69,-4.14,5.69,-4.13,4.10,4.12,3.56,9.79,9.79,9.83
93.51,5.65,-4.12,5.65,-4.11,4.11,4.11,3.56,9.76,9.76,9.77
94.44,5.61,-4.09,5.61,-4.09,4.12,4.09,3.57,9.73,9.73,9.70
95.39,5.57,-4.07,5.56,-4.09,4.13,4.08,3.58,9.69,9.69,9.63
96.34,5.51,-4.12,5.51,-4.11,4.13,4.06,3.60,9.64,9.63,9.63
97.30,5.44,-4.15,5.44,-4.14,4.13,4.05,3.61,9.57,9.57,9.60
98.28,5.38,-4.15,5.38,-4.15,4.12,4.04,3.63,9.49,9.49,9.53
99.26,5.32,-4.13,5.32,-4.13,4.10,4.02,3.65,9.42,9.43,9.46
100.25,5.28,-4.10,5.28,-4.10,4.09,4.01,3.67,9.37,9.37,9.38
101.25,5.26,-4.06,5.26,-4.07,4.07,4.00,3.69,9.33,9.33,9.32
102.27,5.23,-4.03,5.23,-4.02,4.05,3.98,3.71,9.28,9.28,9.27
103.29,5.21,-3.99,5.21,-3.99,4.02,3.97,3.74,9.23,9.23,9.20
104.32,5.18,-3.95,5.18,-3.98,3.99,3.96,3.77,9.17,9.17,9.13
105.37,5.15,-3.98,5.15,-3.96,3.96,3.94,3.79,9.12,9.12,9.13
106.42,5.12,-3.97,5.12,-3.95,3.94,3.93,3.82,9.06,9.06,9.09
107.48,5.09,-3.92,5.09,-3.93,3.91,3.91,3.85,9.00,9.00,9.01
108.56,5.05,-3.90,5.05,-3.89,3.89,3.90,3.87,8.94,8.94,8.95
109.64,5.01,-3.86,5.01,-3.87,3.87,3.89,3.90,8.87,8.87,8.87
110.74,4.96,-3.83,4.96,-3.84,3.84,3.87,3.92,8.80,8.80,8.79
111.85,4.92,-3.82,4.92,-3.80,3.81,3.86,3.95,8.72,8.72,8.74
112.97,4.87,-3.76,4.87,-3.78,3.77,3.84,3.97,8.64,8.64,8.63
114.10,4.83,-3.75,4.83,-3.76,3.75,3.83,3.99,8.57,8.57,8.58
115.24,4.78,-3.74,4.78,-3.73,3.73,3.81,4.01,8.51,8.51,8.52
116.39,4.74,-3.72,4.74,-3.70,3.72,3.80,4.03,8.46,8.46,8.46
117.55,4.70,-3.67,4.70,-3.69,3.71,3.79,4.04,8.42,8.42,8.38
118.73,4.66,-3.67,4.66,-3.69,3.71,3.77,4.05,8.37,8.37,8.33
119.92,4.62,-3.71,4.62,-3.71,3.72,3.76,4.06,8.33,8.33,8.33
121.12,4.58,-3.75,4.58,-3.75,3.72,3.74,4.06,8.30,8.30,8.33
122.33,4.54,-3.78,4.54,-3.76,3.73,3.73,4.06,8.27,8.27,8.31
123.55,4.49,-3.76,4.49,-3.75,3.74,3.71,4.06,8.24,8.24,8.25
124.79,4.45,-3.70,4.45,-3.73,3.75,3.70,4.05,8.20,8.20,8.15
126.03,4.41,-3.72,4.41,-3.73,3.75,3.68,4.04,8.16,8.16,8.13
127.29,4.36,-3.76,4.36,-3.74,3.74,3.67,4.03,8.10,8.10,8.12
128.57,4.31,-3.74,4.31,-3.75,3.72,3.65,4.01,8.03,8.03,8.05
129.85,4.26,-3.72,4.27,-3.72,3.69,3.64,3.99,7.96,7.96,7.99
131.15,4.22,-3.70,4.22,-3.68,3.67,3.62,3.96,7.88,7.88,7.92
132.46,4.17,-3.62,4.17,-3.63,3.64,3.60,3.93,7.81,7.81,7.78
133.79,4.12,-3.58,4.12,-3.59,3.62,3.59,3.90,7.73,7.73,7.69
135.12,4.07,-3.56,4.07,-3.55,3.58,3.57,3.87,7.65,7.65,7.63
136.48,4.02,-3.54,4.02,-3.54,3.54,3.56,3.83,7.56,7.56,7.56
137.84,3.97,-3.52,3.97,-3.52,3.50,3.54,3.79,7.47,7.47,7.49
139.22,3.93,-3.49,3.93,-3.50,3.46,3.52,3.75,7.39,7.39,7.42
140.61,3.88,-3.47,3.88,-3.45,3.42,3.51,3.71,7.30,7.30,7.35
142.02,3.83,-3.40,3.83,-3.40,3.39,3.49,3.66,7.22,7.22,7.23
143.44,3.79,-3.32,3.79,-3.34,3.36,3.47,3.61,7.15,7.15,7.11
144.87,3.74,-3.30,3.74,-3.29,3.33,3.46,3.57,7.07,7.07,7.04
146.32,3.69,-3.28,3.69,-3.29,3.31,3.44,3.52,7.00,7.00,6.97
147.78,3.64,-3.29,3.64,-3.30,3.29,3.42,3.47,6.93,6.93,6.93
149.26,3.59,-3.33,3.59,-3.30,3.29,3.40,3.43,6.88,6.88,6.92
150.75,3.54,-3.30,3.54,-3.31,3.30,3.39,3.38,6.84,6.84,6.84
152.26,3.49,-3.30,3.49,-3.30,3.32,3.37,3.33,6.81,6.81,6.79
153.78,3.43,-3.30,3.43,-3.32,3.35,3.35,3.29,6.78,6.78,6.74
155.32,3.38,-3.35,3.38,-3.36,3.37,3.33,3.24,6.75,6.75,6.73
156.88,3.32,-3.41,3.32,-3.40,3.39,3.31,3.20,6.71,6.71,6.73
158.44,3.27,-3.44,3.27,-3.42,3.39,3.29,3.15,6.66,6.66,6.71
160.03,3.21,-3.42,3.21,-3.44,3.39,3.28,3.11,6.61,6.61,6.63
161.63,3.16,-3.42,3.16,-3.41,3.38,3.26,3.07,6.54,6.54,6.58
163.24,3.10,-3.41,3.10,-3.37,3.37,3.24,3.03,6.47,6.47,6.51
164.88,3.05,-3.30,3.05,-3.33,3.35,3.22,3.00,6.39,6.39,6.34
166.53,2.99,-3.29,2.99,-3.30,3.32,3.20,2.96,6.31,6.31,6.28
168.19,2.94,-3.28,2.94,-3.26,3.30,3.18,2.93,6.23,6.23,6.22
169.87,2.88,-3.25,2.88,-3.25,3.28,3.16,2.90,6.16,6.16,6.14
171.57,2.84,-3.22,2.84,-3.24,3.26,3.14,2.87,6.09,6.09,6.05
173.29,2.79,-3.24,2.79,-3.24,3.24,3.12,2.85,6.04,6.04,6.03
175.02,2.75,-3.28,2.76,-3.24,3.23,3.10,2.82,5.98,5.98,6.03
176.77,2.73,-3.22,2.73,-3.23,3.20,3.08,2.80,5.92,5.92,5.94
178.54,2.70,-3.18,2.70,-3.19,3.16,3.06,2.78,5.86,5.86,5.88
180.32,2.68,-3.14,2.68,-3.14,3.12,3.04,2.76,5.80,5.80,5.82
182.13,2.66,-3.10,2.66,-3.08,3.06,3.02,2.75,5.72,5.72,5.76
183.95,2.64,-3.00,2.64,-3.00,3.01,3.00,2.74,5.65,5.64,5.64
185.79,2.61,-2.89,2.61,-2.92,2.95,2.98,2.72,5.56,5.56,5.50
187.65,2.59,-2.86,2.58,-2.86,2.89,2.96,2.71,5.48,5.47,5.44
189.52,2.55,-2.83,2.55,-2.82,2.84,2.93,2.71,5.39,5.39,5.38
191.42,2.52,-2.80,2.52,-2.80,2.79,2.91,2.70,5.30,5.30,5.32
193.33,2.48,-2.78,2.48,-2.77,2.75,2.89,2.70,5.23,5.23,5.25
195.27,2.44,-2.73,2.44,-2.73,2.72,2.87,2.70,5.16,5.16,5.17
197.22,2.40,-2.69,2.40,-2.70,2.71,2.85,2.70,5.10,5.10,5.09
199.19,2.35,-2.67,2.35,-2.67,2.70,2.83,2.70,5.05,5.05,5.02
201.18,2.31,-2.65,2.31,-2.66,2.68,2.80,2.70,5.00,5.00,4.96
203.19,2.27,-2.66,2.27,-2.67,2.67,2.78,2.70,4.94,4.94,4.93
205.23,2.23,-2.70,2.22,-2.68,2.65,2.76,2.71,4.88,4.88,4.92
207.28,2.18,-2.68,2.18,-2.68,2.64,2.74,2.71,4.82,4.81,4.86
209.35,2.13,-2.65,2.13,-2.65,2.62,2.72,2.72,4.75,4.75,4.79
211.44,2.09,-2.62,2.09,-2.59,2.60,2.69,2.72,4.69,4.69,4.70
213.56,2.04,-2.52,2.04,-2.56,2.59,2.67,2.73,4.62,4.62,4.56
215.69,1.99,-2.54,1.99,-2.54,2.57,2.65,2.74,4.56,4.56,4.53
217.85,1.94,-2.56,1.94,-2.54,2.56,2.62,2.75,4.50,4.50,4.50
220.03,1.89,-2.54,1.89,-2.54,2.55,2.60,2.75,4.44,4.44,4.43
222.23,1.84,-2.53,1.84,-2.54,2.55,2.58,2.76,4.39,4.39,4.38
224.45,1.79,-2.54,1.79,-2.55,2.55,2.56,2.76,4.35,4.35,4.33
226.70,1.74,-2.59,1.74,-2.56,2.55,2.53,2.77,4.30,4.30,4.33
228.96,1.70,-2.57,1.70,-2.57,2.55,2.51,2.77,4.24,4.24,4.27
231.25,1.65,-2.55,1.65,-2.56,2.53,2.49,2.77,4.18,4.18,4.20
233.57,1.60,-2.54,1.60,-2.54,2.52,2.46,2.77,4.12,4.12,4.14
235.90,1.55,-2.51,1.55,-2.49,2.50,2.44,2.77,4.05,4.05,4.07
238.26,1.51,-2.44,1.51,-2.45,2.48,2.42,2.77,3.98,3.98,3.95
240.64,1.46,-2.37,1.46,-2.41,2.45,2.39,2.76,3.91,3.91,3.83
243.05,1.41,-2.42,1.41,-2.40,2.42,2.37,2.75,3.83,3.83,3.83
245.48,1.37,-2.42,1.37,-2.40,2.39,2.34,2.74,3.76,3.76,3.78
247.93,1.32,-2.39,1.32,-2.40,2.35,2.32,2.73,3.67,3.67,3.71
250.41,1.27,-2.37,1.27,-2.36,2.32,2.30,2.71,3.59,3.59,3.65
252.92,1.23,-2.31,1.23,-2.30,2.29,2.27,2.70,3.52,3.52,3.53
255.45,1.19,-2.23,1.19,-2.24,2.25,2.25,2.67,3.44,3.44,3.42
258.00,1.14,-2.19,1.14,-2.19,2.22,2.23,2.65,3.37,3.37,3.33
260.58,1.10,-2.17,1.10,-2.16,2.20,2.20,2.63,3.29,3.29,3.27
263.19,1.05,-2.15,1.05,-2.15,2.18,2.18,2.60,3.23,3.23,3.20
265.82,1.01,-2.13,1.01,-2.15,2.16,2.15,2.57,3.17,3.17,3.14
268.48,0.96,-2.17,0.96,-2.16,2.15,2.13,2.53,3.12,3.12,3.13
271.16,0.92,-2.18,0.92,-2.17,2.15,2.11,2.50,3.07,3.07,3.10
273.87,0.88,-2.16,0.87,-2.16,2.14,2.08,2.46,3.02,3.02,3.03
276.61,0.83,-2.13,0.83,-2.14,2.13,2.06,2.42,2.96,2.96,2.97
279.38,0.79,-2.11,0.79,-2.11,2.10,2.04,2.38,2.89,2.89,2.90
282.17,0.75,-2.08,0.75,-2.08,2.06,2.01,2.34,2.81,2.81,2.83
284.99,0.70,-2.05,0.70,-2.03,2.02,1.99,2.30,2.73,2.73,2.76
287.84,0.66,-1.98,0.66,-1.97,1.98,1.96,2.26,2.64,2.64,2.64
290.72,0.62,-1.89,0.62,-1.91,1.93,1.94,2.21,2.55,2.55,2.51
293.63,0.58,-1.86,0.58,-1.86,1.88,1.92,2.17,2.46,2.46,2.44
296.57,0.54,-1.83,0.54,-1.83,1.84,1.89,2.12,2.38,2.38,2.37
299.53,0.50,-1.80,0.50,-1.81,1.80,1.87,2.08,2.30,2.30,2.30
302.53,0.45,-1.79,0.45,-1.78,1.78,1.85,2.03,2.23,2.23,2.24
305.55,0.41,-1.75,0.41,-1.75,1.76,1.82,1.99,2.17,2.17,2.17
308.61,0.37,-1.73,0.37,-1.73,1.75,1.80,1.94,2.12,2.12,2.10
311.69,0.33,-1.70,0.33,-1.72,1.73,1.77,1.90,2.07,2.07,2.04
314.81,0.29,-1.74,0.29,-1.73,1.72,1.75,1.86,2.02,2.02,2.03
317.96,0.25,-1.74,0.25,-1.73,1.71,1.73,1.81,1.96,1.96,1.99
321.14,0.21,-1.71,0.21,-1.71,1.69,1.70,1.77,1.90,1.90,1.93
324.35,0.18,-1.67,0.18,-1.68,1.67,1.68,1.73,1.84,1.84,1.85
327.59,0.14,-1.64,0.14,-1.64,1.64,1.66,1.69,1.78,1.78,1.78
330.87,0.10,-1.61,0.10,-1.61,1.61,1.64,1.65,1.72,1.72,1.71
334.18,0.07,-1.58,0.07,-1.58,1.59,1.61,1.61,1.65,1.65,1.65
337.52,0.03,-1.55,0.03,-1.55,1.56,1.59,1.57,1.59,1.59,1.58
340.90,-0.01,-1.52,-0.01,-1.52,1.54,1.57,1.54,1.53,1.53,1.51
344.30,-0.04,-1.49,-0.04,-1.51,1.52,1.54,1.50,1.47,1.47,1.45
347.75,-0.08,-1.51,-0.08,-1.51,1.49,1.52,1.47,1.41,1.42,1.43
351.23,-0.11,-1.52,-0.11,-1.50,1.47,1.50,1.43,1.36,1.36,1.41
354.74,-0.15,-1.49,-0.15,-1.49,1.46,1.47,1.40,1.31,1.31,1.34
358.28,-0.18,-1.45,-0.18,-1.45,1.45,1.45,1.37,1.27,1.27,1.27
361.87,-0.22,-1.41,-0.22,-1.41,1.45,1.43,1.34,1.23,1.23,1.19
365.49,-0.25,-1.38,-0.25,-1.40,1.45,1.41,1.31,1.19,1.19,1.13
369.14,-0.29,-1.42,-0.29,-1.42,1.44,1.38,1.28,1.15,1.15,1.13
372.83,-0.32,-1.45,-0.32,-1.44,1.43,1.36,1.26,1.11,1.11,1.13
376.56,-0.35,-1.47,-0.35,-1.46,1.41,1.34,1.23,1.07,1.06,1.12
380.33,-0.38,-1.44,-0.38,-1.44,1.40,1.32,1.21,1.02,1.02,1.06
384.13,-0.41,-1.40,-0.41,-1.41,1.38,1.30,1.18,0.97,0.97,0.99
387.97,-0.44,-1.36,-0.44,-1.36,1.37,1.27,1.16,0.92,0.92,0.92
391.85,-0.48,-1.33,-0.48,-1.32,1.35,1.25,1.14,0.87,0.87,0.85
395.77,-0.51,-1.28,-0.51,-1.29,1.32,1.23,1.11,0.82,0.82,0.78
399.73,-0.54,-1.27,-0.54,-1.28,1.30,1.21,1.09,0.77,0.77,0.73
403.72,-0.57,-1.30,-0.57,-1.27,1.29,1.19,1.07,0.72,0.72,0.73
407.76,-0.60,-1.27,-0.60,-1.28,1.27,1.16,1.05,0.67,0.67,0.67
411.84,-0.63,-1.26,-0.63,-1.28,1.26,1.14,1.03,0.63,0.63,0.63
415.96,-0.66,-1.29,-0.66,-1.27,1.24,1.12,1.02,0.58,0.58,0.63
420.12,-0.69,-1.25,-0.69,-1.25,1.23,1.10,1.00,0.54,0.54,0.56
424.32,-0.72,-1.21,-0.72,-1.21,1.21,1.08,0.98,0.50,0.50,0.49
428.56,-0.75,-1.17,-0.75,-1.17,1.19,1.06,0.96,0.45,0.45,0.42
432.85,-0.78,-1.13,-0.78,-1.15,1.17,1.04,0.95,0.40,0.40,0.35
437.18,-0.80,-1.13,-0.80,-1.14,1.15,1.01,0.93,0.34,0.34,0.33
441.55,-0.83,-1.15,-0.83,-1.13,1.12,0.99,0.91,0.29,0.29,0.32
445.96,-0.86,-1.11,-0.86,-1.11,1.09,0.97,0.90,0.23,0.23,0.25
450.42,-0.88,-1.07,-0.88,-1.07,1.05,0.95,0.88,0.17,0.17,0.18
454.93,-0.91,-1.03,-0.91,-1.02,1.02,0.93,0.86,0.11,0.11,0.12
459.48,-0.94,-0.98,-0.94,-0.98,0.98,0.91,0.85,0.04,0.04,0.04
464.07,-0.96,-0.94,-0.96,-0.94,0.94,0.89,0.83,-0.02,-0.02,-0.03
468.71,-0.99,-0.89,-0.99,-0.89,0.91,0.87,0.81,-0.08,-0.08,-0.09
473.40,-1.01,-0.85,-1.01,-0.85,0.87,0.85,0.79,-0.14,-0.14,-0.16
478.13,-1.03,-0.81,-1.03,-0.82,0.84,0.82,0.78,-0.20,-0.20,-0.23
482.91,-1.06,-0.79,-1.06,-0.80,0.81,0.80,0.76,-0.25,-0.25,-0.27
487.74,-1.08,-0.81,-1.08,-0.79,0.77,0.78,0.74,-0.31,-0.31,-0.27
492.62,-1.10,-0.77,-1.10,-0.76,0.74,0.76,0.72,-0.37,-0.37,-0.33
497.55,-1.12,-0.72,-1.12,-0.72,0.70,0.74,0.70,-0.43,-0.43,-0.41
502.52,-1.14,-0.67,-1.14,-0.67,0.66,0.72,0.68,-0.49,-0.49,-0.48
507.55,-1.16,-0.62,-1.16,-0.62,0.62,0.70,0.65,-0.55,-0.55,-0.55
512.62,-1.18,-0.57,-1.18,-0.57,0.58,0.67,0.63,-0.60,-0.60,-0.61
517.75,-1.21,-0.53,-1.20,-0.52,0.55,0.65,0.61,-0.66,-0.66,-0.68
522.93,-1.22,-0.47,-1.22,-0.49,0.52,0.63,0.58,-0.71,-0.71,-0.75
