frequency,raw,error,smoothed,error_smoothed,equalization,parametric_eq,fixed_band_eq,equalized_raw,equalized_smoothed,target
20.00,8.04,4.55,8.04,4.55,-4.53,-4.17,-1.56,3.51,3.51,3.48
20.20,8.07,4.53,8.07,4.52,-4.52,-4.22,-1.61,3.55,3.55,3.54
20.40,8.10,4.48,8.10,4.49,-4.51,-4.27,-1.65,3.59,3.59,3.62
20.61,8.14,4.46,8.14,4.48,-4.51,-4.33,-1.70,3.63,3.63,3.68
20.81,8.19,4.51,8.19,4.49,-4.51,-4.38,-1.75,3.68,3.68,3.68
21.02,8.25,4.52,8.25,4.51,-4.51,-4.44,-1.81,3.74,3.74,3.73
21.23,8.31,4.51,8.31,4.53,-4.51,-4.50,-1.86,3.80,3.80,3.79
21.44,8.38,4.53,8.38,4.53,-4.52,-4.56,-1.92,3.86,3.86,3.85
21.66,8.45,4.54,8.45,4.54,-4.53,-4.61,-1.97,3.92,3.92,3.90
21.87,8.52,4.55,8.52,4.55,-4.55,-4.66,-2.03,3.98,3.98,3.98
22.09,8.60,4.55,8.60,4.54,-4.56,-4.71,-2.09,4.04,4.04,4.05
22.31,8.67,4.55,8.67,4.55,-4.57,-4.75,-2.16,4.10,4.10,4.12
22.54,8.74,4.55,8.74,4.57,-4.58,-4.78,-2.22,4.16,4.16,4.18
22.76,8.80,4.62,8.80,4.60,-4.59,-4.80,-2.29,4.22,4.22,4.18
22.99,8.86,4.63,8.86,4.61,-4.60,-4.81,-2.35,4.26,4.26,4.23
23.22,8.91,4.61,8.91,4.61,-4.61,-4.80,-2.42,4.30,4.30,4.29
23.45,8.95,4.58,8.95,4.60,-4.62,-4.78,-2.49,4.33,4.33,4.37
23.69,8.97,4.59,8.97,4.59,-4.62,-4.74,-2.56,4.36,4.36,4.38
23.92,8.99,4.61,8.99,4.60,-4.61,-4.70,-2.64,4.39,4.38,4.38
24.16,9.00,4.61,9.00,4.62,-4.59,-4.64,-2.71,4.41,4.41,4.38
24.40,8.99,4.60,8.99,4.59,-4.56,-4.58,-2.79,4.43,4.43,4.38
24.65,8.96,4.54,8.96,4.53,-4.52,-4.50,-2.86,4.44,4.44,4.42
24.89,8.93,4.44,8.92,4.46,-4.47,-4.43,-2.94,4.46,4.46,4.48
25.14,8.88,4.39,8.88,4.40,-4.40,-4.35,-3.02,4.47,4.47,4.48
25.39,8.82,4.33,8.82,4.33,-4.32,-4.26,-3.09,4.50,4.50,4.48
25.65,8.76,4.26,8.76,4.25,-4.24,-4.18,-3.17,4.53,4.53,4.50
25.91,8.71,4.15,8.71,4.14,-4.14,-4.10,-3.25,4.57,4.57,4.56
26.16,8.65,4.03,8.66,4.04,-4.04,-4.02,-3.33,4.61,4.61,4.63
26.43,8.61,3.92,8.61,3.94,-3.95,-3.94,-3.40,4.66,4.66,4.68
26.69,8.56,3.87,8.56,3.85,-3.86,-3.87,-3.48,4.70,4.70,4.68
26.96,8.50,3.78,8.50,3.77,-3.77,-3.79,-3.55,4.74,4.73,4.72
27.23,8.45,3.66,8.45,3.68,-3.69,-3.72,-3.63,4.76,4.76,4.78
27.50,8.39,3.60,8.39,3.60,-3.61,-3.66,-3.70,4.77,4.77,4.78
27.77,8.33,3.54,8.33,3.54,-3.55,-3.59,-3.76,4.78,4.78,4.78
28.05,8.28,3.49,8.28,3.50,-3.50,-3.53,-3.83,4.78,4.78,4.78
28.33,8.25,3.46,8.25,3.44,-3.45,-3.47,-3.88,4.80,4.80,4.78
28.62,8.23,3.39,8.23,3.40,-3.40,-3.41,-3.94,4.83,4.83,4.84
28.90,8.22,3.34,8.22,3.36,-3.35,-3.36,-3.99,4.87,4.87,4.88
29.19,8.23,3.34,8.23,3.32,-3.31,-3.30,-4.04,4.92,4.92,4.88
29.48,8.24,3.28,8.24,3.28,-3.25,-3.25,-4.08,4.98,4.98,4.96
29.78,8.24,3.21,8.24,3.22,-3.20,-3.20,-4.11,5.04,5.04,5.03
30.08,8.25,3.15,8.25,3.15,-3.15,-3.15,-4.14,5.10,5.10,5.10
30.38,8.26,3.10,8.26,3.10,-3.10,-3.10,-4.16,5.16,5.16,5.16
30.68,8.27,3.04,8.28,3.04,-3.07,-3.05,-4.18,5.21,5.21,5.23
30.99,8.30,3.00,8.30,3.00,-3.04,-3.01,-4.19,5.26,5.26,5.30
31.30,8.33,2.97,8.33,2.98,-3.02,-2.96,-4.19,5.31,5.32,5.36
31.61,8.36,2.98,8.36,2.98,-3.00,-2.92,-4.18,5.36,5.36,5.38
31.93,8.39,3.00,8.38,3.00,-2.99,-2.88,-4.17,5.40,5.40,5.38
32.24,8.39,3.01,8.39,3.01,-2.97,-2.83,-4.15,5.42,5.42,5.38
32.57,8.39,3.01,8.39,2.99,-2.95,-2.79,-4.12,5.44,5.43,5.38
32.89,8.37,2.96,8.37,2.94,-2.93,-2.75,-4.09,5.44,5.44,5.41
33.22,8.34,2.85,8.34,2.89,-2.89,-2.71,-4.05,5.45,5.45,5.48
33.55,8.31,2.82,8.31,2.82,-2.83,-2.67,-4.01,5.48,5.48,5.48
33.89,8.29,2.77,8.29,2.75,-2.77,-2.63,-3.96,5.52,5.53,5.52
34.23,8.28,2.69,8.28,2.69,-2.68,-2.59,-3.91,5.59,5.59,5.59
34.57,8.27,2.61,8.27,2.61,-2.60,-2.55,-3.85,5.67,5.67,5.66
34.92,8.26,2.53,8.25,2.52,-2.50,-2.51,-3.78,5.75,5.75,5.73
35.27,8.23,2.43,8.23,2.42,-2.41,-2.47,-3.72,5.82,5.81,5.80
35.62,8.18,2.31,8.18,2.32,-2.32,-2.43,-3.65,5.86,5.86,5.87
35.97,8.11,2.23,8.11,2.23,-2.24,-2.39,-3.58,5.88,5.87,5.88
36.33,8.03,2.15,8.03,2.14,-2.16,-2.35,-3.50,5.87,5.87,5.88
36.70,7.96,2.07,7.96,2.07,-2.10,-2.31,-3.42,5.86,5.86,5.88
37.06,7.90,2.02,7.91,2.02,-2.06,-2.27,-3.35,5.85,5.85,5.88
37.43,7.88,1.99,7.88,2.00,-2.02,-2.24,-3.27,5.85,5.86,5.88
37.81,7.89,2.00,7.89,2.01,-2.00,-2.20,-3.19,5.89,5.88,5.88
38.19,7.90,2.02,7.90,2.01,-1.99,-2.16,-3.11,5.92,5.92,5.88
38.57,7.93,2.02,7.93,2.00,-1.98,-2.12,-3.03,5.95,5.95,5.91
38.95,7.94,1.96,7.94,1.98,-1.97,-2.09,-2.95,5.98,5.98,5.98
39.34,7.94,1.96,7.94,1.96,-1.95,-2.05,-2.87,5.99,5.99,5.98
39.74,7.93,1.94,7.92,1.93,-1.94,-2.01,-2.79,5.99,5.99,5.98
40.14,7.89,1.91,7.89,1.91,-1.92,-1.97,-2.71,5.98,5.98,5.98
40.54,7.85,1.87,7.86,1.87,-1.89,-1.94,-2.63,5.97,5.97,5.98
40.94,7.82,1.83,7.82,1.84,-1.86,-1.90,-2.56,5.96,5.96,5.98
41.35,7.79,1.81,7.79,1.81,-1.81,-1.86,-2.48,5.98,5.98,5.98
41.76,7.77,1.79,7.78,1.78,-1.76,-1.82,-2.41,6.01,6.02,5.98
42.18,7.77,1.74,7.77,1.74,-1.70,-1.79,-2.34,6.08,6.08,6.03
42.60,7.77,1.67,7.77,1.67,-1.62,-1.75,-2.27,6.15,6.15,6.10
43.03,7.77,1.60,7.77,1.57,-1.55,-1.71,-2.20,6.22,6.22,6.17
43.46,7.76,1.45,7.76,1.46,-1.48,-1.68,-2.13,6.28,6.28,6.31
43.90,7.73,1.35,7.73,1.37,-1.41,-1.64,-2.07,6.32,6.32,6.38
44.33,7.70,1.31,7.69,1.30,-1.35,-1.60,-2.00,6.34,6.34,6.38
44.78,7.65,1.26,7.65,1.26,-1.30,-1.57,-1.94,6.34,6.34,6.38
45.23,7.59,1.24,7.59,1.25,-1.26,-1.53,-1.88,6.33,6.33,6.35
45.68,7.53,1.24,7.53,1.24,-1.22,-1.49,-1.82,6.31,6.30,6.29
46.13,7.47,1.26,7.47,1.25,-1.20,-1.46,-1.76,6.27,6.27,6.21
46.60,7.42,1.24,7.43,1.23,-1.18,-1.42,-1.71,6.24,6.25,6.18
47.06,7.39,1.20,7.39,1.18,-1.17,-1.39,-1.65,6.22,6.22,6.19
47.53,7.37,1.11,7.37,1.12,-1.16,-1.35,-1.60,6.21,6.21,6.26
48.01,7.36,1.08,7.36,1.09,-1.15,-1.31,-1.55,6.21,6.21,6.28
48.49,7.36,1.09,7.36,1.10,-1.14,-1.28,-1.49,6.22,6.22,6.27
48.97,7.36,1.15,7.36,1.13,-1.13,-1.24,-1.45,6.23,6.23,6.20
49.46,7.35,1.16,7.35,1.15,-1.12,-1.20,-1.40,6.23,6.23,6.18
49.96,7.33,1.15,7.33,1.15,-1.10,-1.17,-1.35,6.23,6.22,6.18
50.46,7.30,1.12,7.30,1.12,-1.09,-1.13,-1.31,6.21,6.21,6.18
50.96,7.27,1.09,7.27,1.09,-1.08,-1.10,-1.26,6.19,6.19,6.18
51.47,7.24,1.05,7.24,1.05,-1.06,-1.06,-1.22,6.18,6.18,6.18
51.99,7.20,1.02,7.20,1.01,-1.04,-1.02,-1.18,6.17,6.17,6.18
52.51,7.17,0.98,7.17,1.00,-1.01,-0.99,-1.14,6.15,6.15,6.18
53.03,7.13,0.98,7.13,0.99,-1.00,-0.95,-1.10,6.13,6.13,6.15
53.56,7.10,1.01,7.10,0.98,-0.99,-0.92,-1.06,6.10,6.10,6.08
54.10,7.06,0.98,7.06,0.99,-1.00,-0.88,-1.02,6.06,6.06,6.08
54.64,7.02,0.98,7.02,1.00,-1.00,-0.84,-0.98,6.02,6.02,6.04
55.18,6.98,1.01,6.98,1.01,-1.01,-0.81,-0.94,5.98,5.98,5.97
55.74,6.95,1.04,6.95,1.03,-1.01,-0.77,-0.91,5.93,5.94,5.91
56.29,6.92,1.03,6.92,1.03,-1.01,-0.74,-0.87,5.91,5.91,5.88
56.86,6.89,1.00,6.89,1.01,-1.00,-0.70,-0.84,5.89,5.89,5.88
57.42,6.86,0.98,6.86,0.98,-0.98,-0.67,-0.80,5.88,5.88,5.88
58.00,6.84,0.95,6.84,0.96,-0.95,-0.63,-0.77,5.89,5.89,5.88
58.58,6.81,0.92,6.81,0.92,-0.91,-0.59,-0.73,5.90,5.90,5.88
59.16,6.77,0.89,6.77,0.87,-0.86,-0.56,-0.70,5.91,5.91,5.88
59.76,6.74,0.79,6.74,0.80,-0.81,-0.52,-0.67,5.93,5.93,5.95
60.35,6.70,0.72,6.71,0.74,-0.76,-0.49,-0.63,5.95,5.95,5.98
60.96,6.67,0.68,6.67,0.68,-0.70,-0.45,-0.60,5.97,5.97,5.98
61.57,6.63,0.65,6.63,0.65,-0.64,-0.41,-0.57,5.99,5.99,5.98
62.18,6.59,0.61,6.59,0.60,-0.58,-0.38,-0.53,6.01,6.01,5.98
62.80,6.55,0.56,6.55,0.54,-0.52,-0.34,-0.50,6.03,6.03,6.00
63.43,6.51,0.46,6.51,0.47,-0.47,-0.31,-0.47,6.04,6.04,6.06
64.07,6.47,0.39,6.47,0.40,-0.43,-0.27,-0.43,6.05,6.05,6.08
64.71,6.43,0.35,6.43,0.35,-0.38,-0.23,-0.40,6.05,6.05,6.08
65.35,6.40,0.31,6.40,0.31,-0.33,-0.20,-0.37,6.07,6.07,6.08
66.01,6.36,0.27,6.36,0.28,-0.27,-0.16,-0.33,6.09,6.09,6.08
66.67,6.32,0.24,6.32,0.24,-0.21,-0.12,-0.30,6.11,6.11,6.08
67.33,6.28,0.20,6.28,0.18,-0.14,-0.09,-0.26,6.15,6.15,6.08
68.01,6.25,0.10,6.25,0.10,-0.06,-0.05,-0.23,6.19,6.18,6.15
68.69,6.21,-0.01,6.21,-0.00,0.02,-0.01,-0.19,6.23,6.23,6.21
69.37,6.17,-0.11,6.17,-0.12,0.11,0.02,-0.16,6.28,6.28,6.28
70.07,6.13,-0.23,6.13,-0.22,0.20,0.06,-0.12,6.32,6.32,6.35
70.77,6.09,-0.30,6.09,-0.29,0.27,0.10,-0.09,6.36,6.36,6.38
71.48,6.05,-0.34,6.05,-0.35,0.33,0.13,-0.05,6.37,6.37,6.38
72.19,6.01,-0.38,6.01,-0.39,0.35,0.17,-0.02,6.36,6.36,6.38
72.91,5.97,-0.41,5.97,-0.41,0.36,0.21,0.02,6.33,6.33,6.38
73.64,5.93,-0.43,5.93,-0.39,0.34,0.24,0.05,6.28,6.28,6.36
74.38,5.89,-0.33,5.89,-0.33,0.33,0.28,0.09,6.22,6.22,6.22
75.12,5.85,-0.24,5.85,-0.26,0.31,0.32,0.13,6.15,6.15,6.09
75.87,5.80,-0.18,5.80,-0.21,0.29,0.36,0.17,6.10,6.10,5.98
76.63,5.76,-0.22,5.76,-0.22,0.28,0.39,0.20,6.04,6.04,5.98
77.40,5.72,-0.27,5.72,-0.26,0.28,0.43,0.24,5.99,5.99,5.98
78.17,5.67,-0.31,5.67,-0.31,0.28,0.47,0.28,5.95,5.95,5.98
78.95,5.63,-0.35,5.63,-0.33,0.29,0.51,0.32,5.92,5.92,5.98
79.74,5.59,-0.34,5.59,-0.35,0.30,0.54,0.36,5.89,5.89,5.93
80.54,5.55,-0.34,5.55,-0.36,0.32,0.58,0.40,5.87,5.87,5.88
81.35,5.50,-0.38,5.50,-0.36,0.35,0.62,0.44,5.86,5.86,5.88
82.16,5.46,-0.36,5.46,-0.36,0.39,0.66,0.48,5.85,5.85,5.82
82.98,5.42,-0.37,5.42,-0.38,0.43,0.70,0.53,5.85,5.85,5.78
83.81,5.38,-0.41,5.38,-0.42,0.49,0.73,0.57,5.87,5.87,5.79
84.65,5.33,-0.52,5.33,-0.54,0.56,0.77,0.61,5.90,5.90,5.86
85.50,5.29,-0.67,5.29,-0.67,0.64,0.81,0.65,5.94,5.94,5.97
86.35,5.26,-0.83,5.26,-0.78,0.73,0.85,0.70,5.99,5.99,6.08
87.22,5.23,-0.86,5.23,-0.85,0.83,0.89,0.74,6.05,6.05,6.08
88.09,5.20,-0.89,5.20,-0.92,0.91,0.93,0.79,6.11,6.11,6.08
88.97,5.16,-0.96,5.16,-1.00,1.00,0.97,0.84,6.16,6.16,6.13
89.86,5.13,-1.14,5.12,-1.08,1.07,1.00,0.88,6.20,6.19,6.26
90.76,5.08,-1.15,5.08,-1.14,1.13,1.04,0.93,6.21,6.21,6.23
91.66,5.03,-1.16,5.03,-1.19,1.19,1.08,0.98,6.22,6.22,6.18
92.58,4.97,-1.21,4.97,-1.23,1.26,1.12,1.03,6.23,6.23,6.18
93.51,4.92,-1.32,4.92,-1.31,1.32,1.16,1.08,6.25,6.25,6.25
94.44,4.87,-1.41,4.87,-1.39,1.39,1.20,1.13,6.26,6.26,6.28
95.39,4.83,-1.46,4.83,-1.46,1.46,1.24,1.18,6.29,6.29,6.28
96.34,4.78,-1.50,4.78,-1.52,1.53,1.27,1.23,6.31,6.31,6.28
97.30,4.75,-1.58,4.75,-1.58,1.59,1.31,1.28,6.34,6.34,6.32
98.28,4.71,-1.68,4.71,-1.66,1.65,1.35,1.33,6.36,6.36,6.38
99.26,4.67,-1.72,4.67,-1.72,1.70,1.39,1.38,6.37,6.37,6.38
100.25,4.62,-1.76,4.62,-1.77,1.74,1.43,1.44,6.37,6.37,6.38
101.25,4.57,-1.80,4.57,-1.79,1.78,1.47,1.49,6.35,6.35,6.37
102.27,4.51,-1.81,4.51,-1.80,1.80,1.50,1.54,6.32,6.32,6.32
103.29,4.46,-1.80,4.46,-1.80,1.82,1.54,1.59,6.28,6.28,6.26
104.32,4.40,-1.79,4.40,-1.81,1.82,1.58,1.65,6.22,6.22,6.18
105.37,4.35,-1.84,4.35,-1.82,1.82,1.61,1.70,6.17,6.17,6.18
106.42,4.29,-1.85,4.29,-1.83,1.81,1.65,1.75,6.10,6.10,6.14
107.48,4.24,-1.82,4.24,-1.83,1.80,1.69,1.80,6.04,6.05,6.06
108.56,4.20,-1.81,4.20,-1.80,1.79,1.72,1.85,5.99,5.99,6.01
109.64,4.15,-1.77,4.15,-1.79,1.79,1.76,1.90,5.95,5.95,5.92
110.74,4.11,-1.78,4.11,-1.78,1.80,1.80,1.95,5.91,5.91,5.88
111.85,4.06,-1.82,4.06,-1.78,1.82,1.83,1.99,5.88,5.88,5.88
112.97,4.01,-1.78,4.01,-1.82,1.85,1.87,2.04,5.87,5.87,5.79
114.10,3.96,-1.88,3.96,-1.88,1.90,1.90,2.08,5.86,5.86,5.84
115.24,3.91,-1.97,3.91,-1.95,1.95,1.93,2.12,5.86,5.86,5.88
116.39,3.86,-2.02,3.86,-2.02,2.01,1.97,2.16,5.88,5.88,5.88
117.55,3.81,-2.07,3.81,-2.07,2.07,2.00,2.19,5.88,5.88,5.88
118.73,3.77,-2.12,3.77,-2.12,2.11,2.03,2.23,5.88,5.88,5.88
119.92,3.72,-2.16,3.72,-2.17,2.14,2.06,2.25,5.86,5.86,5.88
121.12,3.68,-2.21,3.68,-2.20,2.15,2.09,2.28,5.82,5.82,5.88
122.33,3.63,-2.22,3.63,-2.19,2.14,2.12,2.31,5.77,5.77,5.85
123.55,3.58,-2.15,3.58,-2.15,2.13,2.15,2.33,5.72,5.72,5.73
124.79,3.53,-2.07,3.53,-2.09,2.12,2.18,2.35,5.65,5.65,5.61
126.03,3.48,-2.05,3.48,-2.05,2.11,2.21,2.36,5.60,5.60,5.53
127.29,3.43,-2.05,3.43,-2.06,2.11,2.24,2.37,5.55,5.55,5.48
128.57,3.38,-2.10,3.38,-2.10,2.13,2.27,2.38,5.51,5.51,5.48
129.85,3.33,-2.15,3.33,-2.15,2.16,2.29,2.39,5.49,5.49,5.48
131.15,3.28,-2.20,3.28,-2.20,2.20,2.32,2.39,5.48,5.48,5.48
132.46,3.23,-2.25,3.23,-2.25,2.25,2.34,2.39,5.49,5.49,5.48
133.79,3.18,-2.30,3.18,-2.30,2.30,2.36,2.39,5.48,5.48,5.48
135.12,3.13,-2.35,3.13,-2.36,2.32,2.39,2.39,5.46,5.46,5.48
136.48,3.08,-2.40,3.08,-2.40,2.33,2.41,2.38,5.42,5.42,5.48
137.84,3.03,-2.41,3.03,-2.40,2.33,2.43,2.37,5.37,5.37,5.44
139.22,2.98,-2.38,2.98,-2.36,2.33,2.45,2.37,5.31,5.31,5.36
140.61,2.94,-2.29,2.94,-2.30,2.33,2.47,2.35,5.26,5.27,5.22
142.02,2.89,-2.25,2.89,-2.25,2.34,2.48,2.34,5.22,5.22,5.13
143.44,2.84,-2.25,2.84,-2.25,2.35,2.50,2.33,5.18,5.18,5.08
144.87,2.79,-2.29,2.79,-2.31,2.36,2.52,2.32,5.15,5.15,5.08
146.32,2.74,-2.41,2.74,-2.40,2.39,2.53,2.30,5.13,5.13,5.15
147.78,2.69,-2.50,2.69,-2.48,2.42,2.54,2.29,5.11,5.11,5.18
149.26,2.63,-2.54,2.63,-2.53,2.46,2.56,2.27,5.09,5.09,5.17
150.75,2.57,-2.52,2.57,-2.53,2.51,2.57,2.26,5.08,5.08,5.10
152.26,2.51,-2.53,2.51,-2.54,2.55,2.58,2.25,5.06,5.06,5.04
153.78,2.45,-2.54,2.45,-2.55,2.58,2.59,2.23,5.04,5.04,4.99
155.32,2.39,-2.59,2.39,-2.58,2.60,2.60,2.22,5.00,4.99,4.98
156.88,2.33,-2.61,2.33,-2.61,2.62,2.61,2.21,4.95,4.95,4.94
158.44,2.26,-2.62,2.26,-2.65,2.63,2.61,2.20,4.90,4.90,4.88
160.03,2.20,-2.69,2.20,-2.67,2.65,2.62,2.19,4.85,4.85,4.88
161.63,2.13,-2.70,2.13,-2.69,2.68,2.62,2.18,4.81,4.81,4.83
163.24,2.08,-2.70,2.08,-2.69,2.70,2.63,2.17,4.78,4.78,4.77
164.88,2.03,-2.67,2.03,-2.69,2.72,2.63,2.17,4.74,4.75,4.69
166.53,1.99,-2.69,1.99,-2.70,2.73,2.63,2.16,4.72,4.72,4.68
168.19,1.96,-2.72,1.96,-2.72,2.72,2.64,2.16,4.69,4.69,4.68
169.87,1.95,-2.74,1.95,-2.74,2.70,2.64,2.16,4.65,4.65,4.68
171.57,1.95,-2.73,1.95,-2.72,2.67,2.64,2.16,4.62,4.62,4.68
173.29,1.96,-2.68,1.96,-2.68,2.63,2.64,2.16,4.59,4.59,4.64
175.02,1.98,-2.60,1.98,-2.60,2.57,2.63,2.16,4.55,4.55,4.58
176.77,2.00,-2.50,2.00,-2.50,2.51,2.63,2.17,4.51,4.51,4.50
178.54,2.02,-2.41,2.02,-2.42,2.44,2.63,2.18,4.47,4.47,4.43
180.32,2.04,-2.34,2.04,-2.36,2.38,2.63,2.19,4.42,4.42,4.38
182.13,2.05,-2.34,2.05,-2.32,2.34,2.62,2.20,4.39,4.39,4.38
183.95,2.04,-2.30,2.04,-2.29,2.33,2.62,2.21,4.37,4.37,4.34
185.79,2.01,-2.27,2.01,-2.29,2.33,2.62,2.22,4.35,4.35,4.28
187.65,1.97,-2.31,1.97,-2.31,2.35,2.61,2.24,4.32,4.32,4.28
189.52,1.92,-2.37,1.92,-2.38,2.38,2.61,2.26,4.30,4.30,4.28
191.42,1.86,-2.44,1.86,-2.46,2.41,2.60,2.28,4.27,4.27,4.30
193.33,1.80,-2.57,1.79,-2.51,2.45,2.59,2.30,4.24,4.24,4.36
195.27,1.73,-2.53,1.73,-2.52,2.48,2.59,2.32,4.21,4.21,4.26
197.22,1.67,-2.47,1.67,-2.50,2.50,2.58,2.34,4.18,4.18,4.14
199.19,1.62,-2.46,1.63,-2.48,2.52,2.57,2.36,4.14,4.15,4.08
201.18,1.59,-2.50,1.59,-2.50,2.53,2.57,2.39,4.11,4.11,4.08
203.19,1.56,-2.53,1.56,-2.52,2.52,2.56,2.41,4.07,4.07,4.08
205.23,1.53,-2.55,1.53,-2.53,2.50,2.55,2.44,4.03,4.03,4.08
207.28,1.50,-2.51,1.50,-2.51,2.49,2.54,2.47,3.99,3.99,4.01
209.35,1.47,-2.47,1.47,-2.49,2.47,2.53,2.50,3.94,3.94,3.94
211.44,1.44,-2.45,1.44,-2.47,2.45,2.52,2.52,3.89,3.89,3.88
213.56,1.40,-2.48,1.40,-2.44,2.44,2.52,2.55,3.84,3.84,3.88
215.69,1.37,-2.40,1.37,-2.41,2.43,2.51,2.58,3.80,3.80,3.77
217.85,1.33,-2.35,1.33,-2.39,2.42,2.50,2.60,3.76,3.76,3.68
220.03,1.30,-2.39,1.30,-2.38,2.42,2.49,2.63,3.72,3.72,3.68
222.23,1.26,-2.43,1.26,-2.42,2.43,2.48,2.66,3.69,3.69,3.68
224.45,1.22,-2.47,1.22,-2.47,2.44,2.47,2.68,3.66,3.66,3.68
226.70,1.18,-2.50,1.18,-2.48,2.46,2.46,2.70,3.64,3.64,3.68
228.96,1.14,-2.48,1.14,-2.49,2.47,2.45,2.72,3.61,3.61,3.62
231.25,1.10,-2.48,1.10,-2.50,2.49,2.44,2.74,3.59,3.59,3.58
233.57,1.07,-2.52,1.07,-2.49,2.50,2.43,2.76,3.57,3.57,3.58
235.90,1.03,-2.49,1.03,-2.50,2.51,2.42,2.77,3.54,3.54,3.52
238.26,0.99,-2.49,0.99,-2.50,2.51,2.42,2.78,3.50,3.50,3.48
240.64,0.96,-2.51,0.96,-2.49,2.51,2.41,2.79,3.47,3.47,3.47
243.05,0.92,-2.49,0.92,-2.50,2.51,2.40,2.80,3.43,3.43,3.41
245.48,0.88,-2.50,0.88,-2.51,2.50,2.39,2.80,3.38,3.38,3.38
247.93,0.85,-2.52,0.85,-2.50,2.48,2.38,2.80,3.33,3.33,3.36
250.41,0.81,-2.49,0.81,-2.50,2.46,2.37,2.79,3.27,3.27,3.30
252.92,0.77,-2.47,0.77,-2.47,2.44,2.36,2.79,3.21,3.21,3.24
255.45,0.73,-2.44,0.73,-2.43,2.43,2.35,2.78,3.16,3.16,3.17
258.00,0.70,-2.39,0.70,-2.39,2.42,2.34,2.76,3.11,3.11,3.08
260.58,0.66,-2.36,0.66,-2.37,2.41,2.33,2.75,3.07,3.07,3.02
263.19,0.63,-2.36,0.63,-2.37,2.41,2.32,2.73,3.04,3.04,2.98
265.82,0.59,-2.39,0.59,-2.39,2.41,2.31,2.70,3.01,3.01,2.98
268.48,0.56,-2.43,0.56,-2.43,2.42,2.30,2.68,2.98,2.98,2.98
271.16,0.52,-2.46,0.52,-2.46,2.42,2.29,2.65,2.95,2.95,2.98
273.87,0.49,-2.49,0.49,-2.47,2.43,2.28,2.62,2.92,2.92,2.98
276.61,0.46,-2.46,0.46,-2.46,2.43,2.27,2.59,2.89,2.89,2.92
279.38,0.43,-2.42,0.43,-2.42,2.42,2.26,2.56,2.85,2.85,2.85
282.17,0.40,-2.38,0.40,-2.38,2.40,2.25,2.52,2.81,2.81,2.78
284.99,0.37,-2.34,0.37,-2.36,2.38,2.24,2.48,2.75,2.75,2.71
287.84,0.34,-2.35,0.34,-2.35,2.36,2.23,2.45,2.70,2.70,2.68
290.72,0.31,-2.36,0.31,-2.34,2.34,2.21,2.41,2.64,2.64,2.67
293.63,0.27,-2.32,0.27,-2.32,2.32,2.20,2.37,2.59,2.59,2.59
296.57,0.24,-2.28,0.24,-2.30,2.30,2.19,2.33,2.54,2.54,2.52
299.53,0.21,-2.27,0.21,-2.29,2.28,2.18,2.29,2.49,2.49,2.48
302.53,0.18,-2.30,0.18,-2.28,2.27,2.17,2.25,2.45,2.45,2.48
305.55,0.15,-2.27,0.15,-2.26,2.25,2.15,2.21,2.41,2.41,2.42
308.61,0.12,-2.23,0.12,-2.24,2.24,2.14,2.17,2.37,2.37,2.35
311.69,0.10,-2.20,0.10,-2.22,2.24,2.13,2.14,2.33,2.33,2.29
314.81,0.07,-2.22,0.07,-2.20,2.23,2.11,2.10,2.30,2.30,2.28
317.96,0.04,-2.21,0.04,-2.20,2.22,2.10,2.06,2.26,2.26,2.25
321.14,0.01,-2.17,0.01,-2.20,2.19,2.09,2.02,2.20,2.20,2.18
324.35,-0.02,-2.20,-0.02,-2.19,2.16,2.07,1.99,2.14,2.14,2.18
327.59,-0.04,-2.18,-0.04,-2.17,2.11,2.06,1.96,2.06,2.06,2.13
330.87,-0.07,-2.12,-0.07,-2.11,2.05,2.04,1.92,1.98,1.98,2.05
334.18,-0.10,-2.02,-0.10,-2.02,2.00,2.03,1.89,1.90,1.90,1.92
337.52,-0.13,-1.91,-0.13,-1.91,1.94,2.01,1.86,1.82,1.82,1.78
340.90,-0.15,-1.82,-0.15,-1.83,1.90,1.99,1.83,1.74,1.74,1.67
344.30,-0.18,-1.78,-0.18,-1.79,1.85,1.98,1.80,1.67,1.67,1.60
347.75,-0.21,-1.79,-0.21,-1.79,1.82,1.96,1.78,1.62,1.62,1.58
351.23,-0.23,-1.81,-0.23,-1.81,1.81,1.94,1.75,1.58,1.58,1.58
354.74,-0.25,-1.84,-0.25,-1.84,1.81,1.92,1.73,1.55,1.55,1.58
358.28,-0.28,-1.86,-0.28,-1.85,1.82,1.90,1.71,1.54,1.54,1.58
361.87,-0.30,-1.85,-0.30,-1.84,1.84,1.88,1.68,1.54,1.54,1.55
365.49,-0.32,-1.81,-0.32,-1.83,1.85,1.86,1.67,1.52,1.52,1.48
369.14,-0.35,-1.83,-0.35,-1.84,1.85,1.84,1.65,1.50,1.50,1.48
372.83,-0.37,-1.85,-0.37,-1.85,1.84,1.82,1.63,1.47,1.47,1.48
376.56,-0.39,-1.87,-0.39,-1.85,1.82,1.80,1.61,1.43,1.43,1.48
380.33,-0.41,-1.82,-0.41,-1.82,1.79,1.78,1.60,1.38,1.38,1.41
384.13,-0.43,-1.77,-0.43,-1.78,1.75,1.76,1.59,1.32,1.32,1.34
387.97,-0.45,-1.72,-0.45,-1.72,1.72,1.74,1.57,1.27,1.27,1.27
391.85,-0.47,-1.67,-0.47,-1.66,1.69,1.72,1.56,1.22,1.22,1.20
395.77,-0.49,-1.62,-0.49,-1.62,1.66,1.69,1.55,1.17,1.17,1.13
399.73,-0.50,-1.59,-0.50,-1.60,1.64,1.67,1.54,1.14,1.14,1.08
403.72,-0.52,-1.61,-0.52,-1.60,1.63,1.65,1.53,1.11,1.11,1.08
407.76,-0.54,-1.62,-0.54,-1.62,1.64,1.62,1.53,1.10,1.10,1.08
411.84,-0.56,-1.64,-0.56,-1.65,1.64,1.60,1.52,1.08,1.08,1.08
415.96,-0.57,-1.66,-0.57,-1.66,1.64,1.57,1.51,1.07,1.07,1.08
420.12,-0.59,-1.67,-0.59,-1.66,1.62,1.55,1.51,1.04,1.04,1.08
424.32,-0.60,-1.65,-0.60,-1.64,1.59,1.52,1.50,0.99,0.99,1.05
428.56,-0.61,-1.59,-0.61,-1.60,1.55,1.50,1.50,0.94,0.94,0.98
432.85,-0.63,-1.53,-0.63,-1.52,1.50,1.47,1.49,0.87,0.87,0.90
437.18,-0.64,-1.43,-0.64,-1.43,1.45,1.44,1.48,0.80,0.81,0.79
441.55,-0.65,-1.33,-0.65,-1.34,1.39,1.42,1.48,0.74,0.74,0.68
445.96,-0.67,-1.27,-0.67,-1.28,1.34,1.39,1.47,0.68,0.68,0.60
450.42,-0.68,-1.26,-0.68,-1.27,1.30,1.36,1.47,0.63,0.62,0.58
454.93,-0.69,-1.28,-0.69,-1.27,1.28,1.34,1.46,0.58,0.58,0.58
459.48,-0.71,-1.29,-0.71,-1.27,1.26,1.31,1.45,0.55,0.55,0.58
464.07,-0.73,-1.25,-0.73,-1.26,1.24,1.28,1.44,0.51,0.51,0.53
468.71,-0.74,-1.23,-0.74,-1.25,1.22,1.25,1.43,0.48,0.48,0.48
473.40,-0.76,-1.24,-0.76,-1.22,1.20,1.22,1.42,0.44,0.44,0.48
478.13,-0.77,-1.20,-0.77,-1.20,1.17,1.20,1.41,0.40,0.40,0.43
482.91,-0.79,-1.15,-0.79,-1.15,1.15,1.17,1.40,0.36,0.36,0.36
487.74,-0.80,-1.09,-0.80,-1.09,1.12,1.14,1.38,0.31,0.31,0.29
492.62,-0.82,-1.04,-0.82,-1.05,1.09,1.11,1.37,0.27,0.27,0.22
497.55,-0.83,-1.02,-0.83,-1.03,1.06,1.08,1.35,0.23,0.23,0.18
502.52,-0.85,-1.04,-0.85,-1.03,1.03,1.05,1.33,0.18,0.18,0.18
507.55,-0.87,-1.05,-0.87,-1.04,1.00,1.02,1.31,0.13,0.13,0.18
512.62,-0.88,-1.02,-0.88,-1.02,0.97,0.99,1.29,0.09,0.09,0.14
517.75,-0.89,-0.97,-0.89,-0.97,0.94,0.96,1.26,0.05,0.05,0.07
522.93,-0.91,-0.91,-0.91,-0.91,0.92,0.93,1.24,0.01,0.01,0.00
528.16,-0.92,-0.85,-0.92,-0.86,0.89,0.90,1.21,-0.03,-0.03,-0.07
533.44,-0.93,-0.82,-0.93,-0.83,0.86,0.88,1.18,-0.07,-0.07,-0.12
538.77,-0.94,-0.83,-0.94,-0.83,0.83,0.85,1.15,-0.11,-0.11,-0.12
544.16,-0.95,-0.84,-0.95,-0.82,0.81,0.82,1.12,-0.14,-0.14,-0.12
549.60,-0.96,-0.81,-0.96,-0.80,0.79,0.79,1.09,-0.17,-0.17,-0.15
555.10,-0.97,-0.75,-0.97,-0.78,0.77,0.76,1.06,-0.20,-0.20,-0.22
