frequency,raw,error,smoothed,error_smoothed,equalization,parametric_eq,fixed_band_eq,equalized_raw,equalized_smoothed,target
20.00,3.57,-11.44,3.57,-11.44,6.00,5.84,2.77,9.57,9.57,15.01
20.20,3.62,-11.38,3.62,-11.38,6.00,5.89,2.85,9.62,9.62,15.00
20.40,3.66,-11.33,3.66,-11.33,6.00,5.95,2.93,9.66,9.66,14.99
20.61,3.70,-11.28,3.69,-11.28,6.00,6.00,3.01,9.70,9.69,14.98
20.81,3.72,-11.24,3.72,-11.24,6.00,6.05,3.10,9.72,9.72,14.96
21.02,3.75,-11.19,3.75,-11.19,6.00,6.09,3.19,9.75,9.75,14.93
21.23,3.78,-11.13,3.78,-11.13,6.00,6.13,3.27,9.78,9.78,14.91
21.44,3.82,-11.06,3.82,-11.06,6.00,6.14,3.37,9.82,9.82,14.88
21.66,3.88,-10.98,3.88,-10.98,6.00,6.15,3.46,9.88,9.88,14.86
21.87,3.94,-10.90,3.94,-10.89,6.00,6.14,3.56,9.94,9.94,14.83
22.09,4.00,-10.81,4.00,-10.81,6.00,6.13,3.66,10.00,10.00,14.81
22.31,4.06,-10.72,4.05,-10.72,6.00,6.10,3.77,10.06,10.05,14.78
22.54,4.10,-10.65,4.10,-10.65,6.00,6.08,3.88,10.10,10.10,14.75
22.76,4.12,-10.61,4.11,-10.61,6.00,6.05,3.99,10.12,10.11,14.72
22.99,4.11,-10.59,4.10,-10.59,6.00,6.02,4.10,10.11,10.10,14.70
23.22,4.06,-10.60,4.06,-10.60,6.00,6.00,4.21,10.06,10.06,14.67
23.45,4.01,-10.63,4.01,-10.63,6.00,5.98,4.33,10.01,10.01,14.64
23.69,3.96,-10.66,3.95,-10.66,6.00,5.97,4.45,9.96,9.95,14.61
23.92,3.91,-10.67,3.92,-10.67,6.00,5.95,4.57,9.91,9.92,14.58
24.16,3.90,-10.65,3.91,-10.65,6.00,5.94,4.70,9.90,9.91,14.55
24.40,3.94,-10.59,3.94,-10.59,6.00,5.93,4.82,9.94,9.94,14.53
24.65,4.01,-10.49,4.01,-10.49,6.00,5.93,4.95,10.01,10.01,14.50
24.89,4.11,-10.36,4.11,-10.35,6.00,5.92,5.08,10.11,10.11,14.47
25.14,4.22,-10.21,4.22,-10.21,6.00,5.92,5.22,10.22,10.22,14.44
25.39,4.33,-10.07,4.33,-10.08,6.00,5.92,5.35,10.33,10.33,14.41
25.65,4.40,-9.97,4.40,-9.97,6.00,5.92,5.48,10.40,10.40,14.38
25.91,4.45,-9.90,4.44,-9.90,6.00,5.92,5.62,10.45,10.44,14.34
26.16,4.45,-9.86,4.45,-9.86,6.00,5.92,5.75,10.45,10.45,14.31
26.43,4.43,-9.85,4.43,-9.85,6.00,5.92,5.89,10.43,10.43,14.28
26.69,4.39,-9.86,4.39,-9.86,6.00,5.92,6.02,10.39,10.39,14.25
26.96,4.35,-9.87,4.35,-9.86,6.00,5.92,6.15,10.35,10.35,14.22
27.23,4.33,-9.86,4.33,-9.86,6.00,5.93,6.28,10.33,10.33,14.19
27.50,4.33,-9.83,4.33,-9.83,6.00,5.93,6.41,10.33,10.33,14.15
27.77,4.35,-9.78,4.34,-9.78,6.00,5.94,6.53,10.35,10.34,14.12
28.05,4.38,-9.71,4.38,-9.71,6.00,5.94,6.65,10.38,10.38,14.09
28.33,4.42,-9.63,4.42,-9.64,6.00,5.95,6.76,10.42,10.42,14.06
28.62,4.48,-9.55,4.48,-9.55,6.00,5.95,6.87,10.48,10.48,14.02
28.90,4.54,-9.45,4.54,-9.45,6.00,5.96,6.97,10.54,10.54,13.99
29.19,4.63,-9.33,4.63,-9.33,6.00,5.96,7.06,10.63,10.63,13.95
29.48,4.72,-9.20,4.72,-9.20,6.00,5.97,7.15,10.72,10.72,13.92
29.78,4.83,-9.06,4.83,-9.06,6.00,5.97,7.22,10.83,10.83,13.89
30.08,4.94,-8.92,4.94,-8.92,6.00,5.98,7.29,10.94,10.94,13.85
30.38,5.03,-8.78,5.03,-8.79,6.00,5.99,7.34,11.03,11.03,13.82
30.68,5.10,-8.68,5.10,-8.69,6.00,5.99,7.39,11.10,11.10,13.78
30.99,5.13,-8.62,5.13,-8.62,6.00,6.00,7.42,11.13,11.13,13.75
31.30,5.13,-8.58,5.13,-8.58,6.00,6.00,7.44,11.13,11.13,13.72
31.61,5.12,-8.56,5.12,-8.56,6.00,6.01,7.46,11.12,11.12,13.68
31.93,5.11,-8.53,5.12,-8.53,6.00,6.02,7.45,11.11,11.12,13.65
32.24,5.13,-8.48,5.14,-8.48,6.00,6.02,7.45,11.13,11.14,13.61
32.57,5.17,-8.41,5.17,-8.40,6.00,6.03,7.42,11.17,11.17,13.58
32.89,5.24,-8.30,5.24,-8.30,6.00,6.03,7.39,11.24,11.24,13.54
33.22,5.31,-8.19,5.31,-8.20,6.00,6.04,7.35,11.31,11.31,13.50
33.55,5.38,-8.09,5.38,-8.09,6.00,6.04,7.31,11.38,11.38,13.47
33.89,5.43,-8.00,5.43,-8.00,6.00,6.05,7.25,11.43,11.43,13.43
34.23,5.46,-7.94,5.46,-7.94,6.00,6.06,7.19,11.46,11.46,13.39
34.57,5.47,-7.89,5.46,-7.89,6.00,6.06,7.11,11.47,11.46,13.36
34.92,5.46,-7.86,5.46,-7.86,6.00,6.07,7.04,11.46,11.46,13.32
35.27,5.45,-7.83,5.45,-7.83,6.00,6.07,6.96,11.45,11.45,13.28
35.62,5.43,-7.81,5.43,-7.81,6.00,6.07,6.88,11.43,11.43,13.24
35.97,5.42,-7.78,5.42,-7.78,6.00,6.08,6.79,11.42,11.42,13.20
36.33,5.42,-7.75,5.42,-7.75,6.00,6.08,6.70,11.42,11.42,13.16
36.70,5.41,-7.71,5.41,-7.71,6.00,6.09,6.61,11.41,11.41,13.12
37.06,5.41,-7.67,5.41,-7.67,6.00,6.09,6.52,11.41,11.41,13.08
37.43,5.41,-7.63,5.41,-7.63,6.00,6.09,6.43,11.41,11.41,13.04
37.81,5.41,-7.59,5.41,-7.59,6.00,6.09,6.34,11.41,11.41,13.00
38.19,5.42,-7.54,5.42,-7.54,6.00,6.09,6.25,11.42,11.42,12.96
38.57,5.44,-7.48,5.44,-7.47,6.00,6.09,6.16,11.44,11.44,12.92
38.95,5.47,-7.41,5.47,-7.41,6.00,6.09,6.08,11.47,11.47,12.87
39.34,5.49,-7.34,5.49,-7.34,6.00,6.09,5.99,11.49,11.49,12.83
39.74,5.52,-7.27,5.51,-7.27,6.00,6.09,5.91,11.52,11.51,12.79
40.14,5.53,-7.21,5.53,-7.21,6.00,6.09,5.83,11.53,11.53,12.74
40.54,5.54,-7.16,5.54,-7.16,6.00,6.09,5.76,11.54,11.54,12.70
40.94,5.54,-7.10,5.55,-7.10,6.00,6.08,5.69,11.54,11.55,12.65
41.35,5.55,-7.05,5.55,-7.05,6.00,6.08,5.62,11.55,11.55,12.60
41.76,5.56,-6.99,5.56,-6.99,6.00,6.07,5.55,11.56,11.56,12.55
42.18,5.57,-6.93,5.57,-6.93,6.00,6.06,5.49,11.57,11.57,12.50
42.60,5.58,-6.87,5.58,-6.87,6.00,6.05,5.43,11.58,11.58,12.45
43.03,5.60,-6.81,5.60,-6.81,6.00,6.04,5.38,11.60,11.60,12.40
43.46,5.60,-6.75,5.60,-6.75,6.00,6.03,5.33,11.60,11.60,12.35
43.90,5.61,-6.69,5.61,-6.69,6.00,6.02,5.29,11.61,11.61,12.30
44.33,5.62,-6.63,5.62,-6.63,6.00,6.01,5.24,11.62,11.62,12.25
44.78,5.62,-6.57,5.62,-6.57,6.00,5.99,5.21,11.62,11.62,12.19
45.23,5.63,-6.51,5.63,-6.51,6.00,5.98,5.17,11.63,11.63,12.14
45.68,5.64,-6.44,5.64,-6.44,6.00,5.96,5.14,11.64,11.64,12.08
46.13,5.65,-6.38,5.65,-6.38,6.00,5.94,5.12,11.65,11.65,12.03
46.60,5.66,-6.32,5.66,-6.32,6.01,5.92,5.10,11.66,11.66,11.97
47.06,5.66,-6.26,5.66,-6.26,6.01,5.89,5.08,11.67,11.67,11.92
47.53,5.66,-6.20,5.66,-6.20,6.01,5.87,5.06,11.67,11.67,11.86
48.01,5.65,-6.15,5.65,-6.15,6.01,5.84,5.05,11.66,11.66,11.80
48.49,5.64,-6.10,5.65,-6.10,6.00,5.82,5.04,11.64,11.64,11.74
48.97,5.64,-6.05,5.64,-6.04,5.98,5.79,5.04,11.62,11.62,11.69
49.46,5.64,-5.99,5.64,-5.99,5.95,5.76,5.04,11.59,11.59,11.63
49.96,5.64,-5.92,5.64,-5.93,5.92,5.73,5.04,11.55,11.55,11.56
50.46,5.64,-5.86,5.64,-5.86,5.87,5.69,5.04,11.51,11.51,11.50
50.96,5.64,-5.80,5.64,-5.81,5.82,5.66,5.05,11.45,11.45,11.44
51.47,5.63,-5.75,5.63,-5.75,5.76,5.62,5.06,11.39,11.39,11.38
51.99,5.63,-5.69,5.63,-5.69,5.69,5.58,5.06,11.32,11.32,11.32
52.51,5.63,-5.63,5.63,-5.63,5.62,5.54,5.08,11.25,11.25,11.25
53.03,5.63,-5.56,5.63,-5.56,5.56,5.50,5.09,11.18,11.18,11.19
53.56,5.63,-5.49,5.63,-5.49,5.50,5.46,5.10,11.12,11.12,11.12
54.10,5.63,-5.43,5.63,-5.43,5.43,5.42,5.11,11.06,11.06,11.06
54.64,5.62,-5.37,5.63,-5.37,5.37,5.38,5.13,10.99,10.99,10.99
55.18,5.62,-5.30,5.62,-5.30,5.30,5.33,5.14,10.93,10.92,10.92
55.74,5.62,-5.24,5.62,-5.24,5.24,5.28,5.15,10.86,10.86,10.86
56.29,5.61,-5.18,5.61,-5.18,5.18,5.24,5.16,10.79,10.79,10.79
56.86,5.61,-5.12,5.61,-5.12,5.12,5.19,5.17,10.73,10.72,10.73
57.42,5.60,-5.05,5.60,-5.05,5.05,5.14,5.17,10.66,10.66,10.66
58.00,5.60,-4.99,5.60,-4.99,5.00,5.09,5.17,10.59,10.59,10.59
58.58,5.59,-4.94,5.59,-4.94,4.94,5.04,5.17,10.53,10.53,10.53
59.16,5.58,-4.88,5.58,-4.88,4.88,4.99,5.17,10.46,10.46,10.46
59.76,5.57,-4.82,5.57,-4.82,4.83,4.94,5.16,10.40,10.40,10.39
60.35,5.56,-4.77,5.56,-4.77,4.77,4.89,5.15,10.33,10.33,10.33
60.96,5.54,-4.72,5.54,-4.72,4.72,4.83,5.13,10.27,10.27,10.26
61.57,5.53,-4.67,5.53,-4.67,4.67,4.78,5.11,10.20,10.20,10.20
62.18,5.51,-4.62,5.51,-4.62,4.62,4.73,5.09,10.13,10.13,10.13
62.80,5.49,-4.58,5.49,-4.58,4.58,4.68,5.06,10.07,10.07,10.07
63.43,5.47,-4.53,5.47,-4.53,4.53,4.62,5.02,10.00,10.00,10.00
64.07,5.45,-4.48,5.45,-4.48,4.48,4.57,4.98,9.93,9.93,9.94
64.71,5.43,-4.44,5.43,-4.44,4.44,4.51,4.93,9.87,9.87,9.87
65.35,5.41,-4.39,5.41,-4.39,4.39,4.46,4.89,9.80,9.80,9.80
66.01,5.39,-4.34,5.39,-4.34,4.34,4.41,4.83,9.74,9.74,9.74
66.67,5.37,-4.30,5.37,-4.30,4.30,4.35,4.77,9.67,9.67,9.67
67.33,5.35,-4.25,5.35,-4.25,4.25,4.30,4.71,9.60,9.60,9.60
68.01,5.33,-4.21,5.33,-4.20,4.20,4.24,4.65,9.53,9.53,9.53
68.69,5.31,-4.16,5.31,-4.16,4.16,4.19,4.58,9.46,9.46,9.46
69.37,5.29,-4.11,5.29,-4.11,4.11,4.14,4.50,9.40,9.40,9.40
70.07,5.27,-4.06,5.27,-4.06,4.06,4.08,4.43,9.33,9.33,9.33
70.77,5.25,-4.01,5.25,-4.01,4.01,4.03,4.35,9.26,9.26,9.26
71.48,5.23,-3.96,5.23,-3.96,3.95,3.98,4.27,9.18,9.19,9.19
72.19,5.21,-3.91,5.21,-3.90,3.90,3.92,4.19,9.11,9.11,9.12
72.91,5.19,-3.85,5.19,-3.85,3.85,3.87,4.11,9.04,9.04,9.05
73.64,5.17,-3.80,5.17,-3.80,3.80,3.82,4.03,8.98,8.98,8.97
74.38,5.15,-3.75,5.15,-3.75,3.75,3.77,3.95,8.91,8.91,8.90
75.12,5.13,-3.70,5.13,-3.70,3.70,3.72,3.87,8.83,8.83,8.83
75.87,5.10,-3.65,5.10,-3.65,3.66,3.66,3.79,8.76,8.76,8.76
76.63,5.07,-3.61,5.07,-3.61,3.61,3.61,3.71,8.69,8.69,8.68
77.40,5.04,-3.57,5.04,-3.57,3.57,3.56,3.62,8.61,8.61,8.61
78.17,5.01,-3.53,5.01,-3.53,3.53,3.51,3.54,8.53,8.53,8.53
78.95,4.97,-3.49,4.97,-3.49,3.48,3.46,3.47,8.46,8.46,8.46
79.74,4.94,-3.44,4.94,-3.44,3.44,3.41,3.39,8.38,8.38,8.38
80.54,4.91,-3.39,4.91,-3.39,3.39,3.36,3.31,8.30,8.30,8.31
81.35,4.89,-3.34,4.89,-3.34,3.33,3.32,3.24,8.22,8.22,8.23
82.16,4.87,-3.28,4.86,-3.28,3.28,3.27,3.17,8.15,8.15,8.15
82.98,4.84,-3.23,4.84,-3.23,3.23,3.22,3.09,8.07,8.07,8.07
83.81,4.82,-3.17,4.82,-3.17,3.17,3.17,3.03,7.99,7.99,7.99
84.65,4.79,-3.11,4.79,-3.11,3.12,3.12,2.96,7.91,7.91,7.91
85.50,4.76,-3.06,4.76,-3.06,3.06,3.08,2.89,7.83,7.83,7.82
86.35,4.73,-3.01,4.73,-3.01,3.01,3.03,2.83,7.74,7.74,7.74
87.22,4.70,-2.96,4.70,-2.96,2.96,2.98,2.77,7.66,7.66,7.66
88.09,4.67,-2.91,4.67,-2.91,2.90,2.94,2.71,7.57,7.57,7.58
88.97,4.64,-2.86,4.64,-2.86,2.85,2.89,2.65,7.49,7.49,7.50
89.86,4.61,-2.81,4.61,-2.81,2.80,2.85,2.60,7.41,7.41,7.41
90.76,4.58,-2.75,4.58,-2.75,2.76,2.80,2.54,7.34,7.34,7.33
91.66,4.54,-2.71,4.54,-2.71,2.72,2.76,2.49,7.26,7.26,7.25
92.58,4.50,-2.67,4.50,-2.67,2.68,2.72,2.44,7.18,7.18,7.17
93.51,4.45,-2.64,4.45,-2.64,2.64,2.67,2.39,7.09,7.09,7.09
94.44,4.40,-2.61,4.40,-2.61,2.61,2.63,2.35,7.01,7.01,7.01
95.39,4.34,-2.59,4.35,-2.59,2.59,2.59,2.30,6.94,6.94,6.93
96.34,4.29,-2.57,4.29,-2.57,2.58,2.55,2.26,6.87,6.87,6.86
97.30,4.23,-2.54,4.23,-2.55,2.56,2.50,2.22,6.80,6.79,6.78
98.28,4.17,-2.54,4.16,-2.54,2.55,2.46,2.18,6.71,6.71,6.70
99.26,4.09,-2.53,4.09,-2.53,2.52,2.42,2.14,6.62,6.62,6.63
100.25,4.03,-2.53,4.03,-2.52,2.49,2.38,2.11,6.52,6.52,6.55
101.25,3.99,-2.49,4.00,-2.49,2.45,2.34,2.07,6.44,6.45,6.48
102.27,3.98,-2.43,3.98,-2.43,2.40,2.30,2.04,6.39,6.39,6.41
103.29,3.99,-2.35,3.99,-2.35,2.35,2.26,2.01,6.34,6.34,6.34
104.32,4.00,-2.27,3.99,-2.28,2.30,2.22,1.98,6.30,6.29,6.27
105.37,3.98,-2.22,3.98,-2.22,2.25,2.18,1.95,6.23,6.23,6.20
106.42,3.96,-2.17,3.96,-2.17,2.19,2.14,1.92,6.15,6.15,6.13
107.48,3.93,-2.13,3.92,-2.13,2.14,2.10,1.89,6.07,6.07,6.06
108.56,3.89,-2.10,3.89,-2.10,2.09,2.06,1.87,5.98,5.98,5.98
109.64,3.85,-2.07,3.85,-2.06,2.05,2.02,1.84,5.90,5.90,5.91
110.74,3.81,-2.03,3.82,-2.03,2.01,1.99,1.81,5.83,5.83,5.84
111.85,3.79,-1.98,3.79,-1.98,1.97,1.95,1.79,5.76,5.76,5.77
112.97,3.77,-1.93,3.77,-1.93,1.93,1.91,1.76,5.70,5.69,5.70
114.10,3.75,-1.88,3.75,-1.88,1.88,1.87,1.74,5.63,5.63,5.62
115.24,3.72,-1.83,3.72,-1.83,1.84,1.84,1.71,5.56,5.56,5.55
116.39,3.69,-1.78,3.69,-1.78,1.79,1.80,1.69,5.48,5.48,5.48
117.55,3.67,-1.74,3.66,-1.74,1.74,1.76,1.67,5.41,5.41,5.41
118.73,3.63,-1.70,3.63,-1.70,1.69,1.72,1.64,5.33,5.33,5.33
119.92,3.60,-1.65,3.60,-1.65,1.65,1.69,1.62,5.25,5.26,5.26
121.12,3.57,-1.61,3.57,-1.61,1.61,1.65,1.59,5.18,5.18,5.18
122.33,3.54,-1.57,3.54,-1.57,1.57,1.61,1.57,5.11,5.11,5.11
123.55,3.51,-1.53,3.50,-1.53,1.53,1.58,1.54,5.04,5.04,5.04
124.79,3.47,-1.50,3.46,-1.50,1.50,1.54,1.52,4.96,4.96,4.96
126.03,3.42,-1.47,3.42,-1.47,1.47,1.51,1.49,4.89,4.89,4.89
127.29,3.37,-1.44,3.37,-1.44,1.44,1.47,1.46,4.81,4.81,4.81
128.57,3.33,-1.41,3.33,-1.41,1.41,1.43,1.44,4.73,4.73,4.74
129.85,3.27,-1.39,3.28,-1.39,1.38,1.40,1.41,4.66,4.66,4.66
131.15,3.22,-1.36,3.22,-1.36,1.36,1.36,1.38,4.58,4.58,4.59
132.46,3.17,-1.34,3.17,-1.34,1.34,1.33,1.35,4.51,4.51,4.51
133.79,3.12,-1.31,3.12,-1.31,1.32,1.29,1.32,4.44,4.44,4.43
135.12,3.07,-1.29,3.07,-1.29,1.30,1.25,1.29,4.37,4.37,4.36
136.48,3.00,-1.28,3.00,-1.28,1.29,1.22,1.26,4.29,4.29,4.28
137.84,2.93,-1.28,2.93,-1.28,1.28,1.18,1.23,4.21,4.21,4.21
139.22,2.85,-1.28,2.85,-1.28,1.28,1.14,1.20,4.13,4.13,4.13
140.61,2.77,-1.29,2.77,-1.28,1.28,1.11,1.17,4.05,4.06,4.06
142.02,2.70,-1.28,2.70,-1.28,1.29,1.07,1.14,3.99,3.99,3.98
143.44,2.63,-1.27,2.63,-1.27,1.29,1.03,1.11,3.92,3.92,3.90
144.87,2.56,-1.27,2.56,-1.27,1.29,1.00,1.08,3.85,3.85,3.83
146.32,2.48,-1.27,2.48,-1.27,1.28,0.96,1.05,3.76,3.76,3.75
147.78,2.41,-1.27,2.41,-1.26,1.25,0.92,1.02,3.66,3.66,3.68
149.26,2.36,-1.24,2.36,-1.23,1.20,0.88,0.99,3.56,3.56,3.60
150.75,2.35,-1.18,2.35,-1.17,1.13,0.85,0.95,3.47,3.48,3.52
152.26,2.36,-1.08,2.37,-1.08,1.04,0.81,0.92,3.40,3.40,3.44
153.78,2.41,-0.96,2.41,-0.96,0.94,0.77,0.89,3.35,3.35,3.37
155.32,2.47,-0.82,2.47,-0.82,0.83,0.73,0.86,3.29,3.29,3.29
156.88,2.53,-0.68,2.53,-0.68,0.71,0.69,0.83,3.24,3.24,3.21
158.44,2.57,-0.56,2.57,-0.56,0.60,0.65,0.80,3.17,3.17,3.13
160.03,2.59,-0.46,2.59,-0.47,0.50,0.61,0.77,3.09,3.09,3.05
161.63,2.58,-0.40,2.58,-0.39,0.41,0.57,0.74,2.99,3.00,2.98
163.24,2.56,-0.34,2.56,-0.34,0.35,0.54,0.71,2.90,2.91,2.90
164.88,2.53,-0.30,2.53,-0.30,0.29,0.50,0.68,2.82,2.82,2.82
166.53,2.49,-0.26,2.49,-0.26,0.25,0.46,0.65,2.74,2.74,2.75
168.19,2.45,-0.22,2.45,-0.22,0.22,0.42,0.62,2.66,2.66,2.67
169.87,2.40,-0.19,2.40,-0.19,0.19,0.38,0.59,2.59,2.59,2.60
171.57,2.36,-0.16,2.36,-0.16,0.16,0.34,0.57,2.52,2.52,2.53
173.29,2.32,-0.13,2.32,-0.13,0.13,0.30,0.54,2.45,2.45,2.45
175.02,2.28,-0.10,2.28,-0.10,0.10,0.26,0.51,2.38,2.38,2.38
176.77,2.24,-0.08,2.23,-0.08,0.08,0.22,0.48,2.31,2.31,2.31
178.54,2.19,-0.05,2.19,-0.05,0.05,0.18,0.46,2.25,2.24,2.24
180.32,2.14,-0.03,2.14,-0.03,0.03,0.15,0.43,2.18,2.18,2.17
182.13,2.10,-0.01,2.10,-0.01,0.01,0.11,0.40,2.11,2.11,2.11
183.95,2.05,0.01,2.05,0.01,-0.01,0.08,0.38,2.04,2.04,2.04
185.79,2.01,0.03,2.01,0.03,-0.03,0.04,0.35,1.98,1.98,1.98
187.65,1.97,0.05,1.97,0.05,-0.06,0.01,0.32,1.92,1.91,1.92
189.52,1.93,0.07,1.93,0.07,-0.08,-0.02,0.30,1.85,1.85,1.86
191.42,1.90,0.10,1.90,0.10,-0.11,-0.05,0.27,1.79,1.79,1.80
193.33,1.87,0.12,1.87,0.12,-0.13,-0.07,0.25,1.74,1.74,1.75
195.27,1.84,0.15,1.85,0.15,-0.15,-0.10,0.22,1.69,1.69,1.69
197.22,1.82,0.18,1.82,0.18,-0.17,-0.12,0.20,1.66,1.66,1.65
199.19,1.80,0.20,1.79,0.19,-0.18,-0.14,0.17,1.62,1.62,1.60
201.18,1.75,0.20,1.75,0.20,-0.18,-0.16,0.15,1.57,1.57,1.55
203.19,1.70,0.19,1.70,0.19,-0.18,-0.17,0.13,1.52,1.52,1.51
205.23,1.64,0.16,1.64,0.16,-0.17,-0.18,0.11,1.47,1.47,1.47
207.28,1.58,0.14,1.58,0.14,-0.16,-0.19,0.08,1.42,1.43,1.44
209.35,1.53,0.13,1.53,0.13,-0.14,-0.20,0.06,1.39,1.39,1.40
211.44,1.48,0.12,1.48,0.12,-0.12,-0.20,0.04,1.36,1.36,1.37
213.56,1.44,0.11,1.44,0.11,-0.11,-0.20,0.02,1.33,1.33,1.33
215.69,1.40,0.10,1.40,0.10,-0.10,-0.20,0.00,1.30,1.30,1.30
217.85,1.36,0.09,1.36,0.09,-0.09,-0.20,-0.02,1.27,1.27,1.27
220.03,1.31,0.08,1.31,0.08,-0.08,-0.19,-0.03,1.24,1.24,1.23
222.23,1.27,0.07,1.27,0.07,-0.07,-0.19,-0.05,1.20,1.20,1.20
224.45,1.23,0.06,1.23,0.06,-0.06,-0.18,-0.06,1.17,1.17,1.17
226.70,1.19,0.05,1.19,0.05,-0.05,-0.17,-0.08,1.14,1.14,1.14
228.96,1.15,0.04,1.15,0.04,-0.04,-0.15,-0.09,1.11,1.11,1.11
231.25,1.12,0.03,1.12,0.03,-0.03,-0.14,-0.10,1.08,1.08,1.08
233.57,1.08,0.03,1.08,0.03,-0.03,-0.12,-0.11,1.05,1.05,1.05
235.90,1.05,0.02,1.05,0.02,-0.03,-0.11,-0.12,1.02,1.02,1.02
238.26,1.02,0.02,1.02,0.02,-0.03,-0.09,-0.13,0.99,0.99,1.00
240.64,0.99,0.02,0.99,0.02,-0.03,-0.07,-0.13,0.97,0.97,0.97
243.05,0.97,0.03,0.97,0.03,-0.03,-0.05,-0.14,0.94,0.94,0.94
245.48,0.95,0.03,0.95,0.03,-0.03,-0.03,-0.14,0.92,0.92,0.92
247.93,0.93,0.03,0.93,0.03,-0.03,-0.01,-0.14,0.90,0.90,0.89
250.41,0.91,0.04,0.91,0.04,-0.03,0.01,-0.14,0.87,0.87,0.87
252.92,0.88,0.03,0.88,0.03,-0.03,0.03,-0.14,0.85,0.85,0.85
255.45,0.86,0.03,0.86,0.03,-0.03,0.05,-0.13,0.83,0.83,0.82
258.00,0.83,0.02,0.83,0.02,-0.02,0.07,-0.13,0.81,0.81,0.80
260.58,0.79,0.01,0.79,0.01,-0.01,0.09,-0.12,0.78,0.78,0.78
263.19,0.76,-0.00,0.76,-0.00,0.00,0.11,-0.11,0.76,0.76,0.76
265.82,0.72,-0.02,0.72,-0.02,0.02,0.13,-0.10,0.74,0.74,0.74
268.48,0.68,-0.04,0.68,-0.04,0.04,0.15,-0.08,0.72,0.72,0.72
271.16,0.64,-0.06,0.64,-0.06,0.06,0.17,-0.07,0.70,0.70,0.70
273.87,0.61,-0.08,0.61,-0.08,0.08,0.19,-0.05,0.68,0.68,0.69
276.61,0.57,-0.10,0.57,-0.10,0.10,0.21,-0.04,0.67,0.67,0.67
279.38,0.53,-0.12,0.53,-0.12,0.12,0.23,-0.02,0.65,0.65,0.65
282.17,0.50,-0.14,0.50,-0.14,0.14,0.25,0.00,0.64,0.64,0.64
284.99,0.46,-0.16,0.46,-0.17,0.17,0.27,0.02,0.62,0.62,0.62
287.84,0.42,-0.19,0.42,-0.19,0.19,0.29,0.04,0.61,0.61,0.61
290.72,0.39,-0.21,0.39,-0.21,0.21,0.31,0.07,0.60,0.60,0.60
293.63,0.35,-0.23,0.35,-0.23,0.23,0.32,0.09,0.58,0.58,0.59
296.57,0.32,-0.26,0.32,-0.26,0.25,0.34,0.11,0.57,0.57,0.57
299.53,0.29,-0.28,0.29,-0.28,0.28,0.36,0.14,0.56,0.56,0.56
302.53,0.25,-0.30,0.25,-0.30,0.30,0.38,0.17,0.55,0.55,0.55
305.55,0.22,-0.32,0.22,-0.32,0.32,0.40,0.19,0.54,0.54,0.54
308.61,0.19,-0.34,0.19,-0.34,0.34,0.41,0.22,0.54,0.54,0.54
311.69,0.16,-0.37,0.16,-0.36,0.36,0.43,0.25,0.53,0.53,0.53
314.81,0.14,-0.39,0.14,-0.39,0.39,0.45,0.28,0.52,0.52,0.52
317.96,0.11,-0.41,0.11,-0.41,0.41,0.47,0.31,0.52,0.52,0.52
321.14,0.08,-0.44,0.08,-0.44,0.44,0.48,0.34,0.51,0.51,0.51
324.35,0.05,-0.46,0.05,-0.46,0.46,0.50,0.37,0.51,0.51,0.51
327.59,0.02,-0.49,0.02,-0.49,0.49,0.52,0.40,0.51,0.51,0.50
330.87,-0.01,-0.52,-0.01,-0.52,0.51,0.54,0.43,0.50,0.50,0.50
334.18,-0.04,-0.54,-0.04,-0.54,0.54,0.56,0.47,0.50,0.50,0.50
337.52,-0.07,-0.57,-0.07,-0.57,0.57,0.57,0.50,0.50,0.50,0.50
340.90,-0.10,-0.60,-0.10,-0.60,0.60,0.59,0.53,0.50,0.50,0.50
344.30,-0.13,-0.62,-0.13,-0.62,0.62,0.61,0.57,0.50,0.50,0.50
347.75,-0.15,-0.65,-0.15,-0.65,0.65,0.63,0.60,0.50,0.50,0.50
351.23,-0.18,-0.68,-0.18,-0.68,0.68,0.65,0.64,0.50,0.50,0.50
354.74,-0.21,-0.71,-0.21,-0.71,0.71,0.67,0.67,0.50,0.50,0.50
358.28,-0.24,-0.74,-0.24,-0.74,0.74,0.68,0.71,0.50,0.50,0.50
361.87,-0.26,-0.77,-0.26,-0.77,0.77,0.70,0.74,0.51,0.51,0.51
365.49,-0.29,-0.80,-0.29,-0.80,0.80,0.72,0.78,0.51,0.51,0.51
369.14,-0.31,-0.83,-0.31,-0.83,0.83,0.74,0.82,0.51,0.51,0.51
372.83,-0.34,-0.86,-0.34,-0.86,0.86,0.76,0.86,0.52,0.52,0.52
376.56,-0.36,-0.89,-0.36,-0.89,0.89,0.79,0.89,0.52,0.52,0.52
380.33,-0.39,-0.91,-0.39,-0.91,0.91,0.81,0.93,0.53,0.53,0.53
384.13,-0.41,-0.94,-0.41,-0.94,0.94,0.83,0.97,0.53,0.53,0.53
387.97,-0.43,-0.97,-0.43,-0.97,0.97,0.85,1.01,0.54,0.54,0.54
391.85,-0.46,-1.00,-0.46,-1.00,1.00,0.87,1.05,0.54,0.54,0.54
395.77,-0.48,-1.03,-0.48,-1.03,1.03,0.89,1.09,0.55,0.55,0.55
399.73,-0.50,-1.05,-0.50,-1.05,1.05,0.92,1.13,0.55,0.55,0.55
403.72,-0.53,-1.08,-0.53,-1.08,1.08,0.94,1.17,0.55,0.55,0.55
407.76,-0.55,-1.11,-0.55,-1.11,1.11,0.96,1.21,0.55,0.55,0.55
411.84,-0.58,-1.13,-0.58,-1.13,1.13,0.99,1.24,0.56,0.56,0.56
415.96,-0.60,-1.16,-0.60,-1.16,1.15,1.01,1.28,0.56,0.56,0.56
420.12,-0.62,-1.18,-0.62,-1.18,1.18,1.04,1.32,0.56,0.56,0.56
424.32,-0.64,-1.20,-0.64,-1.20,1.20,1.06,1.36,0.56,0.56,0.56
428.56,-0.66,-1.22,-0.66,-1.22,1.22,1.09,1.40,0.56,0.56,0.56
432.85,-0.68,-1.24,-0.68,-1.24,1.24,1.12,1.43,0.56,0.56,0.56
437.18,-0.70,-1.26,-0.70,-1.26,1.26,1.14,1.47,0.56,0.56,0.56
441.55,-0.72,-1.28,-0.72,-1.28,1.28,1.17,1.50,0.56,0.56,0.56
445.96,-0.74,-1.30,-0.74,-1.30,1.30,1.20,1.54,0.56,0.56,0.56
450.42,-0.76,-1.32,-0.76,-1.32,1.32,1.22,1.57,0.56,0.56,0.56
454.93,-0.78,-1.34,-0.78,-1.34,1.34,1.25,1.60,0.56,0.56,0.56
459.48,-0.80,-1.36,-0.80,-1.36,1.36,1.28,1.62,0.56,0.56,0.56
464.07,-0.82,-1.38,-0.82,-1.38,1.38,1.31,1.65,0.56,0.56,0.56
468.71,-0.84,-1.40,-0.84,-1.40,1.40,1.34,1.67,0.56,0.56,0.56
473.40,-0.86,-1.42,-0.86,-1.42,1.42,1.36,1.69,0.56,0.56,0.56
478.13,-0.88,-1.44,-0.88,-1.44,1.44,1.39,1.71,0.56,0.56,0.56
482.91,-0.89,-1.45,-0.89,-1.45,1.45,1.42,1.73,0.56,0.56,0.56
487.74,-0.91,-1.47,-0.91,-1.47,1.47,1.45,1.74,0.56,0.56,0.56
492.62,-0.93,-1.49,-0.93,-1.49,1.49,1.48,1.75,0.56,0.56,0.56
497.55,-0.94,-1.50,-0.94,-1.50,1.50,1.51,1.76,0.56,0.56,0.56
502.52,-0.96,-1.52,-0.96,-1.52,1.51,1.54,1.77,0.56,0.56,0.56
507.55,-0.97,-1.53,-0.97,-1.53,1.53,1.56,1.77,0.56,0.56,0.56
512.62,-0.98,-1.54,-0.98,-1.54,1.54,1.59,1.77,0.56,0.56,0.56
517.75,-0.99,-1.55,-0.99,-1.55,1.55,1.62,1.77,0.56,0.56,0.56
522.93,-1.00,-1.56,-1.01,-1.56,1.57,1.64,1.76,0.56,0.56,0.56
528.16,-1.02,-1.58,-1.02,-1.58,1.58,1.67,1.76,0.56,0.56,0.56
533.44,-1.03,-1.59,-1.03,-1.59,1.59,1.69,1.75,0.56,0.56,0.56
