frequency,raw,error,smoothed,error_smoothed,equalization,parametric_eq,fixed_band_eq,equalized_raw,equalized_smoothed,target
20.00,11.99,7.03,11.99,7.03,-7.06,0.07,-2.09,4.93,4.93,4.96
20.20,12.00,6.99,12.00,6.98,-6.99,0.07,-2.15,5.01,5.01,5.01
20.40,12.00,6.91,12.00,6.92,-6.92,0.08,-2.21,5.08,5.08,5.09
20.61,12.00,6.84,11.99,6.86,-6.85,0.08,-2.28,5.15,5.14,5.16
20.81,11.98,6.82,11.98,6.80,-6.78,0.08,-2.34,5.20,5.20,5.16
21.02,11.95,6.75,11.95,6.74,-6.70,0.08,-2.41,5.25,5.25,5.20
21.23,11.92,6.65,11.92,6.66,-6.63,0.08,-2.48,5.29,5.29,5.27
21.44,11.88,6.56,11.88,6.57,-6.55,0.08,-2.56,5.33,5.33,5.32
21.66,11.85,6.47,11.85,6.47,-6.46,0.08,-2.63,5.39,5.39,5.38
21.87,11.82,6.37,11.82,6.37,-6.38,0.09,-2.71,5.44,5.44,5.45
22.09,11.79,6.27,11.79,6.26,-6.29,0.09,-2.79,5.50,5.50,5.52
22.31,11.77,6.18,11.77,6.18,-6.21,0.09,-2.87,5.56,5.56,5.60
22.54,11.76,6.10,11.76,6.12,-6.13,0.09,-2.96,5.63,5.63,5.66
22.76,11.75,6.09,11.75,6.08,-6.07,0.09,-3.05,5.68,5.68,5.66
22.99,11.75,6.04,11.75,6.03,-6.01,0.10,-3.13,5.73,5.73,5.71
23.22,11.74,5.98,11.74,5.97,-5.97,0.10,-3.22,5.77,5.77,5.77
23.45,11.73,5.89,11.73,5.91,-5.93,0.10,-3.32,5.81,5.81,5.84
23.69,11.72,5.87,11.72,5.87,-5.89,0.10,-3.41,5.83,5.83,5.86
23.92,11.71,5.85,11.71,5.85,-5.85,0.10,-3.51,5.86,5.86,5.86
24.16,11.69,5.83,11.69,5.83,-5.81,0.11,-3.61,5.88,5.88,5.86
24.40,11.67,5.81,11.67,5.79,-5.77,0.11,-3.70,5.89,5.89,5.86
24.65,11.64,5.74,11.64,5.74,-5.73,0.11,-3.81,5.91,5.91,5.90
24.89,11.61,5.65,11.61,5.68,-5.69,0.11,-3.91,5.92,5.92,5.96
25.14,11.58,5.62,11.58,5.62,-5.63,0.11,-4.01,5.95,5.95,5.96
25.39,11.54,5.58,11.54,5.58,-5.56,0.12,-4.11,5.98,5.98,5.96
25.65,11.50,5.53,11.50,5.52,-5.49,0.12,-4.22,6.02,6.02,5.97
25.91,11.46,5.43,11.46,5.42,-5.40,0.12,-4.32,6.06,6.06,6.04
26.16,11.42,5.32,11.42,5.32,-5.32,0.12,-4.42,6.10,6.10,6.10
26.43,11.37,5.21,11.37,5.23,-5.23,0.13,-4.53,6.13,6.13,6.16
26.69,11.31,5.16,11.31,5.14,-5.15,0.13,-4.63,6.16,6.16,6.16
26.96,11.26,5.07,11.26,5.05,-5.08,0.13,-4.73,6.18,6.18,6.20
27.23,11.22,4.96,11.22,4.98,-5.01,0.13,-4.82,6.21,6.21,6.26
27.50,11.18,4.92,11.18,4.92,-4.95,0.14,-4.92,6.23,6.23,6.26
27.77,11.15,4.89,11.15,4.89,-4.90,0.14,-5.01,6.25,6.25,6.26
28.05,11.12,4.86,11.12,4.86,-4.84,0.14,-5.09,6.28,6.28,6.26
28.33,11.09,4.83,11.09,4.81,-4.79,0.14,-5.17,6.30,6.30,6.26
28.62,11.05,4.74,11.05,4.75,-4.72,0.15,-5.25,6.33,6.33,6.31
28.90,11.01,4.65,11.01,4.67,-4.64,0.15,-5.31,6.37,6.36,6.36
29.19,10.96,4.60,10.95,4.57,-4.56,0.15,-5.38,6.40,6.40,6.36
29.48,10.90,4.47,10.90,4.47,-4.46,0.16,-5.43,6.44,6.44,6.43
29.78,10.85,4.34,10.85,4.35,-4.36,0.16,-5.47,6.49,6.49,6.50
30.08,10.80,4.23,10.81,4.24,-4.26,0.16,-5.51,6.55,6.55,6.57
30.38,10.77,4.14,10.78,4.14,-4.16,0.17,-5.54,6.61,6.62,6.63
30.68,10.76,4.06,10.76,4.05,-4.07,0.17,-5.55,6.69,6.69,6.70
30.99,10.75,3.97,10.75,3.97,-3.99,0.17,-5.56,6.76,6.76,6.78
31.30,10.73,3.89,10.73,3.90,-3.91,0.18,-5.56,6.83,6.82,6.84
31.61,10.70,3.84,10.69,3.84,-3.83,0.18,-5.55,6.87,6.87,6.86
31.93,10.64,3.78,10.64,3.78,-3.75,0.18,-5.52,6.89,6.88,6.86
32.24,10.56,3.71,10.56,3.71,-3.68,0.19,-5.49,6.88,6.88,6.86
32.57,10.48,3.62,10.48,3.61,-3.61,0.19,-5.45,6.88,6.88,6.86
32.89,10.41,3.53,10.41,3.52,-3.53,0.19,-5.40,6.87,6.88,6.88
33.22,10.36,3.40,10.36,3.43,-3.46,0.20,-5.34,6.90,6.90,6.96
33.55,10.32,3.36,10.33,3.36,-3.38,0.20,-5.27,6.95,6.95,6.96
33.89,10.31,3.32,10.31,3.30,-3.29,0.21,-5.20,7.02,7.02,7.00
34.23,10.31,3.24,10.31,3.25,-3.21,0.21,-5.12,7.10,7.10,7.06
34.57,10.30,3.17,10.30,3.17,-3.13,0.21,-5.03,7.17,7.17,7.13
34.92,10.28,3.08,10.28,3.07,-3.06,0.22,-4.93,7.22,7.21,7.20
35.27,10.25,2.98,10.25,2.98,-3.01,0.22,-4.83,7.25,7.25,7.27
35.62,10.23,2.89,10.23,2.90,-2.96,0.23,-4.73,7.27,7.27,7.34
35.97,10.22,2.86,10.22,2.86,-2.92,0.23,-4.63,7.30,7.30,7.36
36.33,10.22,2.86,10.22,2.86,-2.88,0.24,-4.52,7.34,7.34,7.36
36.70,10.22,2.87,10.23,2.86,-2.85,0.24,-4.40,7.37,7.37,7.36
37.06,10.22,2.86,10.22,2.86,-2.82,0.25,-4.29,7.41,7.40,7.36
37.43,10.19,2.83,10.19,2.83,-2.78,0.25,-4.17,7.42,7.41,7.36
37.81,10.13,2.77,10.13,2.78,-2.73,0.26,-4.06,7.40,7.40,7.36
38.19,10.07,2.71,10.07,2.70,-2.68,0.26,-3.94,7.39,7.39,7.36
38.57,10.00,2.61,10.00,2.60,-2.61,0.27,-3.82,7.38,7.39,7.39
38.95,9.94,2.49,9.94,2.51,-2.54,0.27,-3.70,7.40,7.40,7.45
39.34,9.89,2.43,9.89,2.44,-2.48,0.28,-3.59,7.42,7.42,7.46
39.74,9.85,2.39,9.85,2.39,-2.41,0.28,-3.47,7.44,7.44,7.46
40.14,9.81,2.36,9.81,2.35,-2.36,0.29,-3.36,7.45,7.45,7.46
40.54,9.77,2.31,9.77,2.31,-2.32,0.29,-3.24,7.45,7.45,7.46
40.94,9.73,2.27,9.73,2.27,-2.27,0.30,-3.13,7.45,7.46,7.46
41.35,9.69,2.23,9.69,2.24,-2.22,0.30,-3.02,7.47,7.47,7.46
41.76,9.66,2.21,9.67,2.20,-2.16,0.31,-2.91,7.50,7.50,7.46
42.18,9.65,2.14,9.65,2.14,-2.09,0.32,-2.80,7.56,7.55,7.51
42.60,9.64,2.06,9.64,2.06,-2.02,0.32,-2.69,7.62,7.62,7.58
43.03,9.62,1.98,9.62,1.95,-1.94,0.33,-2.59,7.68,7.68,7.65
43.46,9.61,1.83,9.61,1.84,-1.87,0.34,-2.49,7.74,7.74,7.78
43.90,9.59,1.73,9.59,1.76,-1.82,0.34,-2.38,7.78,7.78,7.86
44.33,9.58,1.72,9.58,1.70,-1.77,0.35,-2.28,7.80,7.80,7.86
44.78,9.56,1.70,9.55,1.69,-1.74,0.36,-2.19,7.81,7.81,7.86
45.23,9.53,1.70,9.52,1.71,-1.72,0.36,-2.09,7.81,7.81,7.83
45.68,9.49,1.73,9.49,1.73,-1.70,0.37,-2.00,7.79,7.79,7.76
46.13,9.45,1.76,9.45,1.75,-1.69,0.38,-1.91,7.75,7.76,7.69
46.60,9.41,1.75,9.41,1.74,-1.68,0.38,-1.82,7.73,7.73,7.66
47.06,9.37,1.70,9.37,1.69,-1.67,0.39,-1.73,7.71,7.71,7.67
47.53,9.34,1.60,9.34,1.61,-1.64,0.40,-1.64,7.69,7.69,7.74
48.01,9.30,1.54,9.30,1.56,-1.61,0.41,-1.55,7.69,7.69,7.76
48.49,9.26,1.51,9.26,1.52,-1.56,0.42,-1.47,7.70,7.70,7.75
48.97,9.20,1.53,9.20,1.51,-1.50,0.42,-1.39,7.70,7.71,7.68
49.46,9.14,1.48,9.14,1.47,-1.43,0.43,-1.31,7.71,7.71,7.66
49.96,9.07,1.41,9.06,1.41,-1.36,0.44,-1.23,7.71,7.71,7.66
50.46,8.97,1.31,8.97,1.32,-1.28,0.45,-1.15,7.69,7.69,7.66
50.96,8.88,1.22,8.88,1.22,-1.21,0.46,-1.07,7.67,7.66,7.66
51.47,8.78,1.12,8.78,1.12,-1.14,0.47,-1.00,7.64,7.64,7.66
51.99,8.69,1.03,8.70,1.03,-1.07,0.48,-0.93,7.62,7.62,7.66
52.51,8.63,0.97,8.63,0.98,-1.02,0.48,-0.85,7.61,7.61,7.66
53.03,8.57,0.95,8.58,0.96,-0.99,0.49,-0.78,7.58,7.59,7.63
53.56,8.54,0.99,8.54,0.96,-0.98,0.50,-0.72,7.56,7.56,7.56
54.10,8.52,0.96,8.52,0.97,-0.99,0.51,-0.65,7.53,7.53,7.56
54.64,8.50,0.98,8.50,1.00,-1.00,0.52,-0.58,7.50,7.50,7.52
55.18,8.48,1.03,8.48,1.03,-1.02,0.53,-0.52,7.46,7.46,7.45
55.74,8.46,1.08,8.46,1.07,-1.04,0.54,-0.45,7.42,7.42,7.38
56.29,8.43,1.07,8.43,1.07,-1.05,0.55,-0.39,7.39,7.39,7.36
56.86,8.40,1.04,8.40,1.05,-1.03,0.56,-0.33,7.37,7.37,7.36
57.42,8.36,1.00,8.36,1.00,-1.00,0.58,-0.27,7.36,7.36,7.36
58.00,8.31,0.95,8.30,0.95,-0.93,0.59,-0.21,7.37,7.37,7.36
58.58,8.23,0.87,8.23,0.87,-0.85,0.60,-0.16,7.38,7.38,7.36
59.16,8.14,0.79,8.14,0.76,-0.74,0.61,-0.10,7.41,7.40,7.36
59.76,8.03,0.61,8.03,0.62,-0.61,0.62,-0.05,7.43,7.42,7.42
60.35,7.91,0.45,7.91,0.46,-0.46,0.63,0.00,7.45,7.45,7.46
60.96,7.77,0.31,7.76,0.30,-0.30,0.65,0.05,7.46,7.46,7.46
61.57,7.62,0.16,7.61,0.16,-0.14,0.66,0.10,7.47,7.47,7.46
62.18,7.47,0.01,7.47,0.00,0.00,0.67,0.15,7.47,7.47,7.46
62.80,7.33,-0.14,7.33,-0.15,0.13,0.68,0.19,7.46,7.46,7.47
63.43,7.23,-0.30,7.23,-0.29,0.23,0.70,0.24,7.46,7.46,7.53
64.07,7.15,-0.40,7.17,-0.38,0.30,0.71,0.28,7.45,7.46,7.56
64.71,7.14,-0.42,7.14,-0.42,0.35,0.72,0.33,7.49,7.49,7.56
65.35,7.15,-0.41,7.15,-0.41,0.39,0.74,0.37,7.54,7.54,7.56
66.01,7.17,-0.39,7.16,-0.39,0.44,0.75,0.41,7.60,7.60,7.56
66.67,7.16,-0.40,7.16,-0.40,0.49,0.76,0.45,7.65,7.65,7.56
67.33,7.13,-0.43,7.13,-0.45,0.55,0.78,0.49,7.69,7.68,7.56
68.01,7.07,-0.55,7.07,-0.55,0.63,0.79,0.53,7.70,7.70,7.62
68.69,6.98,-0.71,6.98,-0.70,0.73,0.81,0.56,7.70,7.71,7.69
69.37,6.89,-0.87,6.89,-0.87,0.83,0.82,0.60,7.72,7.72,7.76
70.07,6.81,-1.01,6.82,-1.00,0.94,0.84,0.64,7.75,7.76,7.83
70.77,6.77,-1.09,6.77,-1.08,1.03,0.86,0.67,7.79,7.80,7.86
71.48,6.74,-1.11,6.74,-1.12,1.08,0.87,0.71,7.83,7.83,7.86
72.19,6.73,-1.13,6.73,-1.14,1.11,0.89,0.75,7.84,7.84,7.86
72.91,6.72,-1.14,6.72,-1.14,1.10,0.90,0.78,7.82,7.81,7.86
73.64,6.70,-1.14,6.70,-1.10,1.07,0.92,0.82,7.77,7.77,7.83
74.38,6.67,-1.03,6.67,-1.02,1.03,0.94,0.86,7.70,7.70,7.70
75.12,6.64,-0.93,6.64,-0.94,1.00,0.96,0.89,7.63,7.63,7.56
75.87,6.60,-0.86,6.60,-0.89,0.97,0.97,0.93,7.57,7.57,7.46
76.63,6.56,-0.90,6.56,-0.89,0.95,0.99,0.97,7.51,7.51,7.46
77.40,6.52,-0.94,6.52,-0.94,0.95,1.01,1.00,7.46,7.46,7.46
78.17,6.47,-0.99,6.47,-0.99,0.95,1.03,1.04,7.42,7.42,7.46
78.95,6.42,-1.03,6.42,-1.01,0.97,1.05,1.08,7.39,7.39,7.46
79.74,6.37,-1.03,6.37,-1.04,0.99,1.07,1.12,7.37,7.36,7.40
80.54,6.32,-1.04,6.32,-1.06,1.02,1.09,1.16,7.34,7.34,7.36
81.35,6.26,-1.10,6.26,-1.07,1.07,1.11,1.21,7.33,7.33,7.36
82.16,6.20,-1.09,6.20,-1.09,1.12,1.13,1.25,7.32,7.32,7.30
82.98,6.14,-1.12,6.14,-1.13,1.19,1.15,1.29,7.33,7.33,7.26
83.81,6.07,-1.19,6.07,-1.20,1.27,1.17,1.34,7.34,7.34,7.26
84.65,6.00,-1.33,6.00,-1.34,1.37,1.19,1.39,7.38,7.38,7.33
85.50,5.93,-1.51,5.93,-1.51,1.49,1.21,1.43,7.42,7.42,7.44
86.35,5.86,-1.70,5.86,-1.66,1.61,1.24,1.48,7.48,7.47,7.56
87.22,5.79,-1.77,5.79,-1.77,1.74,1.26,1.53,7.53,7.53,7.56
88.09,5.71,-1.85,5.71,-1.88,1.87,1.28,1.58,7.58,7.58,7.56
88.97,5.64,-1.96,5.64,-1.99,1.98,1.30,1.64,7.62,7.62,7.60
89.86,5.57,-2.17,5.57,-2.10,2.08,1.33,1.69,7.65,7.65,7.74
90.76,5.50,-2.20,5.50,-2.19,2.17,1.35,1.74,7.68,7.68,7.70
91.66,5.44,-2.22,5.44,-2.25,2.25,1.38,1.80,7.69,7.69,7.66
92.58,5.38,-2.28,5.38,-2.30,2.33,1.40,1.86,7.71,7.71,7.66
93.51,5.32,-2.40,5.32,-2.39,2.41,1.42,1.92,7.73,7.73,7.72
94.44,5.26,-2.50,5.26,-2.48,2.49,1.45,1.98,7.75,7.75,7.76
95.39,5.20,-2.56,5.20,-2.56,2.56,1.48,2.04,7.76,7.76,7.76
96.34,5.14,-2.62,5.14,-2.64,2.63,1.50,2.10,7.77,7.77,7.76
97.30,5.09,-2.71,5.09,-2.71,2.70,1.53,2.16,7.79,7.79,7.79
98.28,5.05,-2.81,5.06,-2.78,2.76,1.56,2.23,7.81,7.82,7.86
99.26,5.03,-2.83,5.03,-2.84,2.81,1.58,2.29,7.84,7.84,7.86
100.25,5.00,-2.86,4.99,-2.87,2.86,1.61,2.36,7.86,7.86,7.86
101.25,4.95,-2.90,4.94,-2.90,2.91,1.64,2.42,7.86,7.85,7.85
102.27,4.87,-2.93,4.86,-2.92,2.95,1.67,2.49,7.82,7.82,7.80
103.29,4.77,-2.96,4.77,-2.96,2.99,1.70,2.56,7.76,7.76,7.73
104.32,4.66,-3.00,4.67,-3.02,3.03,1.73,2.62,7.69,7.69,7.66
105.37,4.57,-3.09,4.57,-3.07,3.06,1.76,2.69,7.62,7.62,7.66
106.42,4.48,-3.14,4.48,-3.12,3.08,1.79,2.76,7.56,7.56,7.62
107.48,4.40,-3.13,4.41,-3.14,3.10,1.82,2.82,7.51,7.51,7.53
108.56,4.34,-3.14,4.34,-3.13,3.12,1.85,2.89,7.46,7.46,7.48
109.64,4.28,-3.11,4.28,-3.13,3.14,1.88,2.95,7.43,7.43,7.39
110.74,4.23,-3.13,4.23,-3.13,3.17,1.91,3.01,7.39,7.39,7.36
111.85,4.17,-3.19,4.17,-3.15,3.19,1.94,3.07,7.36,7.36,7.36
112.97,4.12,-3.14,4.12,-3.19,3.22,1.98,3.13,7.34,7.34,7.26
114.10,4.07,-3.24,4.07,-3.24,3.26,2.01,3.19,7.33,7.33,7.31
115.24,4.03,-3.33,4.03,-3.30,3.30,2.04,3.24,7.33,7.33,7.36
116.39,4.01,-3.35,4.00,-3.36,3.33,2.08,3.29,7.34,7.34,7.36
117.55,3.98,-3.37,3.99,-3.37,3.36,2.11,3.34,7.34,7.35,7.36
118.73,3.98,-3.37,3.98,-3.38,3.36,2.14,3.38,7.34,7.34,7.36
119.92,3.99,-3.37,3.99,-3.38,3.34,2.18,3.42,7.33,7.33,7.36
121.12,3.99,-3.37,3.99,-3.36,3.30,2.21,3.46,7.29,7.29,7.36
122.33,4.00,-3.33,4.00,-3.30,3.26,2.25,3.49,7.25,7.25,7.33
123.55,3.99,-3.21,3.99,-3.21,3.21,2.29,3.52,7.20,7.20,7.20
124.79,3.98,-3.10,3.98,-3.12,3.17,2.32,3.54,7.15,7.15,7.08
126.03,3.95,-3.06,3.95,-3.06,3.15,2.36,3.57,7.10,7.10,7.01
127.29,3.89,-3.06,3.89,-3.07,3.15,2.40,3.58,7.04,7.04,6.96
128.57,3.82,-3.14,3.82,-3.13,3.17,2.43,3.60,6.99,6.99,6.96
129.85,3.74,-3.22,3.74,-3.21,3.21,2.47,3.60,6.96,6.96,6.96
131.15,3.66,-3.30,3.67,-3.29,3.27,2.51,3.61,6.94,6.94,6.96
132.46,3.59,-3.36,3.60,-3.36,3.34,2.55,3.61,6.94,6.94,6.96
133.79,3.53,-3.43,3.53,-3.43,3.40,2.59,3.61,6.94,6.94,6.96
135.12,3.48,-3.48,3.48,-3.48,3.44,2.63,3.61,6.92,6.92,6.96
136.48,3.43,-3.53,3.43,-3.52,3.46,2.67,3.60,6.89,6.89,6.96
137.84,3.39,-3.53,3.38,-3.52,3.46,2.71,3.59,6.85,6.85,6.92
139.22,3.33,-3.50,3.33,-3.49,3.46,2.75,3.58,6.80,6.80,6.84
140.61,3.28,-3.42,3.28,-3.43,3.47,2.79,3.57,6.75,6.75,6.70
142.02,3.22,-3.39,3.22,-3.39,3.48,2.83,3.55,6.70,6.70,6.61
143.44,3.16,-3.40,3.16,-3.41,3.50,2.87,3.54,6.66,6.66,6.56
144.87,3.10,-3.46,3.10,-3.48,3.52,2.91,3.52,6.62,6.62,6.56
146.32,3.04,-3.58,3.04,-3.58,3.55,2.95,3.50,6.59,6.59,6.63
147.78,2.98,-3.68,2.98,-3.66,3.59,2.99,3.49,6.58,6.58,6.66
149.26,2.93,-3.72,2.93,-3.70,3.64,3.04,3.47,6.57,6.57,6.65
150.75,2.88,-3.70,2.88,-3.70,3.68,3.08,3.46,6.56,6.56,6.57
152.26,2.82,-3.70,2.82,-3.70,3.72,3.12,3.44,6.54,6.54,6.52
153.78,2.76,-3.70,2.76,-3.71,3.74,3.16,3.43,6.51,6.51,6.47
155.32,2.71,-3.75,2.71,-3.73,3.75,3.21,3.42,6.46,6.46,6.46
156.88,2.66,-3.76,2.66,-3.75,3.75,3.25,3.40,6.41,6.41,6.41
158.44,2.61,-3.75,2.61,-3.77,3.75,3.29,3.39,6.36,6.36,6.36
160.03,2.56,-3.79,2.56,-3.78,3.76,3.33,3.39,6.32,6.32,6.36
161.63,2.52,-3.79,2.52,-3.78,3.77,3.38,3.38,6.29,6.29,6.30
163.24,2.47,-3.78,2.47,-3.77,3.79,3.42,3.38,6.26,6.26,6.25
164.88,2.42,-3.74,2.42,-3.77,3.81,3.46,3.38,6.23,6.23,6.16
166.53,2.37,-3.79,2.37,-3.79,3.83,3.50,3.38,6.20,6.20,6.16
168.19,2.32,-3.84,2.32,-3.83,3.84,3.55,3.38,6.17,6.17,6.16
169.87,2.27,-3.88,2.27,-3.89,3.86,3.59,3.38,6.13,6.13,6.16
171.57,2.23,-3.93,2.23,-3.92,3.87,3.63,3.39,6.10,6.10,6.16
173.29,2.19,-3.93,2.19,-3.93,3.88,3.67,3.40,6.07,6.07,6.12
175.02,2.14,-3.92,2.14,-3.91,3.89,3.71,3.42,6.03,6.03,6.06
176.77,2.10,-3.87,2.10,-3.88,3.89,3.75,3.43,5.99,5.99,5.97
178.54,2.05,-3.86,2.05,-3.87,3.89,3.80,3.45,5.94,5.94,5.91
180.32,2.00,-3.86,2.00,-3.87,3.89,3.84,3.47,5.89,5.89,5.86
182.13,1.95,-3.91,1.95,-3.89,3.90,3.88,3.50,5.85,5.85,5.86
183.95,1.89,-3.92,1.89,-3.91,3.92,3.92,3.53,5.82,5.82,5.81
185.79,1.84,-3.92,1.84,-3.93,3.96,3.95,3.56,5.80,5.80,5.76
187.65,1.79,-3.97,1.79,-3.96,3.99,3.99,3.59,5.78,5.78,5.76
189.52,1.75,-4.01,1.75,-4.03,4.01,4.03,3.62,5.76,5.76,5.76
191.42,1.70,-4.07,1.70,-4.09,4.04,4.07,3.66,5.74,5.74,5.77
193.33,1.66,-4.18,1.66,-4.12,4.06,4.11,3.70,5.72,5.72,5.84
195.27,1.62,-4.11,1.62,-4.11,4.09,4.14,3.74,5.70,5.70,5.73
197.22,1.57,-4.05,1.57,-4.08,4.11,4.18,3.78,5.68,5.67,5.62
199.19,1.52,-4.04,1.52,-4.06,4.12,4.21,3.83,5.64,5.64,5.56
201.18,1.46,-4.09,1.46,-4.09,4.13,4.25,3.87,5.59,5.59,5.56
203.19,1.41,-4.15,1.41,-4.14,4.13,4.28,3.92,5.54,5.55,5.56
205.23,1.37,-4.18,1.37,-4.16,4.13,4.31,3.97,5.50,5.50,5.55
207.28,1.33,-4.16,1.33,-4.15,4.12,4.34,4.02,5.45,5.45,5.48
209.35,1.29,-4.13,1.29,-4.14,4.12,4.37,4.07,5.40,5.40,5.41
211.44,1.25,-4.11,1.25,-4.13,4.11,4.40,4.12,5.36,5.36,5.36
213.56,1.21,-4.14,1.21,-4.10,4.11,4.43,4.17,5.32,5.32,5.36
215.69,1.18,-4.07,1.18,-4.07,4.10,4.46,4.23,5.28,5.28,5.25
217.85,1.14,-4.02,1.13,-4.06,4.10,4.49,4.28,5.23,5.23,5.16
220.03,1.09,-4.07,1.09,-4.06,4.10,4.51,4.32,5.19,5.19,5.16
222.23,1.04,-4.12,1.04,-4.11,4.12,4.53,4.37,5.16,5.16,5.16
224.45,1.00,-4.16,1.00,-4.16,4.14,4.56,4.42,5.13,5.13,5.16
226.70,0.95,-4.21,0.95,-4.18,4.16,4.58,4.46,5.11,5.11,5.16
228.96,0.91,-4.19,0.91,-4.20,4.18,4.60,4.50,5.09,5.09,5.09
231.25,0.86,-4.20,0.86,-4.21,4.20,4.62,4.54,5.07,5.07,5.06
233.57,0.82,-4.24,0.82,-4.21,4.22,4.63,4.57,5.04,5.04,5.06
235.90,0.78,-4.22,0.78,-4.23,4.23,4.65,4.60,5.01,5.01,5.00
238.26,0.73,-4.22,0.73,-4.23,4.24,4.66,4.63,4.98,4.98,4.96
240.64,0.69,-4.25,0.69,-4.23,4.25,4.67,4.65,4.94,4.94,4.94
243.05,0.65,-4.23,0.65,-4.25,4.25,4.69,4.67,4.90,4.90,4.88
245.48,0.61,-4.25,0.61,-4.25,4.25,4.70,4.68,4.86,4.86,4.86
247.93,0.57,-4.27,0.57,-4.26,4.24,4.70,4.69,4.80,4.80,4.84
250.41,0.52,-4.25,0.52,-4.25,4.22,4.71,4.69,4.74,4.75,4.77
252.92,0.48,-4.23,0.48,-4.23,4.20,4.72,4.68,4.68,4.68,4.71
255.45,0.44,-4.20,0.44,-4.19,4.19,4.72,4.67,4.63,4.63,4.64
258.00,0.41,-4.15,0.41,-4.15,4.18,4.72,4.66,4.58,4.58,4.56
260.58,0.37,-4.12,0.37,-4.13,4.17,4.72,4.64,4.55,4.55,4.49
263.19,0.34,-4.12,0.34,-4.13,4.18,4.72,4.62,4.51,4.51,4.46
265.82,0.30,-4.16,0.30,-4.15,4.18,4.72,4.59,4.48,4.48,4.46
268.48,0.26,-4.19,0.27,-4.20,4.19,4.71,4.56,4.45,4.45,4.46
271.16,0.23,-4.23,0.23,-4.23,4.19,4.71,4.53,4.42,4.42,4.46
273.87,0.19,-4.27,0.19,-4.25,4.20,4.70,4.49,4.39,4.39,4.46
276.61,0.16,-4.24,0.16,-4.24,4.20,4.69,4.45,4.36,4.36,4.39
279.38,0.12,-4.20,0.12,-4.20,4.20,4.68,4.40,4.32,4.32,4.32
282.17,0.09,-4.17,0.09,-4.16,4.19,4.67,4.36,4.28,4.28,4.25
284.99,0.06,-4.13,0.05,-4.15,4.17,4.66,4.31,4.23,4.23,4.18
287.84,0.02,-4.14,0.02,-4.14,4.15,4.64,4.26,4.17,4.17,4.16
290.72,-0.02,-4.16,-0.02,-4.13,4.13,4.63,4.21,4.12,4.12,4.14
293.63,-0.05,-4.12,-0.05,-4.12,4.12,4.61,4.16,4.06,4.06,4.07
296.57,-0.09,-4.09,-0.09,-4.11,4.11,4.59,4.11,4.02,4.02,3.99
299.53,-0.13,-4.09,-0.13,-4.10,4.10,4.57,4.05,3.97,3.97,3.96
302.53,-0.17,-4.13,-0.17,-4.10,4.09,4.55,4.00,3.93,3.93,3.96
305.55,-0.20,-4.10,-0.20,-4.09,4.09,4.53,3.95,3.88,3.88,3.89
308.61,-0.24,-4.07,-0.24,-4.08,4.08,4.51,3.90,3.84,3.84,3.83
311.69,-0.28,-4.04,-0.28,-4.06,4.08,4.48,3.86,3.80,3.80,3.76
314.81,-0.31,-4.07,-0.31,-4.05,4.08,4.46,3.81,3.77,3.77,3.76
317.96,-0.34,-4.06,-0.34,-4.05,4.07,4.43,3.77,3.73,3.73,3.72
321.14,-0.37,-4.03,-0.37,-4.06,4.05,4.40,3.72,3.68,3.68,3.66
324.35,-0.40,-4.06,-0.40,-4.05,4.02,4.37,3.68,3.62,3.61,3.66
327.59,-0.43,-4.04,-0.43,-4.03,3.97,4.35,3.64,3.54,3.54,3.61
330.87,-0.46,-3.99,-0.46,-3.98,3.92,4.32,3.61,3.46,3.46,3.52
334.18,-0.50,-3.89,-0.50,-3.89,3.87,4.28,3.57,3.37,3.37,3.39
337.52,-0.53,-3.79,-0.53,-3.79,3.82,4.25,3.54,3.29,3.29,3.26
340.90,-0.57,-3.71,-0.57,-3.72,3.78,4.22,3.51,3.22,3.22,3.14
344.30,-0.60,-3.67,-0.60,-3.68,3.75,4.19,3.49,3.15,3.15,3.07
347.75,-0.63,-3.69,-0.63,-3.69,3.72,4.15,3.46,3.09,3.09,3.06
351.23,-0.67,-3.73,-0.67,-3.72,3.72,4.12,3.44,3.05,3.05,3.06
354.74,-0.70,-3.76,-0.70,-3.76,3.72,4.09,3.42,3.02,3.02,3.06
358.28,-0.73,-3.79,-0.73,-3.77,3.74,4.05,3.41,3.01,3.01,3.06
361.87,-0.76,-3.78,-0.76,-3.77,3.77,4.01,3.40,3.01,3.01,3.02
365.49,-0.78,-3.74,-0.79,-3.77,3.79,3.98,3.38,3.00,3.00,2.96
369.14,-0.82,-3.78,-0.82,-3.78,3.80,3.94,3.38,2.98,2.98,2.96
372.83,-0.85,-3.81,-0.85,-3.80,3.80,3.91,3.37,2.95,2.95,2.96
376.56,-0.88,-3.83,-0.88,-3.82,3.79,3.87,3.37,2.90,2.90,2.95
380.33,-0.92,-3.80,-0.92,-3.80,3.77,3.83,3.37,2.85,2.85,2.89
384.13,-0.95,-3.76,-0.95,-3.77,3.74,3.80,3.37,2.80,2.80,2.82
387.97,-0.98,-3.72,-0.98,-3.72,3.72,3.76,3.37,2.74,2.74,2.74
391.85,-1.01,-3.69,-1.01,-3.68,3.70,3.72,3.38,2.69,2.69,2.68
395.77,-1.04,-3.64,-1.04,-3.65,3.68,3.68,3.39,2.64,2.64,2.60
399.73,-1.06,-3.62,-1.06,-3.63,3.67,3.65,3.40,2.61,2.61,2.56
403.72,-1.09,-3.65,-1.09,-3.64,3.67,3.61,3.41,2.59,2.59,2.56
407.76,-1.11,-3.67,-1.11,-3.66,3.68,3.57,3.42,2.57,2.57,2.56
411.84,-1.13,-3.69,-1.13,-3.69,3.69,3.53,3.44,2.56,2.56,2.56
415.96,-1.15,-3.71,-1.15,-3.72,3.70,3.50,3.45,2.54,2.54,2.56
420.12,-1.18,-3.73,-1.18,-3.72,3.69,3.46,3.47,2.51,2.51,2.56
424.32,-1.20,-3.72,-1.20,-3.71,3.66,3.42,3.48,2.46,2.46,2.52
428.56,-1.22,-3.67,-1.22,-3.67,3.62,3.39,3.50,2.41,2.41,2.45
432.85,-1.23,-3.61,-1.23,-3.60,3.58,3.35,3.51,2.34,2.34,2.38
437.18,-1.25,-3.52,-1.25,-3.51,3.53,3.32,3.53,2.28,2.28,2.27
441.55,-1.26,-3.41,-1.26,-3.43,3.48,3.28,3.55,2.22,2.22,2.15
445.96,-1.28,-3.36,-1.28,-3.37,3.44,3.25,3.56,2.16,2.16,2.08
450.42,-1.30,-3.36,-1.30,-3.36,3.40,3.21,3.57,2.11,2.10,2.06
454.93,-1.32,-3.38,-1.32,-3.38,3.38,3.18,3.58,2.06,2.06,2.06
459.48,-1.35,-3.41,-1.35,-3.39,3.37,3.14,3.59,2.02,2.02,2.06
464.07,-1.38,-3.38,-1.38,-3.39,3.36,3.11,3.60,1.98,1.98,2.00
468.71,-1.40,-3.36,-1.40,-3.38,3.35,3.08,3.61,1.95,1.95,1.96
473.40,-1.42,-3.38,-1.42,-3.36,3.33,3.04,3.61,1.91,1.91,1.96
478.13,-1.43,-3.33,-1.43,-3.33,3.31,3.01,3.61,1.87,1.87,1.90
482.91,-1.45,-3.28,-1.45,-3.28,3.28,2.98,3.60,1.83,1.83,1.83
487.74,-1.46,-3.22,-1.46,-3.22,3.25,2.95,3.59,1.79,1.79,1.76
492.62,-1.47,-3.16,-1.47,-3.17,3.22,2.92,3.58,1.75,1.75,1.69
497.55,-1.48,-3.14,-1.48,-3.15,3.18,2.89,3.57,1.70,1.70,1.66
502.52,-1.49,-3.15,-1.49,-3.15,3.15,2.86,3.55,1.66,1.66,1.66
507.55,-1.51,-3.17,-1.51,-3.15,3.12,2.83,3.52,1.61,1.61,1.66
512.62,-1.52,-3.13,-1.52,-3.13,3.08,2.80,3.50,1.56,1.56,1.61
517.75,-1.53,-3.08,-1.53,-3.08,3.06,2.77,3.47,1.52,1.52,1.55
522.93,-1.54,-3.02,-1.54,-3.01,3.03,2.75,3.43,1.49,1.49,1.47
528.16,-1.55,-2.96,-1.55,-2.96,3.00,2.72,3.40,1.45,1.45,1.41
533.44,-1.56,-2.92,-1.56,-2.93,2.97,2.69,3.36,1.41,1.41,1.36
538.77,-1.57,-2.93,-1.57,-2.93,2.94,2.66,3.31,1.37,1.37,1.36
544.16,-1.58,-2.94,-1.58,-2.92,2.91,2.64,3.27,1.33,1.33,1.36
549.60,-1.59,-2.91,-1.59,-2.91,2.89,2.61,3.22,1.30,1.30,1.33
555.10,-1.59,-2.85,-1.59,-2.88,2.87,2.58,3.17,1.27,1.27,1.26
