frequency,raw,error,smoothed,error_smoothed,equalization,parametric_eq,fixed_band_eq,equalized_raw,equalized_smoothed,target
20.00,7.70,-3.56,7.70,-3.56,3.62,3.21,1.16,11.32,11.32,11.27
20.20,7.71,-3.58,7.71,-3.58,3.59,3.21,1.19,11.30,11.30,11.29
20.40,7.73,-3.58,7.72,-3.59,3.57,3.21,1.23,11.29,11.29,11.31
20.61,7.75,-3.58,7.75,-3.57,3.54,3.20,1.27,11.29,11.29,11.33
20.81,7.79,-3.55,7.79,-3.55,3.51,3.20,1.30,11.30,11.30,11.34
21.02,7.85,-3.51,7.85,-3.51,3.48,3.19,1.34,11.32,11.32,11.36
21.23,7.91,-3.46,7.91,-3.46,3.44,3.19,1.38,11.35,11.35,11.37
21.44,7.98,-3.40,7.98,-3.40,3.41,3.18,1.43,11.39,11.39,11.38
21.66,8.05,-3.35,8.04,-3.35,3.36,3.17,1.47,11.41,11.41,11.39
21.87,8.11,-3.30,8.11,-3.30,3.32,3.16,1.52,11.43,11.42,11.41
22.09,8.17,-3.26,8.17,-3.26,3.27,3.15,1.56,11.44,11.44,11.43
22.31,8.22,-3.23,8.22,-3.23,3.24,3.14,1.61,11.46,11.46,11.45
22.54,8.27,-3.20,8.27,-3.20,3.21,3.13,1.66,11.47,11.47,11.47
22.76,8.32,-3.18,8.32,-3.18,3.18,3.11,1.71,11.49,11.49,11.49
22.99,8.36,-3.16,8.37,-3.16,3.15,3.10,1.76,11.51,11.51,11.52
23.22,8.42,-3.13,8.42,-3.13,3.12,3.09,1.81,11.54,11.54,11.55
23.45,8.48,-3.10,8.48,-3.10,3.08,3.07,1.86,11.56,11.56,11.58
23.69,8.54,-3.06,8.54,-3.06,3.05,3.05,1.92,11.59,11.59,11.60
23.92,8.60,-3.01,8.60,-3.01,3.01,3.04,1.97,11.61,11.61,11.61
24.16,8.65,-2.97,8.65,-2.97,2.97,3.02,2.03,11.63,11.62,11.62
24.40,8.70,-2.92,8.70,-2.92,2.93,3.00,2.08,11.63,11.63,11.63
24.65,8.74,-2.88,8.74,-2.89,2.90,2.98,2.14,11.64,11.64,11.62
24.89,8.77,-2.85,8.77,-2.85,2.87,2.96,2.20,11.64,11.64,11.62
25.14,8.80,-2.83,8.80,-2.83,2.84,2.94,2.26,11.63,11.63,11.62
25.39,8.82,-2.80,8.83,-2.80,2.81,2.92,2.31,11.63,11.63,11.63
25.65,8.85,-2.78,8.86,-2.78,2.78,2.90,2.37,11.63,11.63,11.64
25.91,8.89,-2.76,8.89,-2.76,2.74,2.88,2.43,11.63,11.63,11.65
26.16,8.93,-2.72,8.93,-2.72,2.70,2.85,2.49,11.63,11.63,11.65
26.43,8.97,-2.67,8.97,-2.67,2.65,2.83,2.55,11.62,11.62,11.65
26.69,9.01,-2.61,9.01,-2.61,2.60,2.81,2.60,11.61,11.61,11.63
26.96,9.06,-2.55,9.05,-2.55,2.54,2.78,2.66,11.60,11.60,11.60
27.23,9.09,-2.48,9.09,-2.48,2.49,2.76,2.71,11.58,11.58,11.57
27.50,9.12,-2.42,9.12,-2.42,2.44,2.73,2.76,11.56,11.56,11.54
27.77,9.15,-2.38,9.15,-2.38,2.40,2.70,2.81,11.55,11.55,11.53
28.05,9.18,-2.35,9.18,-2.35,2.37,2.68,2.86,11.55,11.55,11.52
28.33,9.20,-2.35,9.20,-2.34,2.35,2.65,2.90,11.55,11.55,11.54
28.62,9.22,-2.35,9.22,-2.35,2.34,2.62,2.94,11.56,11.56,11.57
28.90,9.24,-2.36,9.24,-2.36,2.34,2.59,2.98,11.58,11.58,11.59
29.19,9.25,-2.36,9.25,-2.36,2.35,2.56,3.01,11.60,11.60,11.61
29.48,9.26,-2.36,9.26,-2.36,2.36,2.54,3.04,11.62,11.62,11.63
29.78,9.27,-2.36,9.27,-2.36,2.37,2.51,3.06,11.64,11.64,11.63
30.08,9.28,-2.36,9.28,-2.37,2.38,2.48,3.08,11.66,11.66,11.64
30.38,9.29,-2.37,9.29,-2.37,2.39,2.45,3.10,11.68,11.68,11.66
30.68,9.31,-2.38,9.31,-2.38,2.39,2.42,3.10,11.69,11.70,11.69
30.99,9.33,-2.39,9.33,-2.39,2.37,2.39,3.11,11.71,11.71,11.73
31.30,9.37,-2.38,9.37,-2.38,2.34,2.36,3.11,11.71,11.71,11.76
31.61,9.41,-2.35,9.41,-2.35,2.30,2.33,3.10,11.71,11.71,11.76
31.93,9.46,-2.29,9.46,-2.28,2.25,2.29,3.09,11.71,11.71,11.75
32.24,9.50,-2.20,9.50,-2.20,2.19,2.26,3.07,11.69,11.69,11.70
32.57,9.55,-2.11,9.55,-2.11,2.13,2.23,3.05,11.68,11.68,11.66
32.89,9.59,-2.02,9.59,-2.03,2.08,2.20,3.02,11.67,11.66,11.61
33.22,9.63,-1.98,9.63,-1.98,2.03,2.17,2.99,11.66,11.66,11.60
33.55,9.66,-1.95,9.66,-1.96,2.00,2.14,2.95,11.66,11.66,11.61
33.89,9.69,-1.97,9.69,-1.97,1.99,2.10,2.91,11.67,11.67,11.66
34.23,9.71,-1.99,9.71,-1.99,1.98,2.07,2.87,11.70,11.70,11.70
34.57,9.73,-2.01,9.73,-2.01,1.98,2.04,2.82,11.72,11.72,11.75
34.92,9.76,-2.02,9.76,-2.01,1.98,2.01,2.77,11.74,11.74,11.77
35.27,9.78,-2.00,9.78,-2.00,1.98,1.97,2.71,11.75,11.75,11.78
35.62,9.80,-1.98,9.80,-1.98,1.96,1.94,2.66,11.75,11.75,11.77
35.97,9.82,-1.93,9.82,-1.93,1.92,1.91,2.60,11.74,11.74,11.76
36.33,9.84,-1.88,9.84,-1.88,1.87,1.88,2.54,11.71,11.71,11.72
36.70,9.86,-1.82,9.86,-1.82,1.81,1.84,2.47,11.67,11.67,11.68
37.06,9.88,-1.75,9.88,-1.75,1.75,1.81,2.41,11.63,11.63,11.63
37.43,9.89,-1.68,9.89,-1.68,1.70,1.78,2.34,11.59,11.59,11.57
37.81,9.90,-1.63,9.90,-1.63,1.65,1.75,2.28,11.55,11.55,11.53
38.19,9.92,-1.58,9.92,-1.59,1.61,1.71,2.21,11.53,11.53,11.50
38.57,9.93,-1.56,9.93,-1.56,1.58,1.68,2.15,11.52,11.52,11.49
38.95,9.95,-1.55,9.95,-1.55,1.57,1.65,2.08,11.52,11.52,11.51
39.34,9.97,-1.56,9.97,-1.56,1.56,1.62,2.01,11.53,11.53,11.53
39.74,10.00,-1.56,10.00,-1.56,1.55,1.58,1.95,11.55,11.55,11.56
40.14,10.02,-1.57,10.02,-1.57,1.55,1.55,1.88,11.57,11.57,11.59
40.54,10.04,-1.56,10.04,-1.56,1.54,1.52,1.82,11.58,11.58,11.61
40.94,10.06,-1.54,10.06,-1.54,1.53,1.49,1.75,11.59,11.59,11.61
41.35,10.08,-1.52,10.08,-1.52,1.50,1.45,1.69,11.58,11.58,11.60
41.76,10.09,-1.48,10.09,-1.48,1.48,1.42,1.63,11.57,11.57,11.57
42.18,10.10,-1.44,10.10,-1.44,1.44,1.39,1.56,11.55,11.55,11.54
42.60,10.11,-1.40,10.11,-1.40,1.41,1.36,1.50,11.52,11.52,11.51
43.03,10.12,-1.36,10.12,-1.36,1.38,1.33,1.44,11.50,11.50,11.48
43.46,10.13,-1.34,10.13,-1.34,1.35,1.30,1.38,11.48,11.48,11.47
43.90,10.14,-1.31,10.14,-1.32,1.32,1.26,1.32,11.46,11.46,11.46
44.33,10.15,-1.30,10.15,-1.30,1.29,1.23,1.27,11.44,11.44,11.45
44.78,10.16,-1.28,10.16,-1.28,1.27,1.20,1.21,11.43,11.43,11.43
45.23,10.17,-1.25,10.17,-1.25,1.24,1.17,1.16,11.41,11.41,11.42
45.68,10.17,-1.23,10.17,-1.23,1.22,1.14,1.10,11.39,11.39,11.40
46.13,10.18,-1.20,10.18,-1.20,1.20,1.11,1.05,11.38,11.38,11.38
46.60,10.19,-1.17,10.19,-1.17,1.18,1.07,1.00,11.37,11.37,11.36
47.06,10.20,-1.15,10.20,-1.15,1.15,1.04,0.95,11.35,11.35,11.35
47.53,10.21,-1.12,10.21,-1.12,1.14,1.01,0.90,11.35,11.35,11.33
48.01,10.22,-1.11,10.22,-1.11,1.12,0.98,0.85,11.34,11.34,11.33
48.49,10.22,-1.10,10.22,-1.10,1.10,0.95,0.80,11.32,11.32,11.32
48.97,10.22,-1.09,10.22,-1.09,1.09,0.92,0.75,11.31,11.31,11.31
49.46,10.22,-1.08,10.23,-1.08,1.07,0.89,0.71,11.29,11.29,11.31
49.96,10.23,-1.06,10.23,-1.06,1.04,0.86,0.66,11.28,11.28,11.29
50.46,10.24,-1.03,10.24,-1.03,1.02,0.83,0.62,11.26,11.26,11.27
50.96,10.26,-0.99,10.26,-0.99,0.99,0.80,0.57,11.24,11.24,11.24
51.47,10.27,-0.95,10.27,-0.95,0.95,0.77,0.53,11.22,11.22,11.22
51.99,10.28,-0.90,10.28,-0.90,0.91,0.74,0.49,11.19,11.19,11.19
52.51,10.29,-0.86,10.29,-0.86,0.86,0.71,0.45,11.15,11.15,11.15
53.03,10.30,-0.81,10.30,-0.81,0.81,0.68,0.41,11.11,11.11,11.11
53.56,10.30,-0.77,10.30,-0.77,0.77,0.65,0.37,11.07,11.07,11.07
54.10,10.30,-0.72,10.30,-0.72,0.72,0.62,0.33,11.03,11.03,11.02
54.64,10.31,-0.68,10.31,-0.68,0.68,0.59,0.29,10.99,10.99,10.99
55.18,10.32,-0.63,10.32,-0.63,0.64,0.56,0.25,10.96,10.95,10.95
55.74,10.32,-0.60,10.32,-0.60,0.60,0.53,0.22,10.92,10.92,10.92
56.29,10.33,-0.56,10.33,-0.56,0.57,0.50,0.18,10.89,10.89,10.89
56.86,10.33,-0.53,10.33,-0.54,0.54,0.47,0.15,10.87,10.87,10.86
57.42,10.33,-0.51,10.33,-0.51,0.51,0.44,0.12,10.84,10.84,10.84
58.00,10.34,-0.48,10.34,-0.48,0.48,0.41,0.09,10.82,10.82,10.82
58.58,10.35,-0.46,10.35,-0.46,0.45,0.39,0.05,10.80,10.80,10.81
59.16,10.36,-0.43,10.36,-0.43,0.43,0.36,0.02,10.78,10.78,10.79
59.76,10.37,-0.40,10.36,-0.40,0.40,0.33,-0.00,10.77,10.77,10.77
60.35,10.37,-0.37,10.37,-0.37,0.37,0.30,-0.03,10.74,10.74,10.74
60.96,10.37,-0.34,10.37,-0.34,0.34,0.27,-0.06,10.71,10.71,10.71
61.57,10.37,-0.31,10.37,-0.31,0.31,0.24,-0.09,10.68,10.68,10.68
62.18,10.36,-0.28,10.36,-0.28,0.28,0.21,-0.11,10.64,10.64,10.64
62.80,10.36,-0.25,10.36,-0.25,0.24,0.18,-0.14,10.60,10.60,10.61
63.43,10.36,-0.21,10.36,-0.21,0.21,0.16,-0.16,10.57,10.57,10.57
64.07,10.36,-0.18,10.36,-0.18,0.17,0.13,-0.18,10.53,10.53,10.53
64.71,10.36,-0.14,10.36,-0.14,0.14,0.10,-0.21,10.49,10.49,10.49
65.35,10.36,-0.10,10.36,-0.10,0.10,0.07,-0.23,10.46,10.46,10.45
66.01,10.35,-0.06,10.35,-0.06,0.07,0.04,-0.25,10.42,10.42,10.41
66.67,10.35,-0.03,10.35,-0.03,0.03,0.01,-0.27,10.38,10.38,10.38
67.33,10.34,-0.00,10.34,-0.00,0.00,-0.01,-0.29,10.34,10.34,10.34
68.01,10.33,0.02,10.33,0.02,-0.03,-0.04,-0.31,10.31,10.31,10.31
68.69,10.32,0.05,10.32,0.05,-0.05,-0.07,-0.33,10.27,10.27,10.27
69.37,10.32,0.08,10.32,0.08,-0.08,-0.10,-0.34,10.24,10.24,10.24
70.07,10.31,0.10,10.31,0.10,-0.10,-0.13,-0.36,10.21,10.21,10.21
70.77,10.30,0.13,10.30,0.13,-0.13,-0.16,-0.38,10.18,10.18,10.17
71.48,10.30,0.15,10.30,0.15,-0.15,-0.18,-0.40,10.14,10.14,10.14
72.19,10.29,0.18,10.29,0.18,-0.18,-0.21,-0.41,10.11,10.11,10.11
72.91,10.29,0.21,10.29,0.21,-0.22,-0.24,-0.43,10.07,10.07,10.08
73.64,10.29,0.24,10.29,0.24,-0.25,-0.27,-0.45,10.03,10.03,10.04
74.38,10.28,0.28,10.28,0.28,-0.29,-0.30,-0.47,10.00,10.00,10.00
75.12,10.28,0.32,10.28,0.32,-0.32,-0.32,-0.48,9.95,9.95,9.96
75.87,10.27,0.37,10.27,0.37,-0.36,-0.35,-0.50,9.91,9.91,9.91
76.63,10.26,0.41,10.26,0.40,-0.40,-0.38,-0.52,9.87,9.87,9.86
77.40,10.25,0.44,10.25,0.44,-0.43,-0.41,-0.54,9.82,9.82,9.81
78.17,10.24,0.47,10.24,0.47,-0.46,-0.44,-0.55,9.78,9.78,9.77
78.95,10.22,0.49,10.23,0.49,-0.49,-0.46,-0.57,9.74,9.74,9.73
79.74,10.21,0.51,10.21,0.51,-0.51,-0.49,-0.59,9.70,9.70,9.70
80.54,10.20,0.53,10.20,0.53,-0.54,-0.52,-0.61,9.66,9.66,9.67
81.35,10.19,0.55,10.19,0.55,-0.56,-0.55,-0.63,9.63,9.63,9.64
82.16,10.18,0.58,10.18,0.58,-0.58,-0.57,-0.65,9.60,9.60,9.60
82.98,10.17,0.60,10.17,0.60,-0.61,-0.60,-0.67,9.56,9.56,9.56
83.81,10.15,0.63,10.15,0.63,-0.64,-0.63,-0.69,9.52,9.52,9.52
84.65,10.14,0.67,10.14,0.67,-0.67,-0.66,-0.71,9.48,9.48,9.48
85.50,10.13,0.70,10.13,0.70,-0.70,-0.68,-0.74,9.43,9.43,9.43
86.35,10.13,0.74,10.13,0.74,-0.74,-0.71,-0.76,9.39,9.39,9.39
87.22,10.12,0.77,10.12,0.77,-0.78,-0.74,-0.78,9.34,9.35,9.35
88.09,10.12,0.81,10.12,0.81,-0.82,-0.77,-0.81,9.30,9.30,9.31
88.97,10.12,0.86,10.12,0.86,-0.86,-0.79,-0.83,9.26,9.26,9.26
89.86,10.11,0.90,10.11,0.90,-0.90,-0.82,-0.86,9.22,9.22,9.22
90.76,10.10,0.93,10.10,0.93,-0.93,-0.85,-0.89,9.17,9.17,9.17
91.66,10.08,0.97,10.08,0.97,-0.96,-0.88,-0.91,9.12,9.12,9.12
92.58,10.06,1.00,10.06,1.00,-0.99,-0.90,-0.94,9.07,9.07,9.07
93.51,10.03,1.02,10.03,1.02,-1.01,-0.93,-0.97,9.02,9.02,9.01
94.44,10.00,1.04,10.00,1.04,-1.03,-0.96,-1.00,8.97,8.97,8.96
95.39,9.96,1.05,9.95,1.05,-1.04,-0.98,-1.03,8.92,8.92,8.90
96.34,9.91,1.06,9.90,1.06,-1.05,-1.01,-1.06,8.86,8.86,8.85
97.30,9.85,1.06,9.85,1.06,-1.06,-1.04,-1.09,8.79,8.79,8.79
98.28,9.79,1.06,9.79,1.06,-1.08,-1.06,-1.12,8.71,8.71,8.73
99.26,9.75,1.08,9.75,1.08,-1.11,-1.09,-1.15,8.64,8.64,8.67
100.25,9.73,1.12,9.73,1.12,-1.15,-1.11,-1.18,8.58,8.58,8.61
101.25,9.73,1.18,9.73,1.18,-1.20,-1.14,-1.22,8.53,8.53,8.55
102.27,9.74,1.25,9.74,1.25,-1.26,-1.17,-1.25,8.48,8.48,8.49
103.29,9.75,1.33,9.75,1.32,-1.32,-1.19,-1.28,8.44,8.43,8.43
104.32,9.76,1.39,9.76,1.39,-1.38,-1.22,-1.31,8.39,8.38,8.37
105.37,9.76,1.44,9.76,1.44,-1.43,-1.24,-1.35,8.33,8.33,8.31
106.42,9.75,1.48,9.75,1.48,-1.47,-1.27,-1.38,8.28,8.28,8.27
107.48,9.73,1.51,9.73,1.51,-1.49,-1.29,-1.41,8.24,8.24,8.22
108.56,9.71,1.52,9.71,1.52,-1.50,-1.32,-1.44,8.21,8.21,8.19
109.64,9.68,1.51,9.68,1.51,-1.49,-1.34,-1.47,8.19,8.19,8.18
110.74,9.65,1.49,9.65,1.48,-1.48,-1.37,-1.50,8.17,8.17,8.17
111.85,9.62,1.45,9.62,1.45,-1.46,-1.39,-1.53,8.16,8.16,8.17
112.97,9.60,1.43,9.60,1.43,-1.44,-1.41,-1.56,8.16,8.16,8.17
114.10,9.57,1.40,9.58,1.40,-1.42,-1.44,-1.59,8.16,8.16,8.17
115.24,9.56,1.39,9.56,1.39,-1.40,-1.46,-1.61,8.16,8.16,8.17
116.39,9.54,1.39,9.54,1.39,-1.39,-1.48,-1.64,8.15,8.15,8.15
117.55,9.53,1.39,9.52,1.39,-1.39,-1.50,-1.66,8.13,8.13,8.13
118.73,9.50,1.40,9.50,1.40,-1.40,-1.53,-1.69,8.10,8.10,8.10
119.92,9.47,1.41,9.47,1.41,-1.41,-1.55,-1.70,8.06,8.06,8.06
121.12,9.45,1.43,9.45,1.43,-1.43,-1.57,-1.72,8.01,8.01,8.02
122.33,9.42,1.45,9.42,1.45,-1.45,-1.59,-1.74,7.96,7.96,7.96
123.55,9.39,1.48,9.39,1.48,-1.48,-1.61,-1.76,7.91,7.91,7.90
124.79,9.36,1.51,9.35,1.51,-1.50,-1.63,-1.77,7.85,7.85,7.84
126.03,9.32,1.54,9.32,1.54,-1.53,-1.65,-1.78,7.79,7.79,7.78
127.29,9.29,1.56,9.29,1.56,-1.56,-1.67,-1.79,7.72,7.73,7.73
128.57,9.25,1.59,9.25,1.59,-1.59,-1.69,-1.80,7.66,7.66,7.67
129.85,9.22,1.62,9.22,1.62,-1.62,-1.71,-1.80,7.60,7.60,7.61
131.15,9.20,1.65,9.20,1.65,-1.65,-1.73,-1.80,7.55,7.55,7.55
132.46,9.17,1.68,9.17,1.68,-1.68,-1.75,-1.81,7.49,7.49,7.49
133.79,9.14,1.71,9.14,1.71,-1.71,-1.77,-1.81,7.44,7.43,7.43
135.12,9.11,1.74,9.11,1.74,-1.73,-1.78,-1.81,7.38,7.38,7.37
136.48,9.08,1.76,9.08,1.76,-1.76,-1.80,-1.80,7.32,7.32,7.32
137.84,9.04,1.78,9.04,1.78,-1.79,-1.82,-1.80,7.26,7.26,7.26
139.22,9.00,1.81,9.00,1.81,-1.81,-1.83,-1.80,7.20,7.20,7.20
140.61,8.97,1.83,8.97,1.83,-1.83,-1.85,-1.79,7.14,7.14,7.14
142.02,8.93,1.84,8.93,1.85,-1.84,-1.87,-1.79,7.08,7.08,7.08
143.44,8.88,1.86,8.88,1.86,-1.85,-1.88,-1.78,7.03,7.03,7.02
144.87,8.84,1.87,8.84,1.87,-1.87,-1.90,-1.78,6.97,6.97,6.97
146.32,8.79,1.87,8.79,1.87,-1.87,-1.91,-1.77,6.91,6.91,6.92
147.78,8.74,1.88,8.74,1.88,-1.88,-1.92,-1.77,6.86,6.86,6.86
149.26,8.69,1.88,8.69,1.88,-1.88,-1.94,-1.76,6.81,6.81,6.81
150.75,8.64,1.89,8.64,1.89,-1.89,-1.95,-1.75,6.76,6.76,6.76
152.26,8.60,1.89,8.60,1.89,-1.89,-1.96,-1.75,6.71,6.71,6.71
153.78,8.56,1.89,8.56,1.89,-1.89,-1.98,-1.74,6.67,6.67,6.66
155.32,8.51,1.89,8.51,1.89,-1.88,-1.99,-1.74,6.63,6.63,6.62
156.88,8.46,1.89,8.46,1.88,-1.88,-2.00,-1.74,6.58,6.58,6.58
158.44,8.41,1.88,8.41,1.88,-1.88,-2.01,-1.74,6.53,6.53,6.53
160.03,8.37,1.88,8.37,1.88,-1.88,-2.02,-1.74,6.48,6.49,6.49
161.63,8.32,1.88,8.32,1.88,-1.89,-2.04,-1.74,6.44,6.44,6.44
163.24,8.29,1.89,8.29,1.89,-1.90,-2.05,-1.74,6.38,6.38,6.39
164.88,8.25,1.91,8.25,1.91,-1.92,-2.06,-1.74,6.33,6.33,6.34
166.53,8.23,1.94,8.23,1.94,-1.95,-2.07,-1.74,6.28,6.28,6.29
168.19,8.21,1.98,8.21,1.98,-1.98,-2.08,-1.75,6.23,6.23,6.23
169.87,8.20,2.02,8.20,2.02,-2.02,-2.08,-1.76,6.18,6.18,6.18
171.57,8.18,2.06,8.18,2.06,-2.06,-2.09,-1.76,6.12,6.12,6.12
173.29,8.17,2.11,8.17,2.11,-2.11,-2.10,-1.77,6.07,6.07,6.06
175.02,8.16,2.16,8.16,2.16,-2.15,-2.11,-1.78,6.01,6.01,6.00
176.77,8.14,2.20,8.14,2.20,-2.19,-2.12,-1.80,5.95,5.95,5.95
178.54,8.12,2.24,8.12,2.24,-2.23,-2.13,-1.81,5.89,5.89,5.89
180.32,8.10,2.27,8.10,2.27,-2.27,-2.13,-1.83,5.83,5.83,5.83
182.13,8.07,2.30,8.07,2.30,-2.30,-2.14,-1.84,5.77,5.77,5.77
183.95,8.04,2.33,8.04,2.33,-2.33,-2.15,-1.86,5.71,5.71,5.71
185.79,8.01,2.35,8.01,2.35,-2.35,-2.15,-1.88,5.66,5.66,5.66
187.65,7.98,2.37,7.97,2.37,-2.37,-2.16,-1.90,5.60,5.60,5.60
189.52,7.94,2.39,7.94,2.39,-2.38,-2.17,-1.92,5.55,5.55,5.55
191.42,7.89,2.40,7.89,2.40,-2.39,-2.17,-1.95,5.50,5.50,5.50
193.33,7.84,2.40,7.84,2.40,-2.39,-2.18,-1.97,5.45,5.45,5.45
195.27,7.79,2.39,7.79,2.39,-2.39,-2.18,-2.00,5.40,5.40,5.40
197.22,7.73,2.38,7.74,2.38,-2.38,-2.19,-2.02,5.35,5.35,5.36
199.19,7.68,2.36,7.68,2.36,-2.37,-2.19,-2.05,5.31,5.31,5.32
201.18,7.63,2.35,7.63,2.35,-2.35,-2.19,-2.08,5.28,5.28,5.28
203.19,7.59,2.33,7.59,2.33,-2.33,-2.20,-2.11,5.26,5.26,5.26
205.23,7.55,2.31,7.55,2.31,-2.31,-2.20,-2.14,5.24,5.24,5.24
207.28,7.50,2.29,7.50,2.29,-2.28,-2.20,-2.16,5.22,5.22,5.22
209.35,7.46,2.26,7.46,2.26,-2.26,-2.21,-2.19,5.20,5.20,5.20
211.44,7.41,2.24,7.41,2.24,-2.24,-2.21,-2.22,5.17,5.17,5.17
213.56,7.36,2.21,7.36,2.21,-2.22,-2.21,-2.25,5.14,5.14,5.15
215.69,7.31,2.19,7.31,2.19,-2.20,-2.21,-2.28,5.11,5.11,5.11
217.85,7.25,2.18,7.25,2.18,-2.19,-2.21,-2.31,5.07,5.07,5.07
220.03,7.20,2.17,7.20,2.17,-2.17,-2.21,-2.33,5.03,5.03,5.03
222.23,7.15,2.17,7.15,2.16,-2.17,-2.21,-2.36,4.98,4.98,4.98
224.45,7.10,2.16,7.10,2.16,-2.16,-2.21,-2.38,4.94,4.94,4.94
226.70,7.05,2.16,7.05,2.16,-2.16,-2.21,-2.40,4.89,4.89,4.89
228.96,7.00,2.16,7.00,2.16,-2.15,-2.21,-2.43,4.84,4.84,4.84
231.25,6.94,2.15,6.94,2.15,-2.15,-2.21,-2.44,4.79,4.79,4.79
233.57,6.89,2.15,6.89,2.15,-2.15,-2.21,-2.46,4.74,4.74,4.74
235.90,6.84,2.15,6.84,2.15,-2.14,-2.20,-2.47,4.69,4.69,4.69
238.26,6.78,2.14,6.78,2.14,-2.14,-2.20,-2.48,4.64,4.64,4.64
240.64,6.73,2.13,6.73,2.13,-2.13,-2.19,-2.48,4.59,4.59,4.59
243.05,6.67,2.13,6.67,2.13,-2.13,-2.19,-2.49,4.54,4.54,4.54
245.48,6.61,2.12,6.61,2.12,-2.12,-2.18,-2.49,4.50,4.50,4.50
247.93,6.56,2.11,6.56,2.11,-2.11,-2.17,-2.48,4.45,4.45,4.45
250.41,6.50,2.10,6.50,2.10,-2.10,-2.17,-2.48,4.40,4.40,4.40
252.92,6.44,2.09,6.44,2.09,-2.09,-2.16,-2.46,4.35,4.35,4.35
255.45,6.38,2.08,6.38,2.08,-2.08,-2.15,-2.45,4.30,4.30,4.31
258.00,6.32,2.07,6.32,2.07,-2.07,-2.14,-2.43,4.26,4.26,4.26
260.58,6.27,2.05,6.27,2.05,-2.05,-2.12,-2.41,4.21,4.21,4.21
263.19,6.21,2.04,6.21,2.04,-2.04,-2.11,-2.39,4.17,4.17,4.17
265.82,6.15,2.03,6.15,2.03,-2.03,-2.10,-2.36,4.12,4.12,4.12
268.48,6.09,2.01,6.09,2.01,-2.01,-2.09,-2.33,4.08,4.08,4.08
271.16,6.03,2.00,6.03,2.00,-2.00,-2.07,-2.29,4.04,4.04,4.04
273.87,5.97,1.98,5.97,1.98,-1.98,-2.05,-2.26,4.00,4.00,4.00
276.61,5.91,1.96,5.91,1.96,-1.96,-2.04,-2.22,3.95,3.95,3.95
279.38,5.85,1.94,5.85,1.94,-1.94,-2.02,-2.18,3.91,3.91,3.91
282.17,5.79,1.92,5.79,1.92,-1.93,-2.00,-2.13,3.86,3.86,3.86
284.99,5.73,1.91,5.73,1.91,-1.91,-1.98,-2.09,3.82,3.82,3.82
287.84,5.66,1.89,5.67,1.89,-1.89,-1.96,-2.04,3.78,3.78,3.78
290.72,5.60,1.87,5.60,1.87,-1.87,-1.94,-2.00,3.74,3.74,3.74
293.63,5.54,1.85,5.54,1.85,-1.84,-1.92,-1.95,3.70,3.70,3.69
296.57,5.48,1.82,5.48,1.82,-1.82,-1.89,-1.90,3.66,3.66,3.65
299.53,5.42,1.80,5.42,1.80,-1.80,-1.87,-1.85,3.62,3.62,3.62
302.53,5.35,1.78,5.35,1.78,-1.77,-1.84,-1.80,3.58,3.58,3.58
305.55,5.29,1.75,5.29,1.75,-1.75,-1.82,-1.75,3.54,3.54,3.54
308.61,5.22,1.72,5.22,1.72,-1.72,-1.79,-1.70,3.50,3.50,3.50
311.69,5.16,1.70,5.16,1.70,-1.70,-1.76,-1.65,3.46,3.46,3.46
314.81,5.09,1.67,5.09,1.67,-1.67,-1.73,-1.60,3.42,3.42,3.42
317.96,5.03,1.64,5.03,1.64,-1.64,-1.70,-1.55,3.39,3.39,3.39
321.14,4.97,1.62,4.97,1.62,-1.62,-1.67,-1.50,3.35,3.35,3.35
324.35,4.90,1.59,4.90,1.59,-1.59,-1.64,-1.46,3.31,3.31,3.31
327.59,4.84,1.57,4.84,1.57,-1.57,-1.61,-1.41,3.27,3.27,3.27
330.87,4.78,1.54,4.78,1.54,-1.54,-1.58,-1.36,3.24,3.24,3.24
334.18,4.71,1.51,4.71,1.51,-1.51,-1.54,-1.32,3.20,3.20,3.20
337.52,4.65,1.49,4.65,1.49,-1.49,-1.51,-1.27,3.17,3.17,3.17
340.90,4.59,1.46,4.59,1.46,-1.46,-1.48,-1.23,3.13,3.13,3.13
344.30,4.53,1.43,4.53,1.43,-1.43,-1.44,-1.18,3.10,3.10,3.10
347.75,4.47,1.41,4.47,1.41,-1.41,-1.41,-1.14,3.06,3.06,3.06
351.23,4.41,1.38,4.41,1.38,-1.38,-1.37,-1.10,3.03,3.03,3.03
354.74,4.35,1.35,4.35,1.35,-1.35,-1.33,-1.06,3.00,3.00,3.00
358.28,4.29,1.32,4.29,1.32,-1.32,-1.29,-1.02,2.97,2.97,2.97
361.87,4.22,1.29,4.22,1.29,-1.29,-1.26,-0.98,2.93,2.93,2.93
365.49,4.16,1.26,4.16,1.26,-1.26,-1.22,-0.94,2.90,2.90,2.90
369.14,4.09,1.22,4.09,1.22,-1.22,-1.18,-0.90,2.87,2.87,2.87
372.83,4.03,1.19,4.03,1.19,-1.19,-1.14,-0.87,2.84,2.84,2.84
376.56,3.96,1.15,3.96,1.15,-1.15,-1.10,-0.83,2.81,2.81,2.81
380.33,3.89,1.12,3.89,1.12,-1.12,-1.06,-0.80,2.78,2.78,2.78
384.13,3.82,1.08,3.82,1.08,-1.08,-1.02,-0.76,2.75,2.75,2.75
387.97,3.76,1.04,3.76,1.04,-1.04,-0.98,-0.73,2.72,2.72,2.72
391.85,3.69,1.00,3.69,1.00,-1.00,-0.94,-0.70,2.69,2.69,2.69
395.77,3.62,0.96,3.62,0.96,-0.96,-0.90,-0.67,2.66,2.66,2.66
399.73,3.55,0.92,3.55,0.92,-0.92,-0.86,-0.63,2.63,2.63,2.63
403.72,3.48,0.88,3.48,0.88,-0.88,-0.82,-0.60,2.60,2.60,2.60
407.76,3.41,0.84,3.41,0.84,-0.84,-0.77,-0.57,2.57,2.57,2.57
411.84,3.34,0.79,3.34,0.79,-0.79,-0.73,-0.54,2.55,2.55,2.55
415.96,3.27,0.75,3.27,0.75,-0.75,-0.69,-0.51,2.52,2.52,2.52
420.12,3.20,0.71,3.20,0.71,-0.71,-0.64,-0.48,2.50,2.50,2.49
424.32,3.13,0.66,3.13,0.66,-0.66,-0.60,-0.46,2.47,2.47,2.47
428.56,3.06,0.62,3.06,0.62,-0.62,-0.56,-0.43,2.45,2.45,2.44
432.85,2.99,0.57,2.99,0.57,-0.57,-0.51,-0.40,2.42,2.42,2.42
437.18,2.92,0.52,2.92,0.52,-0.52,-0.47,-0.37,2.39,2.39,2.39
441.55,2.85,0.48,2.85,0.48,-0.48,-0.43,-0.34,2.37,2.37,2.37
445.96,2.78,0.43,2.78,0.43,-0.43,-0.38,-0.31,2.35,2.35,2.35
450.42,2.71,0.38,2.71,0.38,-0.38,-0.34,-0.28,2.32,2.32,2.33
454.93,2.64,0.33,2.64,0.33,-0.33,-0.29,-0.26,2.30,2.30,2.30
459.48,2.57,0.29,2.57,0.29,-0.28,-0.24,-0.23,2.28,2.28,2.28
464.07,2.50,0.24,2.50,0.24,-0.23,-0.20,-0.20,2.26,2.26,2.26
468.71,2.43,0.19,2.42,0.19,-0.18,-0.15,-0.17,2.24,2.24,2.24
473.40,2.35,0.13,2.35,0.13,-0.13,-0.10,-0.14,2.22,2.22,2.22
478.13,2.28,0.08,2.28,0.08,-0.08,-0.06,-0.11,2.20,2.20,2.20
482.91,2.21,0.02,2.21,0.02,-0.03,-0.01,-0.08,2.18,2.18,2.18
487.74,2.13,-0.03,2.13,-0.03,0.03,0.04,-0.05,2.16,2.16,2.16
492.62,2.06,-0.08,2.06,-0.08,0.08,0.09,-0.01,2.14,2.14,2.15
497.55,1.99,-0.14,1.99,-0.14,0.14,0.14,0.02,2.13,2.13,2.13
502.52,1.92,-0.19,1.92,-0.19,0.19,0.19,0.05,2.11,2.11,2.11
507.55,1.85,-0.24,1.85,-0.24,0.24,0.24,0.09,2.10,2.10,2.10
