frequency,raw,error,smoothed,error_smoothed,equalization,parametric_eq,fixed_band_eq,equalized_raw,equalized_smoothed,target
20.00,8.97,-1.40,8.97,-1.42,1.40,1.31,1.06,10.37,10.37,10.37
20.20,8.90,-1.47,8.89,-1.46,1.46,1.34,1.09,10.35,10.35,10.37
20.40,8.83,-1.51,8.82,-1.49,1.51,1.37,1.13,10.33,10.33,10.34
20.61,8.76,-1.51,8.76,-1.53,1.55,1.40,1.16,10.31,10.31,10.27
20.81,8.70,-1.57,8.70,-1.57,1.59,1.44,1.19,10.29,10.29,10.27
21.02,8.65,-1.62,8.65,-1.62,1.62,1.47,1.23,10.27,10.27,10.27
21.23,8.60,-1.67,8.61,-1.66,1.65,1.50,1.26,10.25,10.25,10.27
21.44,8.58,-1.69,8.58,-1.69,1.67,1.54,1.30,10.25,10.25,10.27
21.66,8.57,-1.70,8.57,-1.70,1.68,1.57,1.33,10.25,10.25,10.27
21.87,8.57,-1.70,8.57,-1.70,1.69,1.60,1.37,10.26,10.26,10.27
22.09,8.58,-1.69,8.58,-1.68,1.69,1.64,1.41,10.27,10.27,10.27
22.31,8.60,-1.67,8.60,-1.67,1.68,1.67,1.45,10.29,10.29,10.27
22.54,8.63,-1.65,8.63,-1.67,1.67,1.71,1.49,10.30,10.30,10.28
22.76,8.66,-1.69,8.67,-1.67,1.66,1.75,1.54,10.32,10.32,10.36
22.99,8.70,-1.67,8.70,-1.66,1.65,1.78,1.58,10.35,10.35,10.37
23.22,8.72,-1.65,8.72,-1.65,1.66,1.82,1.62,10.38,10.38,10.37
23.45,8.74,-1.63,8.74,-1.65,1.67,1.85,1.67,10.41,10.41,10.37
23.69,8.75,-1.68,8.75,-1.67,1.70,1.89,1.72,10.45,10.45,10.43
23.92,8.74,-1.73,8.74,-1.72,1.74,1.93,1.76,10.48,10.48,10.47
24.16,8.72,-1.75,8.72,-1.78,1.79,1.96,1.81,10.51,10.50,10.47
24.40,8.68,-1.86,8.68,-1.85,1.85,2.00,1.86,10.53,10.53,10.54
24.65,8.63,-1.94,8.63,-1.93,1.92,2.04,1.91,10.54,10.54,10.57
24.89,8.57,-2.00,8.57,-2.01,1.99,2.07,1.96,10.56,10.56,10.57
25.14,8.50,-2.07,8.50,-2.07,2.07,2.11,2.01,10.57,10.57,10.57
25.39,8.43,-2.14,8.43,-2.14,2.14,2.14,2.06,10.57,10.57,10.57
25.65,8.37,-2.20,8.37,-2.20,2.21,2.18,2.11,10.58,10.58,10.57
25.91,8.30,-2.27,8.30,-2.27,2.27,2.21,2.17,10.57,10.57,10.57
26.16,8.24,-2.33,8.25,-2.32,2.32,2.25,2.22,10.57,10.57,10.57
26.43,8.19,-2.38,8.19,-2.38,2.36,2.28,2.27,10.56,10.56,10.57
26.69,8.15,-2.42,8.15,-2.43,2.40,2.31,2.32,10.55,10.55,10.57
26.96,8.11,-2.46,8.11,-2.45,2.43,2.34,2.37,10.54,10.54,10.57
27.23,8.07,-2.49,8.07,-2.46,2.46,2.37,2.42,10.53,10.53,10.56
27.50,8.03,-2.44,8.03,-2.47,2.49,2.40,2.47,10.52,10.52,10.47
27.77,7.99,-2.48,7.99,-2.48,2.52,2.43,2.52,10.51,10.51,10.47
28.05,7.95,-2.52,7.95,-2.52,2.55,2.45,2.56,10.50,10.50,10.47
28.33,7.90,-2.57,7.90,-2.57,2.59,2.48,2.61,10.49,10.49,10.47
28.62,7.85,-2.61,7.85,-2.62,2.62,2.50,2.65,10.47,10.47,10.47
28.90,7.81,-2.66,7.81,-2.66,2.65,2.53,2.69,10.46,10.46,10.47
29.19,7.78,-2.69,7.78,-2.69,2.67,2.55,2.73,10.45,10.45,10.47
29.48,7.76,-2.71,7.76,-2.72,2.68,2.57,2.77,10.43,10.44,10.47
29.78,7.75,-2.72,7.75,-2.71,2.68,2.59,2.80,10.43,10.43,10.47
30.08,7.76,-2.69,7.76,-2.68,2.66,2.61,2.83,10.42,10.42,10.45
30.38,7.78,-2.62,7.78,-2.63,2.63,2.63,2.86,10.41,10.41,10.39
30.68,7.80,-2.57,7.80,-2.59,2.60,2.64,2.89,10.40,10.40,10.37
30.99,7.82,-2.55,7.82,-2.55,2.56,2.66,2.91,10.38,10.38,10.37
31.30,7.82,-2.55,7.82,-2.53,2.54,2.67,2.93,10.36,10.36,10.37
31.61,7.82,-2.50,7.81,-2.50,2.52,2.69,2.94,10.34,10.33,10.32
31.93,7.79,-2.48,7.79,-2.50,2.52,2.70,2.96,10.31,10.31,10.27
32.24,7.76,-2.51,7.76,-2.51,2.53,2.71,2.97,10.29,10.29,10.27
32.57,7.72,-2.55,7.72,-2.55,2.56,2.73,2.98,10.27,10.27,10.27
32.89,7.67,-2.60,7.67,-2.60,2.59,2.74,2.98,10.26,10.26,10.27
33.22,7.63,-2.64,7.63,-2.64,2.63,2.75,2.98,10.26,10.26,10.27
33.55,7.58,-2.69,7.58,-2.69,2.67,2.76,2.99,10.26,10.26,10.27
33.89,7.54,-2.73,7.54,-2.73,2.72,2.78,2.98,10.26,10.26,10.27
34.23,7.51,-2.76,7.51,-2.76,2.76,2.79,2.98,10.27,10.27,10.27
34.57,7.47,-2.79,7.47,-2.80,2.80,2.80,2.98,10.27,10.27,10.27
34.92,7.44,-2.83,7.44,-2.83,2.83,2.81,2.97,10.27,10.27,10.27
35.27,7.41,-2.86,7.41,-2.86,2.86,2.83,2.96,10.27,10.27,10.27
35.62,7.38,-2.89,7.38,-2.89,2.88,2.84,2.95,10.26,10.26,10.27
35.97,7.36,-2.91,7.36,-2.91,2.90,2.86,2.95,10.26,10.26,10.27
36.33,7.34,-2.93,7.34,-2.93,2.92,2.87,2.94,10.26,10.26,10.27
36.70,7.32,-2.95,7.32,-2.95,2.94,2.89,2.93,10.27,10.27,10.27
37.06,7.31,-2.96,7.31,-2.95,2.97,2.91,2.92,10.28,10.28,10.27
37.43,7.31,-2.96,7.31,-2.96,2.99,2.92,2.91,10.30,10.30,10.27
37.81,7.30,-2.97,7.30,-2.99,3.01,2.94,2.90,10.31,10.32,10.27
38.19,7.29,-3.03,7.29,-3.04,3.03,2.96,2.90,10.33,10.33,10.33
38.57,7.28,-3.09,7.28,-3.08,3.05,2.98,2.89,10.33,10.33,10.37
38.95,7.25,-3.12,7.25,-3.10,3.07,3.01,2.88,10.32,10.32,10.37
39.34,7.22,-3.08,7.22,-3.11,3.08,3.03,2.88,10.30,10.30,10.30
39.74,7.18,-3.09,7.18,-3.10,3.09,3.05,2.88,10.27,10.27,10.27
40.14,7.14,-3.12,7.14,-3.09,3.10,3.08,2.88,10.24,10.25,10.26
40.54,7.11,-3.09,7.11,-3.10,3.11,3.11,2.88,10.22,10.22,10.20
40.94,7.08,-3.09,7.08,-3.10,3.12,3.13,2.88,10.20,10.20,10.17
41.35,7.05,-3.12,7.05,-3.12,3.14,3.16,2.89,10.19,10.19,10.17
41.76,7.02,-3.15,7.01,-3.15,3.17,3.19,2.89,10.18,10.18,10.17
42.18,6.98,-3.19,6.98,-3.19,3.20,3.22,2.90,10.18,10.18,10.17
42.60,6.93,-3.24,6.93,-3.24,3.24,3.25,2.91,10.17,10.17,10.17
43.03,6.89,-3.28,6.89,-3.29,3.27,3.27,2.93,10.16,10.16,10.17
43.46,6.84,-3.33,6.84,-3.33,3.30,3.30,2.94,10.14,10.14,10.17
43.90,6.78,-3.36,6.78,-3.35,3.33,3.33,2.96,10.11,10.11,10.14
44.33,6.72,-3.36,6.72,-3.36,3.35,3.36,2.98,10.07,10.07,10.08
44.78,6.66,-3.35,6.66,-3.37,3.37,3.38,3.00,10.03,10.03,10.01
45.23,6.59,-3.37,6.60,-3.38,3.39,3.41,3.03,9.99,9.99,9.97
45.68,6.54,-3.43,6.54,-3.40,3.41,3.43,3.05,9.95,9.95,9.97
46.13,6.48,-3.41,6.48,-3.42,3.44,3.45,3.08,9.92,9.92,9.90
46.60,6.43,-3.44,6.43,-3.45,3.46,3.47,3.12,9.90,9.90,9.87
47.06,6.38,-3.48,6.38,-3.48,3.50,3.49,3.15,9.88,9.88,9.87
47.53,6.34,-3.53,6.34,-3.53,3.53,3.50,3.18,9.87,9.87,9.87
48.01,6.30,-3.57,6.30,-3.58,3.56,3.51,3.22,9.86,9.86,9.87
48.49,6.26,-3.61,6.26,-3.62,3.59,3.53,3.26,9.85,9.85,9.87
48.97,6.22,-3.65,6.22,-3.63,3.61,3.53,3.30,9.83,9.83,9.87
49.46,6.18,-3.64,6.18,-3.64,3.64,3.54,3.35,9.82,9.82,9.82
49.96,6.14,-3.62,6.14,-3.65,3.65,3.55,3.39,9.80,9.80,9.77
50.46,6.10,-3.67,6.10,-3.64,3.67,3.55,3.44,9.77,9.77,9.77
50.96,6.06,-3.65,6.06,-3.66,3.67,3.56,3.48,9.73,9.73,9.71
51.47,6.02,-3.65,6.02,-3.67,3.67,3.56,3.53,9.69,9.69,9.67
51.99,5.97,-3.70,5.97,-3.68,3.66,3.57,3.58,9.64,9.64,9.67
52.51,5.93,-3.68,5.93,-3.68,3.65,3.57,3.63,9.58,9.58,9.61
53.03,5.88,-3.66,5.88,-3.66,3.64,3.57,3.68,9.52,9.52,9.54
53.56,5.84,-3.63,5.84,-3.63,3.62,3.58,3.73,9.46,9.46,9.46
54.10,5.79,-3.60,5.80,-3.60,3.61,3.58,3.77,9.40,9.40,9.40
54.64,5.75,-3.57,5.75,-3.57,3.59,3.59,3.82,9.35,9.35,9.33
55.18,5.71,-3.55,5.71,-3.55,3.58,3.59,3.87,9.29,9.29,9.26
55.74,5.66,-3.53,5.66,-3.55,3.57,3.60,3.91,9.23,9.23,9.19
56.29,5.61,-3.56,5.61,-3.56,3.56,3.61,3.96,9.17,9.17,9.17
56.86,5.55,-3.60,5.56,-3.58,3.56,3.61,4.00,9.11,9.11,9.15
57.42,5.50,-3.58,5.50,-3.58,3.55,3.62,4.04,9.05,9.05,9.08
58.00,5.44,-3.57,5.45,-3.57,3.55,3.63,4.07,8.99,8.99,9.01
58.58,5.39,-3.55,5.39,-3.55,3.54,3.64,4.11,8.93,8.93,8.95
59.16,5.34,-3.53,5.34,-3.54,3.53,3.65,4.14,8.87,8.87,8.87
59.76,5.29,-3.52,5.29,-3.51,3.52,3.66,4.16,8.81,8.81,8.81
60.35,5.24,-3.50,5.24,-3.50,3.52,3.67,4.18,8.76,8.76,8.74
60.96,5.19,-3.48,5.19,-3.50,3.53,3.69,4.20,8.72,8.72,8.67
61.57,5.14,-3.53,5.14,-3.53,3.55,3.70,4.22,8.69,8.69,8.67
62.18,5.09,-3.58,5.09,-3.57,3.58,3.71,4.22,8.67,8.67,8.67
62.80,5.04,-3.63,5.04,-3.63,3.62,3.73,4.23,8.66,8.66,8.67
63.43,4.99,-3.68,4.99,-3.68,3.66,3.74,4.23,8.66,8.66,8.67
64.07,4.94,-3.73,4.94,-3.73,3.71,3.76,4.23,8.66,8.66,8.67
64.71,4.90,-3.77,4.90,-3.77,3.77,3.77,4.22,8.67,8.67,8.67
65.35,4.85,-3.82,4.85,-3.82,3.83,3.79,4.21,8.67,8.67,8.67
66.01,4.80,-3.87,4.80,-3.87,3.88,3.80,4.19,8.68,8.68,8.67
66.67,4.75,-3.92,4.75,-3.92,3.93,3.82,4.17,8.68,8.68,8.67
67.33,4.70,-3.97,4.70,-3.97,3.98,3.83,4.15,8.68,8.68,8.67
68.01,4.65,-4.02,4.65,-4.03,4.02,3.85,4.12,8.66,8.66,8.67
68.69,4.60,-4.07,4.60,-4.08,4.05,3.87,4.10,8.65,8.65,8.67
69.37,4.55,-4.12,4.55,-4.10,4.08,3.88,4.07,8.63,8.63,8.67
70.07,4.50,-4.10,4.50,-4.10,4.10,3.90,4.03,8.60,8.60,8.60
70.77,4.45,-4.08,4.45,-4.09,4.11,3.92,4.00,8.56,8.56,8.54
71.48,4.40,-4.07,4.40,-4.09,4.11,3.93,3.96,8.52,8.52,8.47
72.19,4.35,-4.12,4.35,-4.10,4.11,3.95,3.93,8.46,8.46,8.47
72.91,4.30,-4.12,4.30,-4.11,4.10,3.96,3.89,8.41,8.41,8.43
73.64,4.26,-4.10,4.26,-4.11,4.09,3.98,3.85,8.35,8.35,8.36
74.38,4.21,-4.08,4.21,-4.08,4.08,3.99,3.82,8.29,8.29,8.29
75.12,4.16,-4.06,4.16,-4.06,4.06,4.01,3.78,8.23,8.23,8.22
75.87,4.11,-4.04,4.11,-4.04,4.05,4.02,3.74,8.16,8.16,8.15
76.63,4.06,-4.02,4.06,-4.02,4.03,4.03,3.71,8.09,8.09,8.08
77.40,4.01,-4.00,4.01,-4.00,4.01,4.05,3.67,8.02,8.02,8.02
78.17,3.96,-3.99,3.96,-3.99,3.99,4.06,3.64,7.95,7.95,7.95
78.95,3.91,-3.98,3.91,-3.97,3.96,4.07,3.61,7.87,7.87,7.88
79.74,3.86,-3.95,3.86,-3.95,3.94,4.08,3.58,7.80,7.80,7.81
80.54,3.81,-3.93,3.81,-3.94,3.92,4.09,3.55,7.73,7.73,7.74
81.35,3.76,-3.92,3.76,-3.92,3.91,4.10,3.52,7.67,7.67,7.67
82.16,3.71,-3.90,3.71,-3.89,3.91,4.11,3.50,7.62,7.62,7.61
82.98,3.66,-3.88,3.66,-3.88,3.91,4.12,3.48,7.57,7.57,7.54
83.81,3.60,-3.87,3.60,-3.89,3.92,4.13,3.46,7.53,7.53,7.47
84.65,3.55,-3.92,3.55,-3.93,3.94,4.13,3.44,7.48,7.48,7.47
85.50,3.49,-3.98,3.49,-3.97,3.95,4.14,3.43,7.44,7.44,7.47
86.35,3.43,-4.03,3.43,-4.01,3.97,4.14,3.42,7.40,7.40,7.46
87.22,3.37,-4.02,3.37,-4.02,3.99,4.15,3.41,7.36,7.36,7.39
88.09,3.31,-4.01,3.31,-4.01,4.01,4.15,3.40,7.32,7.32,7.32
88.97,3.25,-4.00,3.24,-4.00,4.03,4.15,3.40,7.28,7.27,7.25
89.86,3.18,-4.00,3.19,-4.01,4.04,4.15,3.40,7.22,7.22,7.18
90.76,3.13,-4.04,3.14,-4.04,4.04,4.15,3.40,7.17,7.18,7.17
91.66,3.10,-4.07,3.10,-4.07,4.04,4.15,3.40,7.14,7.14,7.17
92.58,3.07,-4.10,3.07,-4.08,4.04,4.15,3.41,7.11,7.11,7.17
93.51,3.04,-4.07,3.04,-4.07,4.06,4.15,3.42,7.10,7.10,7.11
94.44,2.99,-4.04,2.99,-4.05,4.08,4.15,3.43,7.08,7.08,7.04
95.39,2.93,-4.04,2.93,-4.06,4.11,4.14,3.44,7.05,7.04,6.97
96.34,2.86,-4.11,2.85,-4.10,4.14,4.14,3.46,7.00,6.99,6.97
97.30,2.76,-4.17,2.76,-4.16,4.17,4.13,3.48,6.93,6.93,6.93
98.28,2.67,-4.20,2.67,-4.22,4.19,4.12,3.50,6.86,6.87,6.87
99.26,2.59,-4.28,2.60,-4.26,4.22,4.11,3.52,6.81,6.82,6.87
100.25,2.54,-4.29,2.54,-4.27,4.25,4.10,3.54,6.79,6.79,6.82
101.25,2.50,-4.25,2.50,-4.26,4.27,4.09,3.57,6.77,6.76,6.76
102.27,2.47,-4.24,2.47,-4.25,4.26,4.08,3.60,6.73,6.73,6.71
103.29,2.44,-4.23,2.44,-4.24,4.24,4.07,3.62,6.68,6.68,6.67
104.32,2.41,-4.25,2.41,-4.24,4.21,4.06,3.65,6.62,6.62,6.65
105.37,2.38,-4.22,2.38,-4.20,4.17,4.04,3.68,6.55,6.55,6.60
106.42,2.35,-4.14,2.34,-4.14,4.12,4.03,3.71,6.47,6.47,6.49
107.48,2.31,-4.04,2.31,-4.07,4.08,4.01,3.74,6.39,6.38,6.35
108.56,2.27,-4.03,2.27,-4.01,4.04,3.99,3.77,6.30,6.31,6.29
109.64,2.23,-3.97,2.23,-3.99,4.01,3.98,3.80,6.24,6.24,6.21
110.74,2.20,-3.97,2.21,-3.97,3.98,3.96,3.83,6.19,6.19,6.17
111.85,2.18,-3.99,2.18,-3.95,3.98,3.94,3.85,6.16,6.16,6.17
112.97,2.14,-3.93,2.14,-3.96,3.98,3.91,3.88,6.13,6.13,6.07
114.10,2.10,-3.97,2.09,-3.99,4.00,3.89,3.90,6.10,6.09,6.07
115.24,2.02,-4.04,2.02,-4.02,4.02,3.87,3.92,6.04,6.04,6.06
116.39,1.93,-4.07,1.93,-4.07,4.05,3.85,3.94,5.97,5.98,6.00
117.55,1.83,-4.08,1.84,-4.08,4.06,3.82,3.95,5.90,5.90,5.91
118.73,1.76,-4.08,1.76,-4.09,4.07,3.80,3.96,5.83,5.83,5.83
119.92,1.69,-4.08,1.69,-4.08,4.06,3.77,3.97,5.76,5.76,5.77
121.12,1.65,-4.07,1.65,-4.06,4.04,3.75,3.98,5.69,5.69,5.71
122.33,1.63,-4.02,1.63,-4.02,4.00,3.72,3.98,5.63,5.63,5.65
123.55,1.62,-3.97,1.62,-3.96,3.95,3.69,3.97,5.57,5.57,5.59
124.79,1.61,-3.88,1.61,-3.89,3.90,3.66,3.97,5.51,5.51,5.49
126.03,1.60,-3.82,1.60,-3.82,3.84,3.63,3.96,5.44,5.44,5.42
127.29,1.58,-3.77,1.58,-3.77,3.80,3.60,3.94,5.38,5.38,5.35
128.57,1.55,-3.74,1.55,-3.74,3.76,3.58,3.92,5.32,5.32,5.29
129.85,1.51,-3.71,1.52,-3.71,3.74,3.54,3.89,5.25,5.26,5.23
131.15,1.48,-3.69,1.47,-3.69,3.73,3.51,3.87,5.20,5.20,5.16
132.46,1.42,-3.68,1.41,-3.69,3.71,3.48,3.84,5.13,5.12,5.10
133.79,1.34,-3.69,1.34,-3.69,3.69,3.45,3.80,5.03,5.03,5.03
135.12,1.27,-3.69,1.27,-3.69,3.65,3.42,3.76,4.92,4.92,4.96
136.48,1.23,-3.67,1.23,-3.65,3.58,3.39,3.73,4.81,4.81,4.90
137.84,1.21,-3.57,1.22,-3.56,3.49,3.35,3.68,4.70,4.71,4.79
139.22,1.25,-3.41,1.25,-3.43,3.37,3.32,3.64,4.63,4.63,4.66
140.61,1.31,-3.28,1.31,-3.26,3.25,3.29,3.59,4.56,4.56,4.59
142.02,1.38,-3.09,1.38,-3.08,3.12,3.25,3.54,4.50,4.49,4.47
143.44,1.44,-2.91,1.44,-2.93,2.99,3.22,3.49,4.43,4.42,4.35
144.87,1.48,-2.80,1.47,-2.80,2.88,3.18,3.44,4.35,4.35,4.28
146.32,1.48,-2.72,1.48,-2.73,2.79,3.15,3.39,4.26,4.27,4.20
147.78,1.47,-2.70,1.47,-2.70,2.72,3.12,3.33,4.19,4.19,4.17
149.26,1.44,-2.71,1.44,-2.69,2.67,3.08,3.28,4.12,4.12,4.16
150.75,1.41,-2.68,1.41,-2.68,2.65,3.05,3.23,4.06,4.06,4.08
152.26,1.36,-2.66,1.36,-2.67,2.64,3.01,3.18,4.01,4.01,4.03
153.78,1.31,-2.67,1.31,-2.65,2.65,2.98,3.13,3.96,3.96,3.98
155.32,1.26,-2.65,1.26,-2.64,2.65,2.95,3.08,3.91,3.91,3.90
156.88,1.20,-2.63,1.20,-2.64,2.66,2.91,3.03,3.86,3.86,3.83
158.44,1.14,-2.63,1.14,-2.64,2.66,2.88,2.98,3.80,3.80,3.77
160.03,1.09,-2.68,1.09,-2.66,2.65,2.84,2.93,3.74,3.74,3.77
161.63,1.04,-2.67,1.04,-2.67,2.64,2.81,2.89,3.68,3.68,3.72
163.24,1.00,-2.66,1.00,-2.66,2.63,2.78,2.84,3.63,3.63,3.66
164.88,0.95,-2.62,0.95,-2.63,2.62,2.75,2.80,3.57,3.57,3.58
166.53,0.91,-2.61,0.91,-2.61,2.60,2.72,2.76,3.51,3.51,3.52
168.19,0.87,-2.59,0.87,-2.58,2.58,2.68,2.72,3.45,3.45,3.46
169.87,0.83,-2.55,0.83,-2.55,2.57,2.65,2.69,3.40,3.40,3.38
171.57,0.79,-2.51,0.78,-2.53,2.56,2.62,2.65,3.35,3.35,3.29
173.29,0.74,-2.53,0.74,-2.53,2.56,2.59,2.62,3.30,3.30,3.27
175.02,0.70,-2.57,0.70,-2.56,2.57,2.56,2.59,3.27,3.27,3.27
176.77,0.66,-2.61,0.66,-2.58,2.57,2.54,2.56,3.24,3.24,3.27
178.54,0.63,-2.59,0.63,-2.60,2.58,2.51,2.53,3.21,3.21,3.22
180.32,0.59,-2.58,0.59,-2.61,2.59,2.48,2.51,3.17,3.17,3.17
182.13,0.55,-2.62,0.55,-2.60,2.59,2.46,2.49,3.14,3.14,3.17
183.95,0.51,-2.61,0.51,-2.60,2.58,2.43,2.46,3.10,3.10,3.12
185.79,0.48,-2.57,0.48,-2.58,2.58,2.41,2.45,3.05,3.05,3.04
187.65,0.44,-2.54,0.44,-2.54,2.56,2.38,2.43,3.00,3.00,2.98
189.52,0.40,-2.52,0.40,-2.52,2.55,2.36,2.41,2.95,2.95,2.92
191.42,0.37,-2.50,0.37,-2.52,2.53,2.34,2.40,2.90,2.90,2.87
193.33,0.33,-2.54,0.33,-2.51,2.51,2.32,2.39,2.84,2.84,2.87
195.27,0.30,-2.51,0.30,-2.50,2.49,2.30,2.38,2.79,2.78,2.81
197.22,0.26,-2.47,0.26,-2.48,2.46,2.29,2.37,2.72,2.72,2.73
199.19,0.22,-2.44,0.22,-2.44,2.43,2.27,2.36,2.65,2.66,2.66
201.18,0.19,-2.41,0.19,-2.41,2.40,2.25,2.35,2.59,2.59,2.60
203.19,0.16,-2.37,0.16,-2.37,2.37,2.24,2.35,2.53,2.53,2.53
205.23,0.14,-2.32,0.14,-2.32,2.34,2.23,2.34,2.47,2.47,2.46
207.28,0.11,-2.28,0.11,-2.27,2.29,2.22,2.34,2.41,2.41,2.39
209.35,0.09,-2.24,0.09,-2.25,2.25,2.21,2.34,2.34,2.34,2.32
211.44,0.06,-2.21,0.06,-2.23,2.21,2.19,2.33,2.27,2.27,2.27
213.56,0.03,-2.24,0.03,-2.20,2.17,2.19,2.33,2.21,2.21,2.27
215.69,0.00,-2.15,0.00,-2.14,2.14,2.18,2.33,2.14,2.14,2.16
217.85,-0.03,-2.07,-0.03,-2.09,2.11,2.17,2.32,2.08,2.08,2.04
220.03,-0.06,-2.03,-0.06,-2.05,2.08,2.16,2.32,2.02,2.02,1.97
222.23,-0.09,-2.06,-0.09,-2.05,2.05,2.15,2.31,1.97,1.97,1.97
224.45,-0.12,-2.07,-0.12,-2.04,2.03,2.14,2.31,1.92,1.92,1.95
226.70,-0.15,-2.03,-0.15,-2.02,2.01,2.13,2.30,1.87,1.87,1.88
228.96,-0.18,-1.98,-0.18,-2.00,2.01,2.12,2.29,1.83,1.83,1.80
231.25,-0.21,-1.98,-0.21,-1.99,2.00,2.11,2.28,1.79,1.79,1.77
233.57,-0.24,-2.01,-0.24,-1.98,2.00,2.10,2.27,1.76,1.76,1.77
235.90,-0.27,-1.98,-0.27,-1.99,1.99,2.08,2.25,1.72,1.72,1.71
238.26,-0.30,-1.97,-0.30,-1.98,1.97,2.06,2.24,1.67,1.67,1.67
240.64,-0.33,-1.98,-0.33,-1.97,1.95,2.04,2.22,1.62,1.62,1.65
243.05,-0.36,-1.96,-0.36,-1.96,1.92,2.01,2.20,1.56,1.55,1.59
245.48,-0.40,-1.92,-0.40,-1.91,1.88,1.98,2.17,1.49,1.49,1.52
247.93,-0.43,-1.86,-0.43,-1.85,1.85,1.95,2.14,1.41,1.41,1.42
250.41,-0.47,-1.77,-0.47,-1.79,1.81,1.91,2.11,1.34,1.34,1.30
252.92,-0.51,-1.73,-0.51,-1.73,1.77,1.86,2.08,1.26,1.26,1.22
255.45,-0.55,-1.70,-0.55,-1.69,1.74,1.81,2.04,1.19,1.19,1.15
258.00,-0.59,-1.66,-0.59,-1.69,1.71,1.76,2.00,1.12,1.12,1.07
260.58,-0.62,-1.69,-0.62,-1.68,1.68,1.70,1.96,1.06,1.06,1.07
263.19,-0.65,-1.69,-0.65,-1.67,1.66,1.64,1.91,1.01,1.01,1.04
265.82,-0.67,-1.64,-0.67,-1.64,1.62,1.58,1.86,0.95,0.95,0.97
268.48,-0.68,-1.58,-0.67,-1.60,1.58,1.51,1.81,0.90,0.90,0.91
271.16,-0.66,-1.53,-0.66,-1.54,1.52,1.44,1.76,0.85,0.86,0.87
273.87,-0.62,-1.49,-0.62,-1.47,1.44,1.36,1.70,0.82,0.82,0.87
276.61,-0.57,-1.38,-0.57,-1.36,1.35,1.29,1.64,0.78,0.78,0.80
279.38,-0.50,-1.23,-0.50,-1.24,1.24,1.21,1.58,0.74,0.74,0.74
282.17,-0.42,-1.09,-0.42,-1.12,1.13,1.14,1.52,0.70,0.70,0.67
284.99,-0.35,-1.02,-0.35,-1.01,1.02,1.06,1.45,0.67,0.66,0.67
287.84,-0.30,-0.93,-0.30,-0.91,0.92,0.99,1.39,0.62,0.62,0.62
290.72,-0.27,-0.82,-0.27,-0.82,0.83,0.92,1.32,0.57,0.56,0.55
293.63,-0.26,-0.74,-0.26,-0.73,0.76,0.86,1.25,0.51,0.51,0.48
296.57,-0.26,-0.67,-0.26,-0.68,0.72,0.80,1.18,0.45,0.45,0.41
299.53,-0.28,-0.65,-0.28,-0.66,0.68,0.74,1.11,0.40,0.40,0.37
302.53,-0.31,-0.68,-0.31,-0.68,0.67,0.70,1.04,0.36,0.36,0.37
305.55,-0.34,-0.71,-0.34,-0.69,0.67,0.66,0.96,0.33,0.33,0.37
308.61,-0.37,-0.70,-0.37,-0.69,0.68,0.63,0.89,0.31,0.31,0.34
311.69,-0.40,-0.67,-0.40,-0.69,0.70,0.61,0.82,0.30,0.30,0.28
314.81,-0.43,-0.70,-0.43,-0.70,0.72,0.60,0.74,0.29,0.29,0.27
317.96,-0.46,-0.73,-0.46,-0.73,0.73,0.61,0.67,0.27,0.27,0.27
321.14,-0.49,-0.76,-0.49,-0.76,0.72,0.62,0.59,0.24,0.24,0.27
324.35,-0.51,-0.78,-0.51,-0.77,0.71,0.66,0.52,0.20,0.20,0.27
327.59,-0.54,-0.76,-0.54,-0.75,0.69,0.70,0.44,0.16,0.16,0.22
330.87,-0.56,-0.71,-0.56,-0.71,0.68,0.77,0.36,0.12,0.12,0.15
334.18,-0.58,-0.67,-0.58,-0.68,0.68,0.84,0.29,0.10,0.10,0.09
337.52,-0.61,-0.68,-0.61,-0.68,0.71,0.93,0.21,0.11,0.11,0.07
340.90,-0.63,-0.71,-0.63,-0.71,0.80,1.03,0.13,0.18,0.18,0.09
344.30,-0.65,-0.80,-0.65,-0.80,0.95,1.13,0.06,0.30,0.30,0.16
347.75,-0.67,-0.95,-0.67,-0.95,1.12,1.24,-0.02,0.46,0.46,0.28
351.23,-0.69,-1.15,-0.69,-1.18,1.31,1.34,-0.10,0.62,0.62,0.47
354.74,-0.70,-1.45,-0.70,-1.45,1.47,1.42,-0.17,0.77,0.77,0.75
358.28,-0.72,-1.75,-0.72,-1.76,1.60,1.47,-0.25,0.88,0.88,1.03
361.87,-0.74,-2.02,-0.74,-2.03,1.67,1.49,-0.33,0.93,0.93,1.28
365.49,-0.75,-2.21,-0.75,-2.18,1.67,1.47,-0.41,0.92,0.92,1.46
369.14,-0.77,-2.17,-0.77,-2.14,1.60,1.40,-0.48,0.83,0.83,1.40
372.83,-0.78,-1.93,-0.78,-1.90,1.44,1.28,-0.56,0.66,0.66,1.15
376.56,-0.80,-1.50,-0.80,-1.52,1.21,1.12,-0.64,0.41,0.41,0.70
380.33,-0.81,-1.07,-0.81,-1.10,0.91,0.92,-0.72,0.10,0.10,0.26
384.13,-0.83,-0.68,-0.83,-0.69,0.58,0.69,-0.80,-0.24,-0.24,-0.14
387.97,-0.84,-0.33,-0.84,-0.33,0.26,0.44,-0.87,-0.59,-0.59,-0.51
391.85,-0.86,-0.02,-0.86,-0.01,-0.03,0.18,-0.95,-0.88,-0.88,-0.84
395.77,-0.87,0.28,-0.87,0.30,-0.27,-0.08,-1.03,-1.14,-1.14,-1.15
399.73,-0.88,0.56,-0.88,0.57,-0.47,-0.34,-1.11,-1.35,-1.35,-1.45
403.72,-0.90,0.82,-0.90,0.77,-0.62,-0.58,-1.18,-1.52,-1.52,-1.71
407.76,-0.91,0.88,-0.91,0.89,-0.73,-0.81,-1.26,-1.63,-1.64,-1.79
411.84,-0.92,0.91,-0.92,0.91,-0.80,-1.03,-1.34,-1.72,-1.72,-1.83
415.96,-0.94,0.89,-0.94,0.89,-0.88,-1.23,-1.41,-1.81,-1.81,-1.83
420.12,-0.95,0.88,-0.95,0.87,-0.97,-1.41,-1.49,-1.92,-1.92,-1.83
424.32,-0.96,0.91,-0.96,0.90,-1.12,-1.58,-1.56,-2.08,-2.08,-1.87
428.56,-0.97,1.00,-0.97,1.06,-1.31,-1.73,-1.63,-2.29,-2.29,-1.98
432.85,-0.99,1.35,-0.99,1.36,-1.57,-1.87,-1.70,-2.55,-2.55,-2.33
437.18,-1.00,1.80,-1.00,1.80,-1.86,-1.99,-1.77,-2.86,-2.86,-2.79
441.55,-1.01,2.28,-1.01,2.27,-2.18,-2.10,-1.84,-3.19,-3.19,-3.29
445.96,-1.02,2.71,-1.02,2.66,-2.49,-2.20,-1.91,-3.51,-3.51,-3.73
450.42,-1.03,2.94,-1.03,2.95,-2.76,-2.28,-1.97,-3.79,-3.79,-3.98
454.93,-1.04,3.10,-1.04,3.10,-2.97,-2.36,-2.03,-4.02,-4.02,-4.15
459.48,-1.06,3.17,-1.06,3.16,-3.11,-2.42,-2.09,-4.17,-4.17,-4.22
464.07,-1.07,3.16,-1.07,3.17,-3.17,-2.48,-2.15,-4.24,-4.24,-4.23
468.71,-1.08,3.13,-1.08,3.13,-3.16,-2.53,-2.20,-4.24,-4.24,-4.21
473.40,-1.09,3.05,-1.09,3.06,-3.10,-2.58,-2.25,-4.19,-4.19,-4.14
478.13,-1.10,2.98,-1.10,2.98,-3.01,-2.61,-2.29,-4.10,-4.10,-4.07
482.91,-1.11,2.90,-1.11,2.90,-2.91,-2.65,-2.34,-4.01,-4.01,-4.00
487.74,-1.11,2.82,-1.11,2.82,-2.81,-2.67,-2.38,-3.92,-3.92,-3.93
492.62,-1.12,2.74,-1.12,2.72,-2.72,-2.70,-2.41,-3.84,-3.84,-3.86
497.55,-1.13,2.62,-1.13,2.61,-2.64,-2.72,-2.44,-3.77,-3.77,-3.76
502.52,-1.14,2.49,-1.14,2.53,-2.57,-2.73,-2.47,-3.71,-3.71,-3.63
507.55,-1.15,2.48,-1.15,2.47,-2.52,-2.74,-2.49,-3.67,-3.67,-3.63
512.62,-1.16,2.47,-1.16,2.46,-2.47,-2.75,-2.51,-3.63,-3.63,-3.63
517.75,-1.17,2.46,-1.17,2.46,-2.44,-2.76,-2.53,-3.61,-3.61,-3.63
522.93,-1.18,2.45,-1.18,2.45,-2.42,-2.77,-2.54,-3.60,-3.60,-3.63
