frequency,raw,error,smoothed,error_smoothed,equalization,parametric_eq,fixed_band_eq,equalized_raw,equalized_smoothed,target
20.00,-0.24,-12.15,-0.24,-12.18,6.00,6.04,2.67,5.76,5.76,11.91
20.20,-0.18,-11.92,-0.18,-11.90,6.00,6.02,2.74,5.82,5.82,11.74
20.40,-0.13,-11.70,-0.13,-11.67,6.00,5.99,2.82,5.87,5.87,11.57
20.61,-0.08,-11.49,-0.08,-11.50,6.00,5.96,2.90,5.92,5.92,11.41
20.81,-0.03,-11.35,-0.03,-11.36,6.00,5.93,2.98,5.97,5.97,11.32
21.02,0.01,-11.30,0.01,-11.30,6.00,5.92,3.07,6.01,6.01,11.31
21.23,0.05,-11.34,0.05,-11.36,6.00,5.91,3.15,6.05,6.05,11.38
21.44,0.08,-11.49,0.08,-11.50,6.00,5.93,3.25,6.08,6.08,11.57
21.66,0.12,-11.71,0.12,-11.70,6.00,5.94,3.34,6.12,6.12,11.83
21.87,0.15,-11.93,0.15,-11.92,6.00,5.97,3.43,6.15,6.15,12.08
22.09,0.19,-12.10,0.19,-12.10,6.00,5.99,3.53,6.19,6.19,12.29
22.31,0.23,-12.22,0.23,-12.22,6.00,6.01,3.63,6.23,6.23,12.45
22.54,0.27,-12.24,0.27,-12.24,6.00,6.03,3.73,6.27,6.27,12.51
22.76,0.31,-12.16,0.31,-12.16,6.00,6.05,3.84,6.31,6.31,12.48
22.99,0.35,-11.98,0.35,-11.97,6.00,6.06,3.95,6.35,6.35,12.34
23.22,0.39,-11.71,0.39,-11.71,6.00,6.06,4.06,6.39,6.39,12.10
23.45,0.43,-11.41,0.43,-11.41,6.00,6.06,4.17,6.43,6.43,11.84
23.69,0.46,-11.13,0.46,-11.13,6.00,6.06,4.29,6.46,6.46,11.60
23.92,0.49,-10.91,0.49,-10.92,6.00,6.06,4.40,6.49,6.49,11.40
24.16,0.53,-10.79,0.53,-10.80,6.00,6.06,4.53,6.53,6.53,11.31
24.40,0.56,-10.78,0.56,-10.78,6.00,6.06,4.65,6.56,6.56,11.33
24.65,0.59,-10.85,0.59,-10.85,6.00,6.06,4.77,6.59,6.59,11.43
24.89,0.62,-10.96,0.62,-10.96,6.00,6.05,4.90,6.62,6.62,11.58
25.14,0.65,-11.07,0.65,-11.07,6.00,6.05,5.03,6.65,6.65,11.72
25.39,0.68,-11.16,0.68,-11.14,6.00,6.05,5.15,6.68,6.68,11.84
25.65,0.70,-11.17,0.70,-11.17,6.00,6.04,5.28,6.70,6.70,11.88
25.91,0.73,-11.15,0.73,-11.15,6.00,6.04,5.41,6.73,6.73,11.88
26.16,0.75,-11.10,0.75,-11.09,6.00,6.04,5.54,6.75,6.75,11.85
26.43,0.77,-11.02,0.77,-11.02,6.00,6.04,5.67,6.77,6.77,11.79
26.69,0.80,-10.94,0.80,-10.95,6.00,6.04,5.80,6.80,6.80,11.74
26.96,0.82,-10.88,0.82,-10.89,6.00,6.03,5.93,6.82,6.82,11.70
27.23,0.85,-10.85,0.85,-10.85,6.00,6.03,6.05,6.85,6.85,11.69
27.50,0.88,-10.84,0.88,-10.83,6.00,6.03,6.17,6.88,6.88,11.71
27.77,0.91,-10.83,0.91,-10.83,6.00,6.03,6.29,6.91,6.91,11.74
28.05,0.94,-10.84,0.94,-10.84,6.00,6.03,6.41,6.94,6.94,11.78
28.33,0.97,-10.84,0.97,-10.84,6.00,6.02,6.52,6.97,6.97,11.81
28.62,0.99,-10.85,0.99,-10.85,6.00,6.02,6.62,6.99,6.99,11.84
28.90,1.02,-10.85,1.02,-10.86,6.00,6.02,6.72,7.02,7.02,11.87
29.19,1.04,-10.87,1.04,-10.87,6.00,6.02,6.81,7.04,7.04,11.91
29.48,1.06,-10.90,1.06,-10.91,6.00,6.02,6.89,7.06,7.06,11.96
29.78,1.09,-10.95,1.09,-10.95,6.00,6.02,6.97,7.09,7.09,12.04
30.08,1.12,-11.00,1.12,-11.00,6.00,6.01,7.04,7.12,7.12,12.12
30.38,1.15,-11.05,1.15,-11.05,6.00,6.01,7.10,7.15,7.15,12.20
30.68,1.18,-11.08,1.18,-11.07,6.00,6.01,7.14,7.18,7.18,12.25
30.99,1.21,-11.06,1.21,-11.06,6.00,6.01,7.18,7.21,7.21,12.27
31.30,1.24,-11.01,1.24,-11.01,6.00,6.01,7.20,7.24,7.24,12.26
31.61,1.27,-10.94,1.27,-10.94,6.00,6.00,7.22,7.27,7.27,12.21
31.93,1.29,-10.85,1.29,-10.85,6.00,6.00,7.23,7.29,7.29,12.14
32.24,1.31,-10.77,1.31,-10.77,6.00,6.00,7.23,7.31,7.31,12.09
32.57,1.33,-10.71,1.33,-10.72,6.00,6.00,7.21,7.33,7.33,12.05
32.89,1.36,-10.70,1.36,-10.70,6.00,6.00,7.20,7.36,7.36,12.06
33.22,1.38,-10.72,1.38,-10.72,6.00,5.99,7.16,7.38,7.38,12.10
33.55,1.40,-10.76,1.40,-10.76,6.00,5.99,7.13,7.40,7.40,12.16
33.89,1.43,-10.81,1.43,-10.81,6.00,5.99,7.08,7.43,7.43,12.24
34.23,1.45,-10.86,1.45,-10.86,6.00,5.99,7.03,7.45,7.45,12.31
34.57,1.47,-10.91,1.47,-10.91,6.00,5.99,6.98,7.47,7.47,12.38
34.92,1.49,-10.96,1.49,-10.96,6.00,5.98,6.92,7.49,7.49,12.45
35.27,1.51,-11.03,1.51,-11.03,6.00,5.98,6.85,7.51,7.51,12.54
35.62,1.53,-11.10,1.53,-11.10,6.00,5.98,6.78,7.53,7.53,12.63
35.97,1.55,-11.18,1.55,-11.18,6.00,5.98,6.71,7.55,7.55,12.73
36.33,1.57,-11.26,1.57,-11.25,6.00,5.98,6.64,7.57,7.57,12.82
36.70,1.58,-11.31,1.58,-11.31,6.00,5.98,6.57,7.58,7.58,12.90
37.06,1.60,-11.35,1.60,-11.35,6.00,5.97,6.49,7.60,7.60,12.96
37.43,1.62,-11.37,1.62,-11.36,6.00,5.97,6.42,7.62,7.62,12.98
37.81,1.63,-11.36,1.63,-11.36,6.00,5.97,6.34,7.63,7.63,12.99
38.19,1.65,-11.35,1.65,-11.35,6.00,5.97,6.27,7.65,7.65,13.00
38.57,1.67,-11.33,1.67,-11.33,6.00,5.97,6.20,7.67,7.67,12.99
38.95,1.68,-11.29,1.68,-11.29,6.00,5.97,6.13,7.68,7.68,12.97
39.34,1.70,-11.23,1.70,-11.23,6.00,5.97,6.07,7.70,7.70,12.93
39.74,1.71,-11.15,1.71,-11.15,6.00,5.97,6.00,7.71,7.71,12.86
40.14,1.73,-11.03,1.73,-11.03,6.00,5.97,5.94,7.73,7.73,12.76
40.54,1.74,-10.89,1.74,-10.89,6.00,5.97,5.89,7.74,7.74,12.63
40.94,1.76,-10.72,1.76,-10.72,6.00,5.97,5.83,7.76,7.76,12.48
41.35,1.77,-10.55,1.77,-10.55,6.00,5.97,5.78,7.77,7.77,12.32
41.76,1.79,-10.37,1.79,-10.37,6.00,5.97,5.74,7.79,7.79,12.16
42.18,1.80,-10.21,1.80,-10.21,6.00,5.98,5.70,7.80,7.80,12.01
42.60,1.82,-10.05,1.82,-10.05,6.00,5.98,5.66,7.82,7.82,11.86
43.03,1.83,-9.90,1.83,-9.90,6.00,5.98,5.62,7.83,7.83,11.73
43.46,1.85,-9.75,1.85,-9.74,6.00,5.98,5.59,7.85,7.85,11.59
43.90,1.86,-9.58,1.86,-9.58,6.00,5.99,5.57,7.86,7.86,11.45
44.33,1.88,-9.41,1.88,-9.40,6.00,5.99,5.55,7.88,7.88,11.29
44.78,1.90,-9.23,1.90,-9.24,6.00,5.99,5.53,7.90,7.90,11.13
45.23,1.91,-9.08,1.91,-9.09,6.00,6.00,5.52,7.91,7.91,10.99
45.68,1.93,-8.97,1.93,-8.97,6.00,6.00,5.51,7.93,7.93,10.89
46.13,1.94,-8.88,1.94,-8.88,6.00,6.01,5.51,7.94,7.94,10.82
46.60,1.96,-8.80,1.96,-8.79,6.00,6.01,5.51,7.96,7.96,10.75
47.06,1.97,-8.71,1.97,-8.71,6.00,6.02,5.51,7.97,7.97,10.68
47.53,1.98,-8.62,1.98,-8.62,6.00,6.02,5.52,7.98,7.98,10.60
48.01,1.99,-8.51,1.99,-8.51,6.00,6.03,5.53,7.99,7.99,10.50
48.49,2.00,-8.39,2.00,-8.39,6.00,6.04,5.54,8.00,8.00,10.39
48.97,2.00,-8.25,2.00,-8.25,6.00,6.04,5.56,8.00,8.00,10.25
49.46,2.01,-8.09,2.01,-8.09,6.00,6.05,5.58,8.01,8.01,10.10
49.96,2.02,-7.92,2.02,-7.93,6.00,6.05,5.61,8.02,8.02,9.94
50.46,2.03,-7.79,2.03,-7.79,6.00,6.06,5.63,8.03,8.03,9.82
50.96,2.05,-7.66,2.05,-7.66,6.00,6.06,5.66,8.05,8.05,9.72
51.47,2.08,-7.56,2.08,-7.56,6.00,6.06,5.69,8.08,8.08,9.64
51.99,2.11,-7.47,2.11,-7.47,6.00,6.07,5.72,8.11,8.11,9.57
52.51,2.14,-7.38,2.14,-7.38,6.00,6.07,5.76,8.14,8.14,9.52
53.03,2.18,-7.30,2.18,-7.30,6.00,6.07,5.79,8.18,8.18,9.48
53.56,2.21,-7.21,2.21,-7.21,6.00,6.07,5.83,8.21,8.21,9.42
54.10,2.22,-7.10,2.22,-7.09,6.00,6.07,5.86,8.22,8.22,9.33
54.64,2.22,-6.99,2.22,-6.99,6.00,6.06,5.89,8.22,8.22,9.21
55.18,2.20,-6.89,2.20,-6.92,6.00,6.06,5.93,8.20,8.20,9.10
55.74,2.18,-6.88,2.19,-6.88,6.00,6.05,5.96,8.18,8.19,9.06
56.29,2.18,-6.87,2.18,-6.87,6.00,6.04,5.99,8.18,8.18,9.05
56.86,2.18,-6.86,2.19,-6.84,6.00,6.02,6.01,8.18,8.19,9.05
57.42,2.20,-6.76,2.20,-6.75,6.00,6.01,6.03,8.20,8.20,8.96
58.00,2.22,-6.62,2.22,-6.62,6.01,5.99,6.05,8.22,8.22,8.84
58.58,2.23,-6.46,2.23,-6.46,6.02,5.97,6.06,8.25,8.25,8.69
59.16,2.24,-6.32,2.24,-6.35,6.03,5.94,6.07,8.27,8.27,8.56
59.76,2.25,-6.27,2.25,-6.28,6.02,5.92,6.07,8.27,8.27,8.52
60.35,2.26,-6.24,2.26,-6.24,6.00,5.89,6.07,8.26,8.26,8.50
60.96,2.26,-6.21,2.27,-6.19,5.96,5.85,6.05,8.22,8.22,8.47
61.57,2.27,-6.10,2.27,-6.08,5.91,5.81,6.04,8.18,8.18,8.37
62.18,2.28,-5.93,2.28,-5.93,5.85,5.77,6.01,8.12,8.12,8.20
62.80,2.28,-5.75,2.28,-5.76,5.79,5.73,5.98,8.07,8.07,8.03
63.43,2.29,-5.63,2.29,-5.64,5.73,5.68,5.94,8.01,8.01,7.92
64.07,2.29,-5.56,2.29,-5.57,5.67,5.63,5.90,7.96,7.96,7.85
64.71,2.30,-5.56,2.30,-5.55,5.61,5.57,5.84,7.91,7.91,7.86
65.35,2.31,-5.55,2.31,-5.55,5.55,5.52,5.79,7.86,7.86,7.86
66.01,2.32,-5.54,2.32,-5.53,5.49,5.46,5.72,7.81,7.81,7.86
66.67,2.33,-5.49,2.33,-5.49,5.42,5.40,5.65,7.75,7.75,7.82
67.33,2.34,-5.42,2.34,-5.42,5.35,5.33,5.57,7.69,7.69,7.76
68.01,2.35,-5.32,2.35,-5.31,5.26,5.26,5.49,7.62,7.61,7.67
68.69,2.36,-5.18,2.36,-5.18,5.16,5.20,5.40,7.52,7.52,7.54
69.37,2.37,-5.03,2.37,-5.03,5.06,5.13,5.31,7.43,7.43,7.40
70.07,2.38,-4.89,2.37,-4.90,4.97,5.05,5.22,7.34,7.34,7.27
70.77,2.38,-4.80,2.38,-4.81,4.88,4.98,5.12,7.26,7.26,7.18
71.48,2.39,-4.75,2.39,-4.76,4.81,4.91,5.02,7.20,7.20,7.14
72.19,2.39,-4.73,2.39,-4.74,4.76,4.83,4.91,7.15,7.15,7.13
72.91,2.40,-4.73,2.40,-4.73,4.70,4.76,4.81,7.10,7.10,7.13
73.64,2.40,-4.71,2.40,-4.70,4.65,4.68,4.70,7.05,7.05,7.11
74.38,2.41,-4.66,2.41,-4.65,4.59,4.60,4.60,7.00,7.00,7.07
75.12,2.42,-4.57,2.42,-4.57,4.52,4.52,4.49,6.94,6.94,6.99
75.87,2.43,-4.45,2.43,-4.45,4.43,4.45,4.38,6.86,6.86,6.87
76.63,2.43,-4.32,2.43,-4.32,4.34,4.37,4.28,6.77,6.77,6.75
77.40,2.44,-4.19,2.44,-4.20,4.24,4.29,4.17,6.68,6.68,6.63
78.17,2.45,-4.10,2.45,-4.10,4.14,4.21,4.07,6.58,6.58,6.54
78.95,2.45,-4.02,2.45,-4.02,4.04,4.14,3.96,6.49,6.49,6.47
79.74,2.46,-3.95,2.46,-3.95,3.94,4.06,3.86,6.39,6.39,6.41
80.54,2.46,-3.88,2.46,-3.87,3.85,3.98,3.76,6.31,6.31,6.34
81.35,2.46,-3.80,2.46,-3.79,3.76,3.91,3.66,6.22,6.22,6.26
82.16,2.47,-3.71,2.47,-3.71,3.68,3.83,3.56,6.15,6.15,6.18
82.98,2.47,-3.62,2.47,-3.62,3.61,3.76,3.47,6.09,6.09,6.10
83.81,2.48,-3.54,2.48,-3.54,3.56,3.68,3.37,6.04,6.04,6.02
84.65,2.49,-3.47,2.49,-3.47,3.54,3.61,3.28,6.02,6.02,5.95
85.50,2.49,-3.44,2.49,-3.44,3.53,3.53,3.19,6.02,6.02,5.93
86.35,2.50,-3.45,2.50,-3.46,3.54,3.46,3.10,6.03,6.03,5.94
87.22,2.50,-3.52,2.50,-3.52,3.54,3.39,3.02,6.04,6.04,6.02
88.09,2.51,-3.59,2.51,-3.58,3.53,3.31,2.93,6.04,6.04,6.10
88.97,2.51,-3.61,2.51,-3.61,3.50,3.24,2.85,6.01,6.01,6.12
89.86,2.51,-3.59,2.52,-3.57,3.45,3.17,2.77,5.96,5.96,6.10
90.76,2.52,-3.46,2.52,-3.45,3.36,3.10,2.70,5.88,5.88,5.98
91.66,2.52,-3.28,2.52,-3.28,3.24,3.03,2.62,5.77,5.77,5.80
92.58,2.53,-3.07,2.53,-3.08,3.11,2.96,2.55,5.64,5.64,5.60
93.51,2.53,-2.88,2.53,-2.89,2.97,2.89,2.48,5.50,5.50,5.41
94.44,2.53,-2.74,2.53,-2.75,2.84,2.82,2.41,5.37,5.37,5.27
95.39,2.53,-2.65,2.53,-2.65,2.72,2.75,2.35,5.26,5.26,5.18
96.34,2.53,-2.60,2.53,-2.60,2.63,2.68,2.28,5.16,5.16,5.13
97.30,2.53,-2.57,2.53,-2.57,2.56,2.61,2.22,5.10,5.09,5.11
98.28,2.53,-2.54,2.53,-2.54,2.51,2.54,2.16,5.04,5.04,5.08
99.26,2.53,-2.50,2.53,-2.50,2.46,2.48,2.10,5.00,5.00,5.04
100.25,2.54,-2.45,2.54,-2.45,2.41,2.41,2.04,4.95,4.95,4.99
101.25,2.54,-2.38,2.54,-2.38,2.36,2.34,1.99,4.90,4.90,4.92
102.27,2.55,-2.30,2.55,-2.30,2.29,2.27,1.93,4.84,4.84,4.85
103.29,2.56,-2.21,2.56,-2.21,2.22,2.21,1.88,4.77,4.77,4.77
104.32,2.56,-2.12,2.56,-2.12,2.14,2.14,1.83,4.70,4.70,4.68
105.37,2.57,-2.04,2.57,-2.04,2.06,2.08,1.78,4.62,4.62,4.61
106.42,2.57,-1.96,2.57,-1.96,1.98,2.01,1.73,4.54,4.54,4.53
107.48,2.57,-1.89,2.57,-1.90,1.90,1.95,1.68,4.47,4.47,4.46
108.56,2.57,-1.83,2.57,-1.83,1.82,1.88,1.63,4.39,4.39,4.40
109.64,2.57,-1.76,2.57,-1.75,1.75,1.82,1.59,4.32,4.32,4.33
110.74,2.57,-1.68,2.57,-1.68,1.67,1.75,1.54,4.24,4.24,4.25
111.85,2.58,-1.59,2.58,-1.59,1.59,1.69,1.49,4.16,4.16,4.17
112.97,2.58,-1.51,2.58,-1.51,1.50,1.62,1.45,4.08,4.08,4.09
114.10,2.58,-1.42,2.58,-1.42,1.40,1.56,1.41,3.99,3.99,4.01
115.24,2.59,-1.33,2.59,-1.32,1.31,1.49,1.36,3.90,3.90,3.91
116.39,2.59,-1.22,2.59,-1.22,1.22,1.43,1.32,3.81,3.81,3.81
117.55,2.59,-1.13,2.59,-1.13,1.14,1.37,1.28,3.73,3.73,3.72
118.73,2.59,-1.05,2.59,-1.05,1.07,1.30,1.23,3.66,3.66,3.64
119.92,2.59,-0.99,2.59,-0.98,1.02,1.24,1.19,3.62,3.62,3.58
121.12,2.59,-0.94,2.59,-0.94,1.00,1.18,1.15,3.59,3.59,3.53
122.33,2.59,-0.93,2.59,-0.94,0.98,1.11,1.10,3.57,3.57,3.52
123.55,2.59,-0.95,2.59,-0.95,0.96,1.05,1.06,3.56,3.56,3.54
124.79,2.59,-0.99,2.59,-0.98,0.95,0.99,1.02,3.54,3.54,3.57
126.03,2.58,-1.00,2.58,-0.99,0.93,0.92,0.97,3.51,3.51,3.58
127.29,2.58,-0.97,2.58,-0.96,0.89,0.86,0.93,3.47,3.47,3.55
128.57,2.57,-0.89,2.57,-0.89,0.85,0.80,0.88,3.42,3.42,3.46
129.85,2.56,-0.79,2.56,-0.79,0.79,0.74,0.84,3.35,3.35,3.35
131.15,2.55,-0.68,2.55,-0.69,0.72,0.67,0.79,3.27,3.27,3.24
132.46,2.54,-0.60,2.54,-0.60,0.64,0.61,0.75,3.18,3.18,3.14
133.79,2.53,-0.53,2.53,-0.53,0.56,0.55,0.70,3.10,3.10,3.07
135.12,2.52,-0.47,2.52,-0.47,0.49,0.49,0.65,3.02,3.02,3.00
136.48,2.51,-0.42,2.51,-0.42,0.43,0.43,0.61,2.95,2.95,2.93
137.84,2.51,-0.37,2.51,-0.38,0.38,0.36,0.56,2.88,2.88,2.88
139.22,2.50,-0.34,2.50,-0.33,0.32,0.30,0.51,2.82,2.83,2.84
140.61,2.51,-0.29,2.51,-0.29,0.26,0.24,0.46,2.77,2.77,2.79
142.02,2.51,-0.23,2.51,-0.23,0.19,0.18,0.41,2.70,2.70,2.74
143.44,2.52,-0.15,2.52,-0.15,0.12,0.12,0.36,2.64,2.64,2.67
144.87,2.53,-0.05,2.53,-0.05,0.04,0.06,0.31,2.57,2.57,2.58
146.32,2.54,0.05,2.54,0.05,-0.04,-0.01,0.26,2.50,2.50,2.49
147.78,2.54,0.14,2.54,0.14,-0.11,-0.07,0.21,2.44,2.44,2.40
149.26,2.55,0.21,2.55,0.21,-0.17,-0.13,0.16,2.38,2.38,2.34
150.75,2.55,0.26,2.55,0.25,-0.21,-0.19,0.11,2.33,2.33,2.29
152.26,2.55,0.28,2.55,0.28,-0.25,-0.25,0.05,2.30,2.30,2.27
153.78,2.55,0.28,2.55,0.28,-0.28,-0.31,0.00,2.27,2.27,2.27
155.32,2.55,0.28,2.55,0.29,-0.31,-0.37,-0.05,2.24,2.24,2.26
156.88,2.54,0.30,2.54,0.30,-0.34,-0.43,-0.11,2.21,2.21,2.24
158.44,2.54,0.34,2.54,0.34,-0.38,-0.49,-0.16,2.17,2.17,2.20
160.03,2.54,0.40,2.54,0.40,-0.43,-0.55,-0.22,2.12,2.12,2.15
161.63,2.54,0.48,2.54,0.48,-0.49,-0.60,-0.27,2.05,2.05,2.06
163.24,2.53,0.56,2.53,0.56,-0.56,-0.66,-0.33,1.97,1.97,1.97
164.88,2.53,0.65,2.53,0.65,-0.64,-0.72,-0.39,1.89,1.89,1.88
166.53,2.51,0.73,2.51,0.73,-0.71,-0.78,-0.44,1.80,1.80,1.79
168.19,2.50,0.80,2.50,0.80,-0.78,-0.84,-0.50,1.72,1.72,1.70
169.87,2.49,0.86,2.49,0.86,-0.84,-0.89,-0.56,1.65,1.65,1.63
171.57,2.47,0.91,2.48,0.91,-0.89,-0.95,-0.62,1.59,1.59,1.57
173.29,2.46,0.94,2.46,0.94,-0.93,-1.00,-0.68,1.53,1.53,1.52
175.02,2.45,0.97,2.45,0.97,-0.97,-1.06,-0.74,1.48,1.48,1.48
176.77,2.44,0.99,2.44,1.00,-1.01,-1.11,-0.81,1.44,1.44,1.45
178.54,2.44,1.03,2.44,1.03,-1.05,-1.17,-0.87,1.38,1.38,1.41
180.32,2.43,1.08,2.43,1.08,-1.11,-1.22,-0.93,1.33,1.33,1.35
182.13,2.43,1.14,2.43,1.15,-1.17,-1.28,-1.00,1.27,1.27,1.29
183.95,2.44,1.22,2.43,1.22,-1.24,-1.33,-1.06,1.20,1.20,1.21
185.79,2.44,1.31,2.44,1.31,-1.31,-1.38,-1.13,1.12,1.12,1.13
187.65,2.44,1.40,2.44,1.40,-1.39,-1.43,-1.19,1.05,1.05,1.04
189.52,2.44,1.49,2.44,1.49,-1.46,-1.48,-1.26,0.98,0.98,0.96
191.42,2.45,1.56,2.45,1.56,-1.54,-1.53,-1.33,0.91,0.91,0.88
193.33,2.45,1.62,2.45,1.62,-1.60,-1.58,-1.39,0.85,0.85,0.83
195.27,2.45,1.66,2.45,1.66,-1.66,-1.63,-1.46,0.79,0.79,0.79
197.22,2.45,1.70,2.45,1.71,-1.72,-1.67,-1.53,0.73,0.73,0.75
199.19,2.45,1.75,2.45,1.75,-1.77,-1.72,-1.60,0.68,0.68,0.70
201.18,2.45,1.80,2.45,1.81,-1.82,-1.76,-1.67,0.63,0.63,0.64
203.19,2.44,1.86,2.44,1.86,-1.86,-1.81,-1.74,0.58,0.58,0.58
205.23,2.44,1.91,2.44,1.91,-1.90,-1.85,-1.80,0.54,0.54,0.53
207.28,2.43,1.95,2.43,1.95,-1.94,-1.89,-1.87,0.49,0.49,0.48
209.35,2.43,1.98,2.42,1.98,-1.98,-1.93,-1.94,0.45,0.45,0.44
211.44,2.42,2.01,2.42,2.01,-2.01,-1.97,-2.00,0.40,0.40,0.41
213.56,2.41,2.04,2.41,2.04,-2.04,-2.01,-2.07,0.36,0.36,0.37
215.69,2.40,2.07,2.40,2.07,-2.07,-2.04,-2.13,0.32,0.32,0.33
217.85,2.38,2.10,2.38,2.10,-2.10,-2.08,-2.19,0.28,0.28,0.29
220.03,2.37,2.13,2.37,2.13,-2.13,-2.11,-2.25,0.25,0.25,0.25
222.23,2.37,2.16,2.37,2.16,-2.16,-2.15,-2.31,0.21,0.21,0.21
224.45,2.36,2.19,2.36,2.19,-2.19,-2.18,-2.36,0.17,0.17,0.17
226.70,2.35,2.22,2.35,2.22,-2.22,-2.21,-2.42,0.13,0.13,0.13
228.96,2.34,2.24,2.34,2.24,-2.25,-2.23,-2.46,0.10,0.10,0.10
231.25,2.34,2.27,2.34,2.27,-2.28,-2.26,-2.51,0.06,0.06,0.06
233.57,2.33,2.30,2.33,2.30,-2.31,-2.28,-2.55,0.02,0.02,0.03
235.90,2.32,2.33,2.32,2.33,-2.34,-2.31,-2.58,-0.01,-0.01,-0.01
238.26,2.32,2.36,2.32,2.36,-2.36,-2.33,-2.62,-0.05,-0.05,-0.05
240.64,2.31,2.39,2.31,2.39,-2.39,-2.35,-2.64,-0.08,-0.08,-0.08
243.05,2.30,2.42,2.30,2.41,-2.41,-2.37,-2.67,-0.12,-0.12,-0.12
245.48,2.29,2.43,2.29,2.44,-2.43,-2.38,-2.68,-0.15,-0.15,-0.15
247.93,2.27,2.45,2.27,2.45,-2.45,-2.40,-2.70,-0.18,-0.18,-0.18
250.41,2.26,2.47,2.26,2.47,-2.46,-2.41,-2.70,-0.20,-0.20,-0.21
252.92,2.24,2.48,2.24,2.48,-2.47,-2.42,-2.71,-0.23,-0.23,-0.23
255.45,2.23,2.48,2.23,2.48,-2.48,-2.43,-2.70,-0.25,-0.25,-0.26
258.00,2.21,2.48,2.21,2.48,-2.48,-2.44,-2.70,-0.28,-0.28,-0.28
260.58,2.19,2.48,2.19,2.48,-2.49,-2.45,-2.68,-0.30,-0.30,-0.29
263.19,2.17,2.48,2.17,2.48,-2.49,-2.45,-2.67,-0.32,-0.32,-0.31
265.82,2.15,2.48,2.15,2.49,-2.49,-2.45,-2.64,-0.34,-0.34,-0.33
268.48,2.14,2.49,2.14,2.49,-2.49,-2.45,-2.62,-0.36,-0.36,-0.35
271.16,2.12,2.49,2.12,2.49,-2.49,-2.45,-2.58,-0.38,-0.38,-0.38
273.87,2.10,2.49,2.09,2.49,-2.49,-2.45,-2.55,-0.40,-0.40,-0.40
276.61,2.07,2.49,2.07,2.49,-2.49,-2.45,-2.51,-0.42,-0.42,-0.42
279.38,2.05,2.49,2.05,2.49,-2.48,-2.44,-2.47,-0.44,-0.44,-0.44
282.17,2.02,2.48,2.02,2.48,-2.47,-2.43,-2.43,-0.45,-0.45,-0.45
284.99,2.00,2.47,2.00,2.46,-2.46,-2.42,-2.38,-0.47,-0.47,-0.47
287.84,1.97,2.45,1.97,2.45,-2.45,-2.41,-2.33,-0.48,-0.48,-0.48
290.72,1.95,2.43,1.95,2.43,-2.43,-2.40,-2.28,-0.49,-0.49,-0.48
293.63,1.92,2.41,1.92,2.41,-2.42,-2.38,-2.23,-0.49,-0.49,-0.49
296.57,1.90,2.40,1.90,2.40,-2.40,-2.37,-2.18,-0.50,-0.50,-0.49
299.53,1.88,2.38,1.88,2.38,-2.38,-2.35,-2.13,-0.50,-0.50,-0.50
302.53,1.86,2.36,1.86,2.36,-2.37,-2.33,-2.07,-0.51,-0.51,-0.50
305.55,1.84,2.35,1.84,2.35,-2.35,-2.31,-2.02,-0.51,-0.51,-0.51
308.61,1.82,2.33,1.82,2.33,-2.33,-2.28,-1.96,-0.51,-0.51,-0.51
311.69,1.80,2.31,1.80,2.31,-2.30,-2.26,-1.90,-0.51,-0.50,-0.51
314.81,1.77,2.28,1.77,2.28,-2.27,-2.23,-1.85,-0.50,-0.50,-0.50
317.96,1.75,2.25,1.75,2.25,-2.24,-2.21,-1.79,-0.49,-0.49,-0.50
321.14,1.72,2.21,1.72,2.21,-2.21,-2.18,-1.74,-0.49,-0.49,-0.49
324.35,1.70,2.17,1.70,2.17,-2.17,-2.15,-1.68,-0.48,-0.48,-0.48
327.59,1.67,2.13,1.67,2.13,-2.14,-2.12,-1.63,-0.47,-0.47,-0.47
330.87,1.64,2.09,1.64,2.09,-2.10,-2.08,-1.58,-0.46,-0.46,-0.45
334.18,1.61,2.05,1.61,2.05,-2.06,-2.05,-1.53,-0.45,-0.45,-0.44
337.52,1.58,2.01,1.58,2.01,-2.01,-2.01,-1.47,-0.44,-0.44,-0.44
340.90,1.55,1.97,1.55,1.97,-1.97,-1.98,-1.42,-0.43,-0.43,-0.43
344.30,1.52,1.93,1.52,1.93,-1.93,-1.94,-1.37,-0.42,-0.42,-0.42
347.75,1.48,1.89,1.48,1.89,-1.89,-1.90,-1.33,-0.41,-0.41,-0.41
351.23,1.45,1.85,1.45,1.85,-1.85,-1.86,-1.28,-0.40,-0.40,-0.40
354.74,1.42,1.80,1.42,1.80,-1.80,-1.82,-1.23,-0.38,-0.39,-0.39
358.28,1.38,1.76,1.38,1.76,-1.76,-1.78,-1.19,-0.37,-0.37,-0.37
361.87,1.35,1.71,1.35,1.71,-1.71,-1.73,-1.14,-0.36,-0.36,-0.36
365.49,1.31,1.66,1.31,1.66,-1.66,-1.69,-1.10,-0.35,-0.35,-0.35
369.14,1.28,1.61,1.28,1.61,-1.61,-1.64,-1.05,-0.33,-0.33,-0.33
372.83,1.24,1.56,1.24,1.56,-1.56,-1.59,-1.01,-0.32,-0.32,-0.32
376.56,1.20,1.51,1.20,1.51,-1.51,-1.55,-0.97,-0.30,-0.30,-0.30
380.33,1.17,1.45,1.17,1.45,-1.45,-1.50,-0.93,-0.29,-0.29,-0.29
384.13,1.13,1.40,1.13,1.40,-1.40,-1.45,-0.89,-0.27,-0.27,-0.27
387.97,1.09,1.34,1.09,1.34,-1.34,-1.40,-0.86,-0.25,-0.25,-0.25
391.85,1.05,1.28,1.05,1.28,-1.28,-1.35,-0.82,-0.23,-0.23,-0.23
395.77,1.01,1.22,1.01,1.22,-1.22,-1.29,-0.79,-0.21,-0.21,-0.21
399.73,0.97,1.17,0.97,1.17,-1.17,-1.24,-0.75,-0.19,-0.19,-0.19
403.72,0.93,1.11,0.93,1.11,-1.11,-1.19,-0.72,-0.18,-0.18,-0.18
407.76,0.90,1.05,0.90,1.05,-1.05,-1.13,-0.68,-0.16,-0.16,-0.16
411.84,0.86,1.00,0.86,1.00,-1.00,-1.08,-0.65,-0.14,-0.14,-0.14
415.96,0.82,0.94,0.82,0.94,-0.94,-1.02,-0.62,-0.13,-0.13,-0.13
420.12,0.78,0.89,0.78,0.89,-0.89,-0.97,-0.59,-0.11,-0.11,-0.11
424.32,0.74,0.83,0.74,0.83,-0.83,-0.91,-0.56,-0.09,-0.09,-0.09
428.56,0.70,0.78,0.70,0.78,-0.78,-0.85,-0.53,-0.08,-0.08,-0.08
432.85,0.66,0.72,0.66,0.72,-0.72,-0.80,-0.51,-0.06,-0.06,-0.06
437.18,0.63,0.67,0.62,0.67,-0.67,-0.74,-0.48,-0.04,-0.04,-0.04
441.55,0.59,0.62,0.59,0.62,-0.62,-0.68,-0.45,-0.03,-0.03,-0.03
445.96,0.55,0.56,0.55,0.56,-0.56,-0.63,-0.43,-0.01,-0.01,-0.01
450.42,0.52,0.51,0.52,0.51,-0.51,-0.57,-0.40,0.01,0.01,0.01
454.93,0.48,0.46,0.48,0.46,-0.46,-0.51,-0.38,0.02,0.02,0.02
459.48,0.45,0.41,0.45,0.41,-0.41,-0.46,-0.36,0.04,0.04,0.04
464.07,0.41,0.36,0.41,0.36,-0.36,-0.40,-0.34,0.06,0.06,0.06
468.71,0.38,0.31,0.38,0.31,-0.30,-0.35,-0.32,0.07,0.07,0.07
473.40,0.35,0.26,0.35,0.26,-0.26,-0.30,-0.30,0.09,0.09,0.09
478.13,0.31,0.21,0.31,0.21,-0.21,-0.24,-0.28,0.10,0.10,0.11
482.91,0.28,0.16,0.28,0.16,-0.16,-0.19,-0.26,0.12,0.12,0.12
487.74,0.25,0.12,0.25,0.12,-0.12,-0.14,-0.25,0.13,0.13,0.13
492.62,0.22,0.08,0.22,0.08,-0.08,-0.10,-0.23,0.14,0.14,0.14
497.55,0.20,0.04,0.20,0.04,-0.04,-0.05,-0.22,0.15,0.15,0.15
502.52,0.17,0.01,0.17,0.01,-0.01,-0.00,-0.20,0.16,0.16,0.16
507.55,0.15,-0.02,0.15,-0.02,0.02,0.04,-0.19,0.17,0.17,0.17
512.62,0.12,-0.05,0.12,-0.05,0.05,0.08,-0.18,0.17,0.17,0.18
517.75,0.10,-0.08,0.10,-0.08,0.08,0.12,-0.16,0.18,0.18,0.18
522.93,0.08,-0.10,0.08,-0.10,0.10,0.15,-0.15,0.18,0.18,0.18
