frequency,raw,error,smoothed,error_smoothed,equalization,parametric_eq,fixed_band_eq,equalized_raw,equalized_smoothed,target
20.00,18.04,11.20,18.04,11.18,-11.19,-10.64,-4.15,6.85,6.85,6.84
20.20,18.01,11.12,18.01,11.13,-11.14,-10.65,-4.27,6.88,6.88,6.89
20.40,17.99,11.05,17.99,11.08,-11.08,-10.66,-4.38,6.91,6.91,6.94
20.61,17.96,11.02,17.96,11.02,-11.02,-10.67,-4.50,6.94,6.94,6.94
20.81,17.93,11.00,17.93,10.98,-10.96,-10.67,-4.62,6.97,6.97,6.94
21.02,17.91,10.93,17.91,10.92,-10.90,-10.67,-4.74,7.01,7.01,6.98
21.23,17.88,10.84,17.88,10.84,-10.84,-10.66,-4.87,7.04,7.04,7.05
21.44,17.86,10.76,17.86,10.77,-10.78,-10.64,-5.00,7.08,7.08,7.10
21.66,17.83,10.69,17.83,10.70,-10.71,-10.63,-5.13,7.12,7.12,7.14
21.87,17.81,10.67,17.81,10.64,-10.65,-10.60,-5.27,7.16,7.16,7.14
22.09,17.78,10.58,17.78,10.59,-10.59,-10.58,-5.41,7.19,7.19,7.20
22.31,17.76,10.52,17.76,10.53,-10.53,-10.55,-5.56,7.23,7.23,7.24
22.54,17.73,10.48,17.73,10.45,-10.46,-10.52,-5.71,7.27,7.27,7.25
22.76,17.70,10.38,17.71,10.40,-10.40,-10.48,-5.86,7.30,7.30,7.33
22.99,17.68,10.34,17.68,10.35,-10.34,-10.44,-6.02,7.34,7.34,7.34
23.22,17.65,10.31,17.65,10.28,-10.27,-10.39,-6.18,7.38,7.38,7.35
23.45,17.63,10.20,17.63,10.20,-10.20,-10.34,-6.35,7.43,7.43,7.42
23.69,17.60,10.10,17.60,10.12,-10.13,-10.29,-6.52,7.47,7.47,7.50
23.92,17.57,10.03,17.57,10.04,-10.05,-10.24,-6.69,7.52,7.52,7.54
24.16,17.53,10.00,17.53,9.97,-9.97,-10.18,-6.87,7.57,7.57,7.54
24.40,17.50,9.89,17.50,9.89,-9.87,-10.12,-7.05,7.63,7.63,7.61
24.65,17.46,9.79,17.46,9.80,-9.78,-10.06,-7.23,7.69,7.69,7.68
24.89,17.43,9.69,17.43,9.69,-9.68,-10.00,-7.42,7.75,7.75,7.74
25.14,17.39,9.59,17.39,9.59,-9.58,-9.94,-7.61,7.81,7.81,7.80
25.39,17.36,9.49,17.36,9.48,-9.49,-9.87,-7.80,7.87,7.87,7.87
25.65,17.32,9.37,17.32,9.37,-9.39,-9.80,-7.99,7.93,7.93,7.95
25.91,17.29,9.27,17.29,9.29,-9.30,-9.73,-8.19,7.99,7.99,8.02
26.16,17.26,9.22,17.26,9.22,-9.22,-9.66,-8.39,8.04,8.04,8.04
26.43,17.22,9.18,17.22,9.15,-9.15,-9.59,-8.59,8.07,8.07,8.05
26.69,17.19,9.08,17.19,9.09,-9.09,-9.52,-8.78,8.10,8.10,8.11
26.96,17.15,9.01,17.15,9.03,-9.03,-9.45,-8.98,8.12,8.12,8.14
27.23,17.12,8.98,17.12,8.97,-8.98,-9.38,-9.17,8.13,8.13,8.14
27.50,17.08,8.94,17.08,8.94,-8.94,-9.30,-9.37,8.14,8.14,8.14
27.77,17.05,8.91,17.05,8.91,-8.90,-9.23,-9.55,8.14,8.14,8.14
28.05,17.01,8.87,17.01,8.87,-8.87,-9.16,-9.73,8.14,8.14,8.14
28.33,16.97,8.84,16.98,8.84,-8.83,-9.08,-9.90,8.14,8.14,8.14
28.62,16.94,8.80,16.94,8.80,-8.80,-9.01,-10.07,8.14,8.14,8.14
28.90,16.90,8.76,16.90,8.76,-8.76,-8.94,-10.22,8.14,8.14,8.14
29.19,16.86,8.72,16.86,8.72,-8.72,-8.86,-10.37,8.14,8.14,8.14
29.48,16.82,8.68,16.82,8.68,-8.68,-8.79,-10.49,8.14,8.14,8.14
29.78,16.78,8.64,16.78,8.64,-8.64,-8.72,-10.61,8.14,8.14,8.14
30.08,16.74,8.60,16.74,8.60,-8.60,-8.64,-10.70,8.14,8.14,8.14
30.38,16.70,8.56,16.70,8.56,-8.55,-8.57,-10.78,8.14,8.14,8.14
30.68,16.65,8.51,16.65,8.51,-8.51,-8.50,-10.84,8.14,8.14,8.14
30.99,16.61,8.47,16.61,8.47,-8.47,-8.43,-10.88,8.14,8.14,8.14
31.30,16.57,8.43,16.57,8.43,-8.43,-8.36,-10.90,8.14,8.14,8.14
31.61,16.53,8.39,16.53,8.38,-8.40,-8.29,-10.90,8.13,8.13,8.14
31.93,16.48,8.35,16.48,8.34,-8.37,-8.22,-10.88,8.12,8.12,8.14
32.24,16.44,8.30,16.44,8.32,-8.34,-8.15,-10.84,8.10,8.10,8.14
32.57,16.40,8.31,16.40,8.31,-8.31,-8.08,-10.78,8.08,8.08,8.09
32.89,16.35,8.31,16.35,8.29,-8.28,-8.01,-10.71,8.07,8.07,8.04
33.22,16.31,8.27,16.31,8.27,-8.25,-7.94,-10.61,8.06,8.06,8.04
33.55,16.26,8.22,16.26,8.23,-8.20,-7.88,-10.51,8.05,8.05,8.04
33.89,16.21,8.17,16.21,8.17,-8.15,-7.81,-10.38,8.06,8.06,8.04
34.23,16.16,8.11,16.16,8.09,-8.09,-7.75,-10.26,8.07,8.07,8.05
34.57,16.11,7.99,16.11,8.02,-8.01,-7.68,-10.11,8.10,8.10,8.11
34.92,16.06,7.92,16.06,7.92,-7.93,-7.62,-9.97,8.12,8.12,8.14
35.27,16.01,7.85,16.01,7.83,-7.85,-7.55,-9.81,8.16,8.16,8.15
35.62,15.96,7.73,15.96,7.75,-7.76,-7.49,-9.65,8.19,8.19,8.22
35.97,15.91,7.67,15.91,7.66,-7.67,-7.43,-9.48,8.23,8.23,8.24
36.33,15.86,7.59,15.86,7.58,-7.58,-7.37,-9.32,8.27,8.27,8.26
36.70,15.81,7.48,15.81,7.50,-7.49,-7.31,-9.15,8.32,8.32,8.32
37.06,15.75,7.42,15.75,7.42,-7.40,-7.25,-8.98,8.36,8.36,8.34
37.43,15.70,7.34,15.70,7.32,-7.30,-7.19,-8.81,8.40,8.40,8.36
37.81,15.65,7.23,15.65,7.22,-7.21,-7.13,-8.65,8.44,8.44,8.42
38.19,15.60,7.10,15.60,7.11,-7.12,-7.07,-8.48,8.48,8.48,8.50
38.57,15.55,7.01,15.55,7.02,-7.03,-7.01,-8.32,8.51,8.51,8.54
38.95,15.49,6.96,15.49,6.95,-6.96,-6.95,-8.16,8.53,8.53,8.54
39.34,15.44,6.90,15.44,6.89,-6.92,-6.90,-8.00,8.53,8.53,8.54
39.74,15.39,6.85,15.39,6.85,-6.89,-6.84,-7.85,8.50,8.50,8.54
40.14,15.34,6.80,15.34,6.82,-6.88,-6.79,-7.70,8.46,8.46,8.53
40.54,15.28,6.82,15.28,6.84,-6.88,-6.73,-7.55,8.41,8.41,8.47
40.94,15.23,6.87,15.23,6.87,-6.87,-6.68,-7.41,8.36,8.36,8.36
41.35,15.18,6.94,15.18,6.90,-6.84,-6.63,-7.28,8.33,8.33,8.24
41.76,15.12,6.88,15.12,6.90,-6.80,-6.57,-7.15,8.32,8.32,8.24
42.18,15.07,6.83,15.07,6.83,-6.74,-6.52,-7.02,8.33,8.33,8.24
42.60,15.01,6.74,15.01,6.70,-6.66,-6.47,-6.90,8.35,8.35,8.27
43.03,14.95,6.54,14.95,6.56,-6.57,-6.42,-6.78,8.38,8.38,8.42
43.46,14.90,6.40,14.90,6.41,-6.47,-6.37,-6.67,8.42,8.42,8.50
43.90,14.84,6.30,14.84,6.30,-6.38,-6.32,-6.56,8.46,8.46,8.54
44.33,14.78,6.24,14.78,6.23,-6.29,-6.27,-6.46,8.49,8.49,8.54
44.78,14.72,6.18,14.72,6.19,-6.21,-6.22,-6.36,8.51,8.51,8.54
45.23,14.66,6.16,14.66,6.17,-6.16,-6.17,-6.26,8.51,8.51,8.51
45.68,14.61,6.17,14.61,6.14,-6.11,-6.12,-6.17,8.50,8.50,8.44
46.13,14.55,6.11,14.55,6.11,-6.07,-6.07,-6.09,8.48,8.48,8.44
46.60,14.50,6.06,14.50,6.06,-6.04,-6.02,-6.01,8.46,8.46,8.44
47.06,14.44,6.00,14.44,6.00,-6.00,-5.98,-5.93,8.44,8.44,8.44
47.53,14.38,5.94,14.38,5.94,-5.96,-5.93,-5.86,8.42,8.42,8.44
48.01,14.32,5.88,14.32,5.89,-5.91,-5.88,-5.79,8.41,8.41,8.44
48.49,14.26,5.84,14.26,5.86,-5.86,-5.84,-5.73,8.40,8.40,8.43
48.97,14.21,5.85,14.21,5.83,-5.81,-5.79,-5.67,8.39,8.39,8.36
49.46,14.15,5.81,14.15,5.80,-5.76,-5.75,-5.61,8.38,8.38,8.34
49.96,14.08,5.75,14.08,5.75,-5.72,-5.70,-5.56,8.36,8.36,8.34
50.46,14.02,5.68,14.02,5.68,-5.68,-5.66,-5.51,8.34,8.34,8.34
50.96,13.96,5.62,13.96,5.63,-5.65,-5.61,-5.46,8.31,8.31,8.34
51.47,13.90,5.58,13.90,5.59,-5.63,-5.57,-5.41,8.27,8.26,8.31
51.99,13.83,5.59,13.83,5.59,-5.62,-5.53,-5.37,8.21,8.21,8.24
52.51,13.77,5.60,13.77,5.59,-5.62,-5.48,-5.33,8.15,8.15,8.18
53.03,13.71,5.60,13.71,5.60,-5.62,-5.44,-5.29,8.09,8.09,8.11
53.56,13.65,5.61,13.65,5.61,-5.61,-5.40,-5.26,8.04,8.04,8.03
54.10,13.58,5.62,13.58,5.63,-5.59,-5.35,-5.22,7.99,7.99,7.96
54.64,13.52,5.62,13.52,5.62,-5.56,-5.31,-5.19,7.96,7.96,7.90
55.18,13.46,5.61,13.46,5.57,-5.51,-5.27,-5.16,7.94,7.94,7.85
55.74,13.39,5.47,13.39,5.48,-5.45,-5.23,-5.12,7.94,7.94,7.92
56.29,13.33,5.34,13.33,5.35,-5.38,-5.19,-5.09,7.95,7.95,7.99
56.86,13.27,5.23,13.27,5.24,-5.30,-5.14,-5.06,7.96,7.96,8.04
57.42,13.20,5.16,13.20,5.16,-5.21,-5.10,-5.03,8.00,8.00,8.04
58.00,13.14,5.10,13.14,5.10,-5.10,-5.06,-5.00,8.04,8.04,8.04
58.58,13.07,5.04,13.07,5.04,-5.00,-5.02,-4.96,8.08,8.08,8.04
59.16,13.01,4.97,13.01,4.95,-4.90,-4.98,-4.93,8.12,8.12,8.04
59.76,12.95,4.85,12.95,4.84,-4.80,-4.94,-4.90,8.14,8.14,8.10
60.35,12.88,4.72,12.88,4.71,-4.72,-4.90,-4.86,8.16,8.16,8.17
60.96,12.82,4.59,12.82,4.60,-4.65,-4.86,-4.82,8.17,8.17,8.23
61.57,12.75,4.52,12.75,4.53,-4.59,-4.82,-4.78,8.17,8.17,8.24
62.18,12.69,4.49,12.69,4.49,-4.54,-4.78,-4.74,8.15,8.15,8.20
62.80,12.62,4.49,12.62,4.49,-4.51,-4.74,-4.70,8.12,8.12,8.13
63.43,12.56,4.49,12.56,4.49,-4.49,-4.70,-4.65,8.07,8.07,8.07
64.07,12.49,4.49,12.49,4.50,-4.47,-4.66,-4.60,8.02,8.02,8.00
64.71,12.43,4.50,12.43,4.50,-4.46,-4.62,-4.56,7.96,7.96,7.93
65.35,12.36,4.50,12.36,4.49,-4.44,-4.58,-4.50,7.92,7.92,7.86
66.01,12.29,4.45,12.29,4.45,-4.42,-4.55,-4.45,7.88,7.88,7.84
66.67,12.23,4.39,12.23,4.39,-4.38,-4.51,-4.40,7.84,7.84,7.84
67.33,12.16,4.32,12.16,4.32,-4.35,-4.47,-4.34,7.81,7.81,7.84
68.01,12.09,4.26,12.09,4.26,-4.31,-4.43,-4.29,7.79,7.79,7.84
68.69,12.03,4.22,12.03,4.23,-4.27,-4.39,-4.23,7.76,7.76,7.81
69.37,11.96,4.22,11.96,4.22,-4.22,-4.35,-4.17,7.74,7.74,7.74
70.07,11.89,4.22,11.89,4.21,-4.18,-4.31,-4.11,7.71,7.71,7.67
70.77,11.82,4.18,11.82,4.18,-4.14,-4.28,-4.05,7.69,7.69,7.64
71.48,11.76,4.12,11.76,4.12,-4.10,-4.24,-3.99,7.66,7.66,7.64
72.19,11.69,4.05,11.69,4.05,-4.06,-4.20,-3.93,7.63,7.63,7.64
72.91,11.62,3.98,11.62,3.99,-4.01,-4.16,-3.87,7.61,7.61,7.64
73.64,11.56,3.93,11.56,3.95,-3.96,-4.13,-3.81,7.59,7.59,7.63
74.38,11.49,3.93,11.49,3.91,-3.91,-4.09,-3.75,7.58,7.58,7.56
75.12,11.42,3.88,11.42,3.87,-3.85,-4.05,-3.69,7.57,7.57,7.54
75.87,11.35,3.81,11.35,3.81,-3.80,-4.01,-3.63,7.55,7.55,7.54
76.63,11.28,3.74,11.28,3.76,-3.76,-3.98,-3.58,7.52,7.52,7.54
77.40,11.21,3.73,11.21,3.72,-3.73,-3.94,-3.52,7.49,7.49,7.48
78.17,11.14,3.70,11.14,3.68,-3.70,-3.90,-3.47,7.45,7.45,7.44
78.95,11.08,3.64,11.08,3.66,-3.67,-3.87,-3.42,7.40,7.41,7.44
79.74,11.01,3.63,11.01,3.63,-3.65,-3.83,-3.37,7.36,7.36,7.38
80.54,10.94,3.63,10.94,3.62,-3.64,-3.79,-3.32,7.31,7.30,7.31
81.35,10.88,3.63,10.87,3.63,-3.62,-3.76,-3.27,7.25,7.25,7.24
82.16,10.81,3.63,10.81,3.64,-3.61,-3.72,-3.23,7.19,7.19,7.18
82.98,10.74,3.63,10.74,3.63,-3.60,-3.68,-3.18,7.13,7.13,7.11
83.81,10.67,3.63,10.67,3.60,-3.59,-3.65,-3.14,7.07,7.08,7.04
84.65,10.59,3.56,10.60,3.57,-3.58,-3.61,-3.10,7.02,7.02,7.04
85.50,10.52,3.53,10.52,3.54,-3.56,-3.57,-3.07,6.96,6.96,7.00
86.35,10.45,3.53,10.45,3.52,-3.54,-3.54,-3.03,6.91,6.91,6.93
87.22,10.38,3.52,10.38,3.52,-3.52,-3.50,-3.00,6.86,6.86,6.86
88.09,10.31,3.52,10.31,3.51,-3.49,-3.47,-2.97,6.81,6.81,6.79
88.97,10.23,3.49,10.23,3.48,-3.47,-3.43,-2.94,6.77,6.77,6.74
89.86,10.16,3.42,10.16,3.45,-3.44,-3.39,-2.92,6.72,6.72,6.74
90.76,10.09,3.41,10.09,3.41,-3.41,-3.36,-2.89,6.69,6.69,6.68
91.66,10.03,3.39,10.03,3.37,-3.37,-3.32,-2.87,6.66,6.66,6.64
92.58,9.96,3.32,9.96,3.32,-3.33,-3.29,-2.85,6.63,6.63,6.64
93.51,9.90,3.26,9.90,3.28,-3.28,-3.25,-2.83,6.62,6.62,6.64
94.44,9.83,3.23,9.83,3.24,-3.24,-3.22,-2.82,6.59,6.59,6.61
95.39,9.77,3.23,9.77,3.20,-3.19,-3.18,-2.80,6.57,6.57,6.54
96.34,9.70,3.16,9.70,3.15,-3.15,-3.15,-2.79,6.55,6.55,6.54
97.30,9.63,3.09,9.63,3.10,-3.11,-3.11,-2.78,6.52,6.52,6.54
98.28,9.56,3.03,9.56,3.05,-3.07,-3.08,-2.77,6.50,6.50,6.53
99.26,9.50,3.03,9.50,3.02,-3.02,-3.04,-2.76,6.48,6.48,6.46
100.25,9.43,2.99,9.43,2.98,-2.98,-3.01,-2.76,6.46,6.46,6.44
101.25,9.36,2.93,9.36,2.93,-2.92,-2.98,-2.75,6.44,6.44,6.44
102.27,9.30,2.86,9.30,2.88,-2.86,-2.94,-2.75,6.44,6.44,6.44
103.29,9.23,2.82,9.23,2.83,-2.80,-2.91,-2.75,6.43,6.43,6.41
104.32,9.16,2.80,9.16,2.76,-2.74,-2.87,-2.74,6.42,6.42,6.36
105.37,9.09,2.68,9.09,2.68,-2.68,-2.84,-2.74,6.41,6.41,6.41
106.42,9.02,2.58,9.02,2.60,-2.63,-2.81,-2.74,6.39,6.39,6.44
107.48,8.95,2.53,8.95,2.54,-2.59,-2.77,-2.74,6.36,6.36,6.42
108.56,8.88,2.52,8.88,2.52,-2.56,-2.74,-2.74,6.32,6.32,6.36
109.64,8.81,2.53,8.81,2.52,-2.54,-2.71,-2.74,6.27,6.27,6.27
110.74,8.74,2.54,8.74,2.53,-2.53,-2.67,-2.74,6.21,6.21,6.20
111.85,8.67,2.52,8.67,2.54,-2.53,-2.64,-2.74,6.14,6.14,6.15
112.97,8.60,2.56,8.60,2.54,-2.53,-2.61,-2.74,6.07,6.07,6.04
114.10,8.53,2.55,8.53,2.55,-2.53,-2.57,-2.73,6.00,6.00,5.98
115.24,8.46,2.53,8.46,2.54,-2.53,-2.54,-2.73,5.93,5.93,5.93
116.39,8.39,2.52,8.39,2.51,-2.51,-2.51,-2.73,5.88,5.88,5.87
117.55,8.32,2.48,8.32,2.49,-2.48,-2.48,-2.72,5.84,5.84,5.84
118.73,8.25,2.45,8.25,2.46,-2.45,-2.44,-2.71,5.80,5.80,5.80
119.92,8.18,2.44,8.18,2.42,-2.41,-2.41,-2.70,5.77,5.77,5.74
121.12,8.11,2.37,8.11,2.36,-2.37,-2.38,-2.69,5.74,5.74,5.74
122.33,8.04,2.30,8.04,2.31,-2.33,-2.35,-2.68,5.72,5.72,5.74
123.55,7.97,2.23,7.97,2.26,-2.27,-2.32,-2.66,5.70,5.70,5.74
124.79,7.90,2.24,7.90,2.22,-2.22,-2.29,-2.64,5.69,5.69,5.66
126.03,7.84,2.20,7.84,2.19,-2.16,-2.25,-2.63,5.67,5.67,5.64
127.29,7.77,2.13,7.77,2.13,-2.11,-2.22,-2.60,5.66,5.66,5.64
128.57,7.70,2.06,7.70,2.06,-2.06,-2.19,-2.58,5.64,5.64,5.64
129.85,7.63,1.99,7.63,1.99,-2.01,-2.16,-2.55,5.62,5.62,5.64
131.15,7.56,1.93,7.56,1.95,-1.97,-2.13,-2.53,5.59,5.59,5.63
132.46,7.49,1.93,7.49,1.93,-1.94,-2.10,-2.50,5.55,5.55,5.57
133.79,7.42,1.92,7.42,1.91,-1.91,-2.07,-2.47,5.51,5.51,5.50
135.12,7.35,1.91,7.35,1.89,-1.90,-2.04,-2.43,5.45,5.45,5.44
136.48,7.28,1.85,7.28,1.88,-1.89,-2.01,-2.40,5.39,5.39,5.44
137.84,7.22,1.86,7.22,1.88,-1.89,-1.98,-2.36,5.33,5.33,5.36
139.22,7.15,1.92,7.15,1.89,-1.88,-1.95,-2.32,5.27,5.27,5.23
140.61,7.08,1.92,7.08,1.90,-1.87,-1.92,-2.28,5.21,5.21,5.16
142.02,7.01,1.87,7.01,1.88,-1.85,-1.89,-2.25,5.15,5.15,5.14
143.44,6.94,1.82,6.94,1.84,-1.83,-1.86,-2.21,5.11,5.11,5.12
144.87,6.87,1.82,6.87,1.80,-1.81,-1.83,-2.17,5.06,5.06,5.05
146.32,6.80,1.76,6.80,1.77,-1.77,-1.80,-2.12,5.03,5.03,5.04
147.78,6.73,1.73,6.73,1.74,-1.73,-1.77,-2.08,5.00,5.00,5.00
149.26,6.66,1.72,6.66,1.70,-1.70,-1.74,-2.04,4.96,4.96,4.94
150.75,6.59,1.65,6.59,1.66,-1.67,-1.71,-2.00,4.92,4.92,4.94
152.26,6.52,1.62,6.52,1.63,-1.65,-1.68,-1.96,4.88,4.88,4.90
153.78,6.45,1.61,6.45,1.61,-1.63,-1.65,-1.92,4.82,4.82,4.85
155.32,6.38,1.61,6.38,1.61,-1.62,-1.62,-1.88,4.76,4.76,4.77
156.88,6.31,1.62,6.31,1.62,-1.62,-1.59,-1.84,4.69,4.69,4.70
158.44,6.24,1.62,6.24,1.63,-1.63,-1.57,-1.80,4.61,4.61,4.62
160.03,6.17,1.63,6.17,1.62,-1.63,-1.54,-1.76,4.54,4.54,4.54
161.63,6.10,1.61,6.10,1.62,-1.62,-1.51,-1.72,4.48,4.48,4.48
163.24,6.03,1.60,6.03,1.61,-1.58,-1.48,-1.69,4.44,4.44,4.43
164.88,5.95,1.61,5.95,1.59,-1.53,-1.46,-1.65,4.42,4.42,4.35
166.53,5.88,1.54,5.88,1.54,-1.46,-1.43,-1.62,4.42,4.42,4.34
168.19,5.81,1.46,5.81,1.44,-1.39,-1.40,-1.58,4.42,4.42,4.35
169.87,5.74,1.30,5.74,1.30,-1.33,-1.37,-1.55,4.41,4.41,4.43
171.57,5.67,1.15,5.66,1.17,-1.27,-1.35,-1.52,4.39,4.39,4.52
173.29,5.59,1.10,5.59,1.10,-1.22,-1.32,-1.49,4.38,4.38,4.50
175.02,5.52,1.08,5.52,1.11,-1.17,-1.30,-1.46,4.35,4.35,4.44
176.77,5.44,1.18,5.44,1.15,-1.13,-1.27,-1.43,4.31,4.31,4.26
178.54,5.37,1.18,5.37,1.17,-1.10,-1.25,-1.40,4.27,4.27,4.19
180.32,5.30,1.16,5.30,1.16,-1.09,-1.23,-1.37,4.21,4.21,4.14
182.13,5.23,1.09,5.23,1.09,-1.06,-1.20,-1.35,4.16,4.16,4.14
183.95,5.15,1.01,5.15,1.03,-1.03,-1.18,-1.32,4.12,4.12,4.14
185.79,5.07,0.96,5.07,0.97,-0.98,-1.16,-1.30,4.09,4.09,4.11
187.65,4.99,0.94,4.99,0.93,-0.92,-1.14,-1.27,4.08,4.08,4.05
189.52,4.91,0.87,4.91,0.86,-0.85,-1.12,-1.25,4.07,4.07,4.04
191.42,4.83,0.79,4.83,0.79,-0.78,-1.10,-1.23,4.05,4.05,4.04
193.33,4.74,0.70,4.74,0.72,-0.73,-1.08,-1.21,4.01,4.01,4.04
195.27,4.65,0.68,4.65,0.67,-0.70,-1.06,-1.19,3.95,3.95,3.98
197.22,4.56,0.66,4.56,0.65,-0.68,-1.04,-1.17,3.88,3.88,3.90
199.19,4.48,0.65,4.49,0.65,-0.67,-1.02,-1.16,3.81,3.81,3.83
201.18,4.44,0.67,4.44,0.68,-0.69,-1.00,-1.14,3.75,3.75,3.77
203.19,4.41,0.71,4.42,0.72,-0.72,-0.98,-1.12,3.69,3.70,3.70
205.23,4.43,0.79,4.43,0.77,-0.77,-0.96,-1.11,3.66,3.66,3.64
207.28,4.46,0.82,4.46,0.84,-0.84,-0.94,-1.09,3.62,3.62,3.64
209.35,4.51,0.91,4.51,0.92,-0.92,-0.92,-1.08,3.59,3.59,3.59
211.44,4.56,1.02,4.56,0.99,-1.00,-0.90,-1.06,3.56,3.56,3.54
213.56,4.61,1.07,4.60,1.08,-1.08,-0.88,-1.05,3.52,3.52,3.54
215.69,4.64,1.15,4.64,1.17,-1.16,-0.86,-1.04,3.47,3.48,3.48
217.85,4.66,1.25,4.66,1.24,-1.24,-0.84,-1.02,3.43,3.42,3.41
220.03,4.66,1.32,4.66,1.31,-1.30,-0.83,-1.01,3.36,3.36,3.34
222.23,4.63,1.35,4.63,1.35,-1.34,-0.81,-1.00,3.29,3.29,3.28
224.45,4.59,1.37,4.59,1.38,-1.36,-0.79,-0.98,3.23,3.23,3.22
226.70,4.54,1.39,4.53,1.39,-1.36,-0.77,-0.97,3.17,3.17,3.15
228.96,4.47,1.40,4.47,1.39,-1.35,-0.75,-0.96,3.12,3.12,3.07
231.25,4.40,1.36,4.40,1.35,-1.33,-0.73,-0.94,3.07,3.07,3.04
233.57,4.33,1.29,4.33,1.29,-1.30,-0.71,-0.93,3.03,3.03,3.04
235.90,4.25,1.21,4.25,1.23,-1.26,-0.70,-0.91,2.99,2.99,3.04
238.26,4.18,1.18,4.18,1.19,-1.23,-0.68,-0.90,2.95,2.95,3.00
240.64,4.10,1.18,4.10,1.17,-1.19,-0.66,-0.88,2.91,2.91,2.92
243.05,4.03,1.17,4.03,1.17,-1.16,-0.64,-0.87,2.87,2.87,2.86
245.48,3.96,1.17,3.96,1.16,-1.14,-0.62,-0.85,2.82,2.82,2.79
247.93,3.89,1.15,3.89,1.13,-1.12,-0.61,-0.83,2.77,2.77,2.74
250.41,3.82,1.08,3.82,1.10,-1.10,-0.59,-0.81,2.72,2.72,2.74
252.92,3.75,1.06,3.75,1.08,-1.09,-0.57,-0.80,2.66,2.66,2.69
255.45,3.69,1.06,3.69,1.06,-1.07,-0.55,-0.78,2.61,2.61,2.62
258.00,3.62,1.08,3.62,1.05,-1.06,-0.54,-0.76,2.56,2.56,2.54
260.58,3.56,1.02,3.56,1.03,-1.03,-0.52,-0.74,2.53,2.52,2.54
263.19,3.49,0.98,3.49,1.01,-1.00,-0.50,-0.71,2.49,2.49,2.51
265.82,3.43,0.99,3.43,0.99,-0.97,-0.49,-0.69,2.46,2.46,2.44
268.48,3.37,1.00,3.37,0.97,-0.94,-0.47,-0.67,2.43,2.43,2.38
271.16,3.31,0.94,3.31,0.92,-0.91,-0.45,-0.65,2.41,2.41,2.37
273.87,3.25,0.82,3.25,0.84,-0.86,-0.43,-0.62,2.39,2.39,2.44
276.61,3.20,0.76,3.20,0.78,-0.81,-0.42,-0.60,2.38,2.38,2.44
279.38,3.14,0.73,3.14,0.74,-0.75,-0.40,-0.57,2.38,2.38,2.40
282.17,3.08,0.74,3.08,0.72,-0.69,-0.38,-0.55,2.39,2.39,2.34
284.99,3.02,0.68,3.02,0.66,-0.62,-0.37,-0.52,2.40,2.40,2.34
287.84,2.96,0.58,2.96,0.58,-0.56,-0.35,-0.50,2.41,2.41,2.39
290.72,2.91,0.47,2.91,0.48,-0.49,-0.33,-0.47,2.41,2.41,2.44
293.63,2.85,0.41,2.85,0.40,-0.44,-0.32,-0.44,2.41,2.41,2.44
296.57,2.79,0.35,2.79,0.36,-0.39,-0.30,-0.42,2.40,2.40,2.44
299.53,2.73,0.33,2.73,0.33,-0.35,-0.29,-0.39,2.39,2.39,2.41
302.53,2.68,0.33,2.68,0.31,-0.32,-0.27,-0.36,2.36,2.36,2.35
305.55,2.63,0.29,2.63,0.29,-0.30,-0.25,-0.33,2.32,2.32,2.34
308.61,2.58,0.27,2.58,0.29,-0.29,-0.24,-0.31,2.28,2.28,2.31
311.69,2.53,0.28,2.53,0.29,-0.28,-0.22,-0.28,2.25,2.25,2.25
314.81,2.49,0.32,2.49,0.30,-0.27,-0.20,-0.25,2.22,2.22,2.17
317.96,2.44,0.30,2.44,0.29,-0.25,-0.19,-0.22,2.19,2.19,2.14
321.14,2.40,0.26,2.40,0.26,-0.23,-0.17,-0.19,2.17,2.17,2.14
324.35,2.35,0.21,2.35,0.20,-0.21,-0.16,-0.16,2.13,2.13,2.14
327.59,2.30,0.16,2.30,0.16,-0.20,-0.14,-0.14,2.10,2.10,2.14
330.87,2.24,0.12,2.24,0.14,-0.19,-0.12,-0.11,2.06,2.06,2.12
334.18,2.19,0.14,2.19,0.13,-0.17,-0.11,-0.08,2.02,2.02,2.06
337.52,2.14,0.15,2.14,0.15,-0.15,-0.09,-0.05,1.99,1.99,1.99
340.90,2.09,0.17,2.09,0.17,-0.13,-0.08,-0.02,1.96,1.96,1.92
344.30,2.04,0.19,2.04,0.18,-0.11,-0.06,0.01,1.93,1.93,1.85
347.75,1.99,0.15,1.99,0.13,-0.10,-0.04,0.04,1.89,1.89,1.84
351.23,1.94,0.08,1.94,0.06,-0.08,-0.03,0.07,1.86,1.86,1.86
354.74,1.89,-0.04,1.89,0.00,-0.05,-0.01,0.10,1.84,1.84,1.93
358.28,1.84,-0.03,1.84,-0.02,-0.02,0.01,0.13,1.82,1.82,1.87
361.87,1.80,-0.01,1.80,-0.02,0.01,0.02,0.16,1.80,1.80,1.80
365.49,1.75,0.01,1.75,-0.01,0.04,0.04,0.18,1.79,1.79,1.74
369.14,1.70,-0.04,1.70,-0.04,0.06,0.06,0.21,1.76,1.76,1.74
372.83,1.66,-0.08,1.66,-0.07,0.08,0.07,0.24,1.73,1.73,1.74
376.56,1.61,-0.12,1.61,-0.10,0.09,0.09,0.27,1.71,1.70,1.73
380.33,1.57,-0.10,1.57,-0.11,0.11,0.11,0.30,1.68,1.68,1.67
384.13,1.53,-0.11,1.53,-0.13,0.12,0.12,0.33,1.65,1.65,1.64
387.97,1.48,-0.16,1.48,-0.15,0.14,0.14,0.36,1.63,1.63,1.64
391.85,1.44,-0.20,1.44,-0.18,0.17,0.16,0.39,1.61,1.61,1.64
395.77,1.39,-0.19,1.39,-0.19,0.19,0.18,0.42,1.58,1.58,1.58
399.73,1.35,-0.19,1.35,-0.21,0.22,0.19,0.45,1.57,1.57,1.54
403.72,1.31,-0.23,1.31,-0.23,0.25,0.21,0.48,1.56,1.56,1.54
407.76,1.26,-0.28,1.26,-0.26,0.29,0.23,0.51,1.56,1.56,1.54
411.84,1.22,-0.32,1.22,-0.32,0.33,0.25,0.54,1.55,1.55,1.54
415.96,1.18,-0.36,1.18,-0.39,0.37,0.27,0.57,1.55,1.55,1.54
420.12,1.14,-0.47,1.14,-0.44,0.42,0.29,0.60,1.56,1.56,1.61
424.32,1.10,-0.50,1.10,-0.48,0.46,0.31,0.63,1.56,1.56,1.60
428.56,1.06,-0.48,1.06,-0.51,0.50,0.33,0.66,1.56,1.56,1.54
432.85,1.02,-0.52,1.02,-0.52,0.54,0.36,0.69,1.56,1.56,1.54
437.18,0.99,-0.55,0.99,-0.55,0.57,0.38,0.72,1.55,1.55,1.54
441.55,0.95,-0.59,0.95,-0.59,0.59,0.41,0.75,1.54,1.54,1.54
445.96,0.91,-0.63,0.91,-0.61,0.60,0.43,0.78,1.52,1.52,1.54
450.42,0.88,-0.61,0.88,-0.62,0.61,0.46,0.80,1.49,1.49,1.49
454.93,0.84,-0.60,0.84,-0.62,0.61,0.49,0.83,1.45,1.45,1.44
459.48,0.80,-0.64,0.80,-0.62,0.60,0.52,0.85,1.40,1.41,1.44
464.07,0.77,-0.61,0.77,-0.61,0.59,0.56,0.88,1.36,1.36,1.38
468.71,0.73,-0.58,0.73,-0.58,0.57,0.59,0.90,1.31,1.31,1.31
473.40,0.70,-0.55,0.70,-0.54,0.56,0.63,0.93,1.26,1.26,1.25
478.13,0.66,-0.52,0.66,-0.52,0.55,0.67,0.95,1.22,1.22,1.18
482.91,0.63,-0.51,0.63,-0.52,0.55,0.71,0.97,1.18,1.18,1.14
487.74,0.59,-0.55,0.59,-0.54,0.56,0.74,0.99,1.15,1.15,1.14
492.62,0.56,-0.58,0.56,-0.58,0.58,0.77,1.01,1.14,1.14,1.14
497.55,0.53,-0.61,0.53,-0.61,0.60,0.79,1.03,1.13,1.13,1.14
502.52,0.49,-0.65,0.49,-0.65,0.63,0.81,1.05,1.13,1.13,1.14
507.55,0.46,-0.68,0.46,-0.68,0.67,0.82,1.06,1.13,1.13,1.14
512.62,0.43,-0.71,0.43,-0.71,0.71,0.82,1.08,1.14,1.14,1.14
