frequency,raw,error,smoothed,error_smoothed,equalization,parametric_eq,fixed_band_eq,equalized_raw,equalized_smoothed,target
20.00,-0.41,-8.24,-0.41,-8.23,6.00,7.02,2.77,5.59,5.59,7.83
20.20,-0.38,-8.21,-0.39,-8.21,6.00,7.00,2.85,5.62,5.61,7.83
20.40,-0.36,-8.18,-0.36,-8.18,6.00,6.98,2.93,5.64,5.64,7.82
20.61,-0.33,-8.15,-0.32,-8.14,6.00,6.83,3.01,5.67,5.68,7.82
20.81,-0.27,-8.08,-0.27,-8.08,6.00,6.69,3.10,5.73,5.73,7.81
21.02,-0.20,-8.01,-0.21,-8.01,6.00,6.51,3.19,5.80,5.79,7.81
21.23,-0.14,-7.94,-0.14,-7.94,6.00,6.34,3.28,5.86,5.86,7.80
21.44,-0.07,-7.87,-0.07,-7.87,6.00,6.19,3.37,5.93,5.93,7.80
21.66,0.02,-7.78,0.01,-7.78,6.00,6.04,3.47,6.02,6.01,7.80
21.87,0.11,-7.69,0.12,-7.68,6.00,5.93,3.57,6.11,6.12,7.80
22.09,0.24,-7.56,0.25,-7.55,6.00,5.82,3.67,6.24,6.25,7.80
22.31,0.40,-7.41,0.40,-7.41,6.00,5.76,3.77,6.40,6.40,7.81
22.54,0.57,-7.24,0.57,-7.24,6.00,5.69,3.88,6.57,6.57,7.81
22.76,0.74,-7.07,0.74,-7.07,6.00,5.66,3.99,6.74,6.74,7.81
22.99,0.90,-6.92,0.89,-6.92,6.00,5.63,4.10,6.90,6.89,7.82
23.22,1.01,-6.80,1.01,-6.80,6.00,5.62,4.21,7.01,7.01,7.81
23.45,1.06,-6.73,1.06,-6.74,6.00,5.61,4.33,7.06,7.06,7.80
23.69,1.06,-6.72,1.06,-6.72,6.00,5.62,4.45,7.06,7.06,7.78
23.92,0.99,-6.76,0.99,-6.76,6.00,5.63,4.57,6.99,6.99,7.75
24.16,0.89,-6.84,0.88,-6.85,6.00,5.65,4.70,6.89,6.88,7.73
24.40,0.75,-6.96,0.75,-6.97,6.00,5.67,4.83,6.75,6.75,7.71
24.65,0.61,-7.10,0.62,-7.09,6.00,5.69,4.96,6.61,6.62,7.71
24.89,0.51,-7.21,0.52,-7.21,6.00,5.72,5.09,6.51,6.52,7.72
25.14,0.47,-7.29,0.47,-7.29,6.00,5.75,5.22,6.47,6.47,7.75
25.39,0.46,-7.33,0.47,-7.32,6.00,5.78,5.35,6.46,6.47,7.79
25.65,0.52,-7.31,0.52,-7.31,6.00,5.81,5.49,6.52,6.52,7.83
25.91,0.59,-7.27,0.59,-7.27,6.00,5.84,5.62,6.59,6.59,7.86
26.16,0.65,-7.22,0.65,-7.22,6.00,5.86,5.76,6.65,6.65,7.87
26.43,0.69,-7.16,0.68,-7.16,6.00,5.89,5.89,6.69,6.68,7.85
26.69,0.69,-7.11,0.69,-7.11,6.00,5.91,6.02,6.69,6.69,7.80
26.96,0.68,-7.06,0.68,-7.07,6.00,5.93,6.15,6.68,6.68,7.75
27.23,0.67,-7.03,0.67,-7.03,6.00,5.95,6.28,6.67,6.67,7.70
27.50,0.67,-7.00,0.68,-6.99,6.00,5.97,6.41,6.67,6.68,7.67
27.77,0.71,-6.95,0.72,-6.95,6.00,5.98,6.53,6.71,6.72,7.66
28.05,0.78,-6.89,0.78,-6.89,6.00,5.99,6.65,6.78,6.78,7.67
28.33,0.87,-6.81,0.86,-6.81,6.00,6.00,6.76,6.87,6.86,7.68
28.62,0.95,-6.72,0.94,-6.72,6.00,6.01,6.87,6.95,6.94,7.67
28.90,1.01,-6.63,1.01,-6.63,6.00,6.01,6.97,7.01,7.01,7.64
29.19,1.05,-6.55,1.05,-6.55,6.00,6.01,7.06,7.05,7.05,7.60
29.48,1.08,-6.47,1.08,-6.47,6.00,6.01,7.14,7.08,7.08,7.55
29.78,1.10,-6.41,1.10,-6.41,6.00,6.01,7.22,7.10,7.10,7.51
30.08,1.14,-6.36,1.14,-6.36,6.00,6.01,7.28,7.14,7.14,7.49
30.38,1.19,-6.31,1.20,-6.31,6.00,6.01,7.33,7.19,7.20,7.50
30.68,1.26,-6.27,1.26,-6.27,6.00,6.00,7.37,7.26,7.26,7.53
30.99,1.30,-6.25,1.30,-6.25,6.00,6.00,7.41,7.30,7.30,7.55
31.30,1.31,-6.24,1.30,-6.24,6.00,5.99,7.42,7.31,7.30,7.55
31.61,1.27,-6.26,1.26,-6.26,6.00,5.99,7.43,7.27,7.26,7.52
31.93,1.18,-6.29,1.18,-6.30,6.00,5.98,7.43,7.18,7.18,7.47
32.24,1.09,-6.34,1.09,-6.34,6.00,5.98,7.42,7.09,7.09,7.42
32.57,1.01,-6.37,1.02,-6.36,6.00,5.97,7.39,7.01,7.02,7.38
32.89,1.00,-6.36,1.01,-6.35,6.00,5.96,7.36,7.00,7.01,7.36
33.22,1.06,-6.29,1.06,-6.29,6.00,5.96,7.31,7.05,7.06,7.35
33.55,1.16,-6.20,1.16,-6.19,5.99,5.95,7.26,7.15,7.15,7.35
33.89,1.27,-6.08,1.26,-6.09,5.99,5.94,7.19,7.26,7.25,7.35
34.23,1.34,-6.00,1.33,-6.01,5.98,5.94,7.13,7.32,7.32,7.34
34.57,1.37,-5.95,1.36,-5.96,5.98,5.93,7.05,7.36,7.35,7.32
34.92,1.35,-5.95,1.35,-5.95,5.98,5.92,6.97,7.33,7.33,7.30
35.27,1.31,-5.97,1.31,-5.97,5.98,5.91,6.88,7.29,7.29,7.28
35.62,1.26,-6.00,1.27,-5.99,5.98,5.90,6.79,7.25,7.25,7.26
35.97,1.23,-6.01,1.23,-6.01,5.99,5.90,6.70,7.22,7.22,7.24
36.33,1.21,-6.02,1.21,-6.02,5.99,5.89,6.60,7.20,7.20,7.23
36.70,1.19,-6.02,1.18,-6.03,6.00,5.88,6.51,7.18,7.18,7.21
37.06,1.16,-6.04,1.16,-6.04,6.00,5.87,6.41,7.16,7.16,7.20
37.43,1.12,-6.05,1.13,-6.05,6.00,5.86,6.31,7.13,7.13,7.18
37.81,1.10,-6.05,1.10,-6.05,6.01,5.85,6.21,7.11,7.11,7.15
38.19,1.08,-6.05,1.08,-6.04,6.01,5.83,6.12,7.09,7.10,7.13
38.57,1.07,-6.02,1.06,-6.03,6.02,5.82,6.02,7.09,7.08,7.09
38.95,1.05,-6.02,1.04,-6.02,6.02,5.81,5.93,7.06,7.06,7.06
39.34,1.02,-6.02,1.02,-6.02,6.01,5.79,5.83,7.02,7.02,7.03
39.74,1.00,-6.01,1.00,-6.01,5.98,5.78,5.74,6.97,6.97,7.01
40.14,1.00,-5.99,1.00,-5.98,5.93,5.76,5.66,6.92,6.93,6.99
40.54,1.04,-5.93,1.05,-5.92,5.86,5.75,5.57,6.90,6.91,6.97
40.94,1.14,-5.82,1.14,-5.82,5.78,5.73,5.49,6.91,6.91,6.95
41.35,1.25,-5.69,1.25,-5.69,5.68,5.71,5.41,6.93,6.93,6.94
41.76,1.36,-5.56,1.35,-5.57,5.59,5.69,5.34,6.95,6.94,6.92
42.18,1.44,-5.46,1.44,-5.46,5.50,5.68,5.27,6.94,6.94,6.90
42.60,1.49,-5.38,1.49,-5.38,5.44,5.66,5.20,6.94,6.94,6.88
43.03,1.51,-5.33,1.51,-5.33,5.41,5.63,5.14,6.92,6.92,6.84
43.46,1.49,-5.32,1.49,-5.32,5.40,5.61,5.08,6.89,6.89,6.81
43.90,1.44,-5.35,1.44,-5.36,5.40,5.59,5.02,6.84,6.84,6.79
44.33,1.36,-5.41,1.36,-5.41,5.40,5.56,4.97,6.76,6.75,6.77
44.78,1.28,-5.47,1.28,-5.46,5.38,5.54,4.92,6.66,6.66,6.75
45.23,1.23,-5.48,1.25,-5.47,5.34,5.51,4.88,6.57,6.58,6.72
45.68,1.27,-5.41,1.28,-5.39,5.27,5.49,4.84,6.54,6.55,6.67
46.13,1.38,-5.25,1.38,-5.25,5.18,5.46,4.80,6.56,6.56,6.63
46.60,1.54,-5.06,1.53,-5.07,5.08,5.43,4.76,6.61,6.61,6.59
47.06,1.67,-4.89,1.67,-4.90,4.98,5.40,4.73,6.65,6.65,6.57
47.53,1.78,-4.77,1.77,-4.78,4.89,5.37,4.71,6.67,6.65,6.55
48.01,1.80,-4.73,1.80,-4.73,4.83,5.34,4.68,6.62,6.62,6.52
48.49,1.77,-4.73,1.77,-4.73,4.80,5.31,4.66,6.57,6.57,6.50
48.97,1.69,-4.77,1.69,-4.78,4.81,5.28,4.65,6.50,6.50,6.47
49.46,1.59,-4.84,1.59,-4.84,4.84,5.24,4.63,6.43,6.43,6.44
49.96,1.49,-4.92,1.50,-4.91,4.87,5.21,4.62,6.36,6.37,6.41
50.46,1.42,-4.96,1.42,-4.96,4.89,5.18,4.61,6.31,6.31,6.39
50.96,1.38,-4.97,1.39,-4.97,4.88,5.14,4.60,6.27,6.27,6.36
51.47,1.39,-4.94,1.40,-4.93,4.84,5.10,4.60,6.24,6.25,6.33
51.99,1.46,-4.84,1.46,-4.84,4.78,5.07,4.60,6.24,6.24,6.30
52.51,1.55,-4.72,1.56,-4.71,4.70,5.03,4.59,6.26,6.26,6.27
53.03,1.66,-4.58,1.65,-4.58,4.63,4.99,4.59,6.28,6.28,6.23
53.56,1.73,-4.47,1.72,-4.48,4.56,4.95,4.59,6.29,6.28,6.20
54.10,1.75,-4.42,1.74,-4.43,4.51,4.92,4.60,6.26,6.25,6.17
54.64,1.71,-4.42,1.70,-4.43,4.49,4.88,4.60,6.20,6.19,6.13
55.18,1.61,-4.48,1.62,-4.48,4.51,4.84,4.60,6.12,6.12,6.09
55.74,1.50,-4.56,1.51,-4.55,4.55,4.79,4.60,6.05,6.06,6.06
56.29,1.40,-4.63,1.41,-4.63,4.61,4.75,4.60,6.01,6.01,6.03
56.86,1.31,-4.69,1.30,-4.70,4.68,4.71,4.60,5.98,5.98,6.00
57.42,1.22,-4.75,1.21,-4.76,4.74,4.67,4.59,5.96,5.95,5.97
58.00,1.13,-4.81,1.14,-4.80,4.79,4.63,4.59,5.92,5.92,5.94
58.58,1.08,-4.83,1.08,-4.83,4.81,4.59,4.58,5.89,5.89,5.91
59.16,1.05,-4.84,1.05,-4.83,4.81,4.54,4.58,5.86,5.86,5.88
59.76,1.04,-4.80,1.04,-4.80,4.78,4.50,4.56,5.82,5.82,5.84
60.35,1.06,-4.74,1.06,-4.74,4.72,4.46,4.55,5.78,5.78,5.80
60.96,1.10,-4.67,1.10,-4.67,4.64,4.41,4.53,5.74,5.75,5.77
61.57,1.17,-4.57,1.17,-4.56,4.54,4.37,4.51,5.71,5.71,5.74
62.18,1.26,-4.45,1.26,-4.45,4.43,4.32,4.49,5.69,5.69,5.70
62.80,1.35,-4.31,1.35,-4.32,4.32,4.28,4.46,5.67,5.67,5.67
63.43,1.44,-4.19,1.44,-4.19,4.21,4.24,4.43,5.65,5.65,5.63
64.07,1.52,-4.08,1.52,-4.08,4.12,4.19,4.39,5.64,5.63,5.60
64.71,1.57,-4.00,1.57,-4.00,4.05,4.15,4.35,5.61,5.61,5.56
65.35,1.58,-3.94,1.58,-3.94,3.99,4.10,4.31,5.58,5.58,5.53
66.01,1.58,-3.92,1.57,-3.93,3.96,4.06,4.27,5.54,5.53,5.49
66.67,1.53,-3.94,1.53,-3.94,3.94,4.01,4.22,5.46,5.46,5.46
67.33,1.48,-3.96,1.48,-3.95,3.92,3.97,4.17,5.39,5.39,5.43
68.01,1.43,-3.97,1.44,-3.96,3.90,3.92,4.12,5.33,5.34,5.40
68.69,1.42,-3.94,1.43,-3.94,3.89,3.88,4.06,5.31,5.32,5.37
69.37,1.44,-3.89,1.44,-3.89,3.87,3.83,4.00,5.31,5.31,5.33
70.07,1.46,-3.83,1.45,-3.83,3.86,3.79,3.94,5.32,5.31,5.29
70.77,1.46,-3.79,1.45,-3.79,3.84,3.74,3.88,5.30,5.29,5.25
71.48,1.43,-3.77,1.43,-3.77,3.82,3.70,3.82,5.25,5.25,5.20
72.19,1.38,-3.78,1.38,-3.78,3.80,3.65,3.76,5.18,5.18,5.16
72.91,1.32,-3.79,1.32,-3.79,3.78,3.61,3.70,5.10,5.10,5.11
73.64,1.28,-3.79,1.28,-3.79,3.76,3.56,3.63,5.04,5.04,5.07
74.38,1.27,-3.77,1.27,-3.77,3.73,3.52,3.57,5.00,5.00,5.04
75.12,1.28,-3.73,1.28,-3.73,3.70,3.48,3.51,4.98,4.98,5.01
75.87,1.32,-3.67,1.31,-3.67,3.66,3.43,3.44,4.97,4.97,4.98
76.63,1.35,-3.60,1.35,-3.60,3.60,3.39,3.38,4.95,4.95,4.95
77.40,1.38,-3.53,1.38,-3.53,3.55,3.35,3.32,4.93,4.93,4.92
78.17,1.40,-3.47,1.40,-3.47,3.49,3.30,3.26,4.90,4.90,4.87
78.95,1.42,-3.41,1.42,-3.42,3.45,3.26,3.20,4.86,4.86,4.83
79.74,1.42,-3.38,1.42,-3.38,3.41,3.22,3.14,4.83,4.82,4.80
80.54,1.41,-3.36,1.41,-3.36,3.37,3.17,3.09,4.78,4.78,4.77
81.35,1.39,-3.34,1.39,-3.34,3.34,3.13,3.03,4.73,4.73,4.73
82.16,1.37,-3.32,1.37,-3.33,3.30,3.09,2.98,4.67,4.67,4.69
82.98,1.35,-3.30,1.35,-3.30,3.27,3.05,2.93,4.62,4.62,4.65
83.81,1.35,-3.27,1.36,-3.26,3.23,3.01,2.88,4.57,4.58,4.62
84.65,1.38,-3.19,1.38,-3.19,3.18,2.96,2.83,4.56,4.56,4.57
85.50,1.41,-3.12,1.41,-3.12,3.14,2.92,2.79,4.55,4.55,4.53
86.35,1.44,-3.06,1.43,-3.06,3.09,2.88,2.75,4.53,4.52,4.50
87.22,1.44,-3.01,1.44,-3.02,3.03,2.84,2.70,4.48,4.47,4.46
88.09,1.43,-2.98,1.44,-2.98,2.98,2.80,2.66,4.41,4.41,4.42
88.97,1.43,-2.95,1.43,-2.95,2.92,2.76,2.63,4.35,4.35,4.37
89.86,1.43,-2.91,1.43,-2.90,2.88,2.72,2.59,4.31,4.31,4.33
90.76,1.45,-2.85,1.45,-2.85,2.84,2.69,2.56,4.29,4.29,4.30
91.66,1.47,-2.79,1.47,-2.79,2.82,2.65,2.53,4.28,4.28,4.26
92.58,1.48,-2.74,1.47,-2.75,2.79,2.61,2.50,4.27,4.26,4.22
93.51,1.45,-2.73,1.45,-2.73,2.77,2.57,2.47,4.22,4.22,4.18
94.44,1.40,-2.74,1.40,-2.74,2.75,2.53,2.44,4.15,4.15,4.14
95.39,1.34,-2.76,1.34,-2.75,2.72,2.50,2.42,4.06,4.07,4.10
96.34,1.30,-2.75,1.31,-2.74,2.69,2.46,2.40,3.99,4.01,4.05
97.30,1.31,-2.71,1.31,-2.70,2.66,2.42,2.38,3.97,3.97,4.01
98.28,1.34,-2.63,1.34,-2.63,2.62,2.39,2.36,3.96,3.96,3.97
99.26,1.38,-2.55,1.37,-2.56,2.57,2.35,2.34,3.95,3.94,3.93
100.25,1.41,-2.48,1.40,-2.49,2.52,2.32,2.32,3.92,3.92,3.89
101.25,1.42,-2.43,1.42,-2.43,2.46,2.28,2.31,3.88,3.88,3.86
102.27,1.43,-2.39,1.43,-2.38,2.39,2.25,2.29,3.83,3.83,3.82
103.29,1.44,-2.34,1.44,-2.34,2.34,2.21,2.28,3.78,3.78,3.78
104.32,1.45,-2.29,1.45,-2.29,2.28,2.18,2.27,3.73,3.73,3.74
105.37,1.46,-2.24,1.46,-2.24,2.23,2.14,2.25,3.69,3.69,3.70
106.42,1.47,-2.19,1.47,-2.19,2.18,2.11,2.24,3.65,3.65,3.66
107.48,1.47,-2.15,1.48,-2.15,2.14,2.08,2.23,3.61,3.61,3.62
108.56,1.48,-2.10,1.49,-2.10,2.09,2.05,2.22,3.58,3.58,3.58
109.64,1.49,-2.04,1.50,-2.04,2.05,2.01,2.21,3.55,3.55,3.54
110.74,1.50,-1.99,1.50,-2.00,2.02,1.98,2.20,3.52,3.52,3.50
111.85,1.49,-1.97,1.49,-1.97,1.99,1.95,2.19,3.48,3.48,3.46
112.97,1.47,-1.96,1.47,-1.96,1.96,1.92,2.18,3.43,3.43,3.43
114.10,1.44,-1.95,1.44,-1.95,1.95,1.89,2.17,3.38,3.38,3.39
115.24,1.41,-1.94,1.41,-1.94,1.93,1.86,2.16,3.34,3.34,3.35
116.39,1.39,-1.93,1.38,-1.93,1.93,1.83,2.15,3.31,3.31,3.31
117.55,1.36,-1.92,1.36,-1.92,1.92,1.80,2.14,3.28,3.28,3.28
118.73,1.33,-1.91,1.33,-1.91,1.92,1.77,2.13,3.25,3.25,3.24
119.92,1.30,-1.91,1.30,-1.91,1.91,1.74,2.11,3.21,3.21,3.22
121.12,1.28,-1.90,1.27,-1.90,1.90,1.72,2.09,3.18,3.18,3.18
122.33,1.25,-1.88,1.25,-1.89,1.89,1.69,2.08,3.14,3.14,3.13
123.55,1.23,-1.87,1.23,-1.87,1.87,1.66,2.06,3.09,3.09,3.10
124.79,1.21,-1.85,1.21,-1.85,1.84,1.63,2.04,3.05,3.05,3.06
126.03,1.20,-1.82,1.20,-1.82,1.81,1.61,2.02,3.01,3.01,3.03
127.29,1.21,-1.78,1.21,-1.78,1.77,1.58,1.99,2.97,2.97,2.99
128.57,1.22,-1.73,1.23,-1.73,1.72,1.55,1.97,2.94,2.95,2.95
129.85,1.25,-1.67,1.25,-1.67,1.67,1.53,1.94,2.92,2.92,2.91
131.15,1.27,-1.60,1.27,-1.61,1.62,1.50,1.92,2.89,2.89,2.87
132.46,1.28,-1.55,1.28,-1.55,1.57,1.48,1.89,2.85,2.85,2.84
133.79,1.29,-1.51,1.29,-1.51,1.52,1.45,1.86,2.81,2.81,2.80
135.12,1.29,-1.47,1.29,-1.47,1.47,1.43,1.83,2.76,2.76,2.76
136.48,1.29,-1.43,1.29,-1.43,1.43,1.41,1.79,2.72,2.72,2.72
137.84,1.29,-1.39,1.28,-1.39,1.39,1.38,1.76,2.68,2.67,2.68
139.22,1.28,-1.36,1.28,-1.36,1.35,1.36,1.73,2.63,2.63,2.64
140.61,1.28,-1.32,1.28,-1.32,1.32,1.34,1.69,2.60,2.60,2.60
142.02,1.28,-1.28,1.28,-1.28,1.28,1.32,1.65,2.56,2.56,2.56
143.44,1.28,-1.25,1.28,-1.25,1.25,1.29,1.62,2.52,2.52,2.52
144.87,1.28,-1.21,1.28,-1.21,1.21,1.27,1.58,2.49,2.49,2.49
146.32,1.27,-1.18,1.27,-1.18,1.18,1.25,1.54,2.45,2.45,2.45
147.78,1.27,-1.14,1.26,-1.15,1.15,1.23,1.51,2.42,2.41,2.41
149.26,1.25,-1.12,1.25,-1.12,1.12,1.21,1.47,2.38,2.37,2.37
150.75,1.24,-1.09,1.24,-1.09,1.09,1.19,1.43,2.33,2.33,2.34
152.26,1.23,-1.07,1.23,-1.07,1.07,1.17,1.40,2.29,2.30,2.30
153.78,1.22,-1.05,1.22,-1.05,1.04,1.15,1.36,2.26,2.26,2.26
155.32,1.20,-1.02,1.20,-1.02,1.02,1.13,1.32,2.22,2.22,2.23
156.88,1.19,-0.99,1.19,-0.99,1.00,1.11,1.28,2.19,2.19,2.19
158.44,1.18,-0.97,1.18,-0.97,0.97,1.09,1.25,2.15,2.15,2.15
160.03,1.17,-0.94,1.17,-0.95,0.95,1.07,1.21,2.12,2.12,2.11
161.63,1.15,-0.92,1.15,-0.92,0.92,1.06,1.18,2.08,2.08,2.08
163.24,1.14,-0.90,1.14,-0.90,0.90,1.04,1.14,2.03,2.03,2.04
164.88,1.12,-0.88,1.13,-0.88,0.87,1.02,1.11,1.99,2.00,2.00
166.53,1.12,-0.85,1.12,-0.85,0.84,1.00,1.07,1.96,1.96,1.97
168.19,1.11,-0.82,1.11,-0.82,0.82,0.99,1.04,1.93,1.93,1.93
169.87,1.11,-0.79,1.10,-0.79,0.79,0.97,1.00,1.90,1.89,1.89
171.57,1.10,-0.76,1.10,-0.76,0.76,0.95,0.97,1.86,1.86,1.85
173.29,1.08,-0.73,1.08,-0.73,0.74,0.94,0.94,1.82,1.82,1.82
175.02,1.07,-0.71,1.07,-0.71,0.72,0.92,0.91,1.79,1.79,1.78
176.77,1.05,-0.69,1.05,-0.70,0.69,0.91,0.88,1.75,1.75,1.75
178.54,1.04,-0.68,1.04,-0.68,0.67,0.89,0.85,1.71,1.71,1.72
180.32,1.03,-0.66,1.03,-0.66,0.66,0.88,0.82,1.68,1.68,1.69
182.13,1.01,-0.64,1.01,-0.64,0.64,0.86,0.79,1.65,1.65,1.65
183.95,1.00,-0.62,1.00,-0.62,0.62,0.85,0.76,1.62,1.62,1.62
185.79,0.99,-0.60,0.99,-0.60,0.60,0.83,0.73,1.59,1.59,1.59
187.65,0.97,-0.58,0.97,-0.58,0.58,0.82,0.71,1.55,1.55,1.55
189.52,0.95,-0.57,0.95,-0.57,0.57,0.80,0.68,1.52,1.52,1.52
191.42,0.94,-0.55,0.94,-0.55,0.55,0.79,0.65,1.48,1.48,1.49
193.33,0.92,-0.53,0.92,-0.53,0.53,0.78,0.63,1.45,1.45,1.45
195.27,0.90,-0.51,0.90,-0.51,0.52,0.76,0.60,1.42,1.42,1.41
197.22,0.88,-0.50,0.88,-0.50,0.50,0.75,0.58,1.38,1.39,1.39
199.19,0.87,-0.49,0.87,-0.48,0.49,0.74,0.56,1.36,1.36,1.36
201.18,0.86,-0.47,0.86,-0.47,0.47,0.73,0.53,1.33,1.33,1.33
203.19,0.84,-0.46,0.84,-0.46,0.46,0.72,0.51,1.30,1.30,1.30
205.23,0.82,-0.44,0.83,-0.44,0.45,0.70,0.49,1.27,1.27,1.27
207.28,0.81,-0.43,0.81,-0.43,0.43,0.69,0.47,1.24,1.24,1.24
209.35,0.79,-0.42,0.79,-0.42,0.42,0.68,0.45,1.21,1.21,1.21
211.44,0.77,-0.41,0.77,-0.41,0.41,0.67,0.43,1.18,1.18,1.18
213.56,0.76,-0.39,0.76,-0.39,0.39,0.66,0.41,1.15,1.15,1.15
215.69,0.74,-0.38,0.74,-0.38,0.38,0.65,0.39,1.12,1.12,1.12
217.85,0.73,-0.36,0.73,-0.36,0.36,0.64,0.37,1.09,1.09,1.09
220.03,0.71,-0.35,0.71,-0.35,0.35,0.63,0.36,1.06,1.06,1.06
222.23,0.69,-0.34,0.69,-0.34,0.34,0.62,0.34,1.03,1.03,1.03
224.45,0.67,-0.32,0.67,-0.33,0.33,0.61,0.33,1.00,1.00,1.00
226.70,0.66,-0.32,0.66,-0.32,0.32,0.60,0.31,0.98,0.97,0.97
228.96,0.64,-0.31,0.64,-0.31,0.31,0.59,0.30,0.95,0.95,0.95
231.25,0.62,-0.30,0.62,-0.30,0.30,0.58,0.28,0.92,0.92,0.92
233.57,0.59,-0.30,0.59,-0.30,0.30,0.57,0.27,0.89,0.89,0.89
235.90,0.57,-0.29,0.57,-0.29,0.29,0.57,0.26,0.86,0.86,0.87
238.26,0.55,-0.28,0.55,-0.28,0.28,0.56,0.25,0.84,0.84,0.84
240.64,0.53,-0.28,0.53,-0.28,0.28,0.55,0.24,0.81,0.81,0.81
243.05,0.51,-0.27,0.51,-0.27,0.27,0.54,0.23,0.78,0.78,0.78
245.48,0.49,-0.27,0.49,-0.27,0.27,0.53,0.23,0.76,0.76,0.76
247.93,0.47,-0.26,0.47,-0.26,0.26,0.53,0.22,0.73,0.73,0.73
250.41,0.45,-0.25,0.45,-0.25,0.25,0.52,0.22,0.70,0.70,0.70
252.92,0.43,-0.25,0.43,-0.25,0.25,0.51,0.21,0.67,0.67,0.67
255.45,0.40,-0.24,0.40,-0.24,0.24,0.50,0.21,0.65,0.65,0.65
258.00,0.38,-0.24,0.38,-0.24,0.24,0.50,0.21,0.62,0.62,0.63
260.58,0.36,-0.23,0.36,-0.23,0.23,0.49,0.21,0.59,0.59,0.60
263.19,0.34,-0.23,0.34,-0.23,0.23,0.48,0.21,0.57,0.57,0.57
265.82,0.32,-0.22,0.32,-0.22,0.22,0.48,0.21,0.54,0.54,0.54
268.48,0.30,-0.21,0.30,-0.21,0.21,0.47,0.21,0.51,0.51,0.51
271.16,0.28,-0.21,0.28,-0.21,0.21,0.47,0.21,0.48,0.48,0.48
273.87,0.25,-0.20,0.25,-0.20,0.20,0.46,0.22,0.46,0.46,0.46
276.61,0.23,-0.20,0.23,-0.20,0.20,0.46,0.22,0.43,0.43,0.43
279.38,0.21,-0.20,0.21,-0.20,0.19,0.45,0.22,0.40,0.40,0.40
282.17,0.18,-0.19,0.18,-0.19,0.19,0.45,0.23,0.37,0.37,0.37
284.99,0.16,-0.19,0.16,-0.19,0.19,0.44,0.24,0.35,0.35,0.34
287.84,0.13,-0.19,0.13,-0.19,0.19,0.44,0.24,0.32,0.32,0.32
290.72,0.11,-0.19,0.11,-0.19,0.20,0.43,0.25,0.30,0.30,0.30
293.63,0.08,-0.20,0.08,-0.20,0.20,0.43,0.26,0.29,0.29,0.28
296.57,0.06,-0.21,0.06,-0.21,0.21,0.43,0.27,0.27,0.27,0.27
299.53,0.03,-0.22,0.03,-0.22,0.22,0.42,0.28,0.26,0.26,0.26
302.53,0.01,-0.24,0.01,-0.24,0.23,0.42,0.29,0.24,0.24,0.24
305.55,-0.02,-0.25,-0.02,-0.25,0.25,0.41,0.30,0.23,0.23,0.23
308.61,-0.05,-0.26,-0.05,-0.26,0.26,0.41,0.31,0.21,0.21,0.22
311.69,-0.07,-0.27,-0.07,-0.27,0.27,0.41,0.32,0.20,0.20,0.20
314.81,-0.10,-0.28,-0.10,-0.28,0.28,0.41,0.34,0.18,0.18,0.18
317.96,-0.12,-0.29,-0.12,-0.29,0.29,0.40,0.35,0.16,0.16,0.16
321.14,-0.15,-0.29,-0.15,-0.29,0.29,0.40,0.36,0.15,0.15,0.15
324.35,-0.17,-0.30,-0.17,-0.30,0.30,0.40,0.37,0.13,0.13,0.13
327.59,-0.20,-0.30,-0.20,-0.30,0.30,0.40,0.39,0.11,0.11,0.10
330.87,-0.23,-0.31,-0.23,-0.31,0.31,0.40,0.40,0.08,0.08,0.08
334.18,-0.25,-0.32,-0.25,-0.32,0.32,0.40,0.42,0.06,0.06,0.06
337.52,-0.28,-0.32,-0.28,-0.32,0.32,0.39,0.43,0.04,0.04,0.04
340.90,-0.31,-0.33,-0.31,-0.33,0.33,0.39,0.45,0.02,0.02,0.02
344.30,-0.33,-0.33,-0.33,-0.33,0.34,0.39,0.46,0.00,0.00,0.00
347.75,-0.36,-0.34,-0.36,-0.34,0.34,0.39,0.48,-0.02,-0.02,-0.02
351.23,-0.39,-0.35,-0.39,-0.35,0.35,0.39,0.50,-0.04,-0.04,-0.04
354.74,-0.42,-0.36,-0.42,-0.36,0.36,0.39,0.51,-0.05,-0.05,-0.06
358.28,-0.45,-0.37,-0.45,-0.37,0.37,0.39,0.53,-0.07,-0.07,-0.07
361.87,-0.47,-0.39,-0.47,-0.39,0.39,0.40,0.55,-0.09,-0.09,-0.09
365.49,-0.50,-0.40,-0.50,-0.40,0.40,0.40,0.57,-0.11,-0.11,-0.10
369.14,-0.53,-0.41,-0.53,-0.41,0.41,0.40,0.58,-0.12,-0.12,-0.12
372.83,-0.56,-0.42,-0.56,-0.42,0.42,0.40,0.60,-0.14,-0.14,-0.14
376.56,-0.59,-0.44,-0.59,-0.44,0.44,0.40,0.62,-0.15,-0.15,-0.16
380.33,-0.62,-0.45,-0.62,-0.45,0.45,0.40,0.64,-0.17,-0.17,-0.17
384.13,-0.65,-0.46,-0.65,-0.46,0.46,0.41,0.66,-0.19,-0.19,-0.19
387.97,-0.68,-0.47,-0.68,-0.47,0.47,0.41,0.68,-0.20,-0.20,-0.20
391.85,-0.71,-0.49,-0.71,-0.49,0.48,0.41,0.70,-0.22,-0.22,-0.22
395.77,-0.74,-0.50,-0.74,-0.50,0.50,0.42,0.72,-0.24,-0.24,-0.24
399.73,-0.77,-0.51,-0.76,-0.51,0.51,0.42,0.74,-0.25,-0.25,-0.26
403.72,-0.79,-0.52,-0.79,-0.52,0.52,0.43,0.76,-0.27,-0.27,-0.27
407.76,-0.82,-0.54,-0.82,-0.54,0.54,0.43,0.78,-0.29,-0.29,-0.29
411.84,-0.85,-0.55,-0.85,-0.55,0.55,0.44,0.80,-0.30,-0.30,-0.30
415.96,-0.88,-0.56,-0.88,-0.56,0.56,0.44,0.82,-0.31,-0.32,-0.32
420.12,-0.90,-0.57,-0.90,-0.57,0.57,0.45,0.84,-0.33,-0.33,-0.33
424.32,-0.93,-0.59,-0.93,-0.59,0.59,0.46,0.86,-0.35,-0.35,-0.35
428.56,-0.96,-0.60,-0.96,-0.60,0.60,0.46,0.88,-0.37,-0.37,-0.36
432.85,-0.99,-0.61,-0.99,-0.61,0.61,0.47,0.90,-0.38,-0.38,-0.38
437.18,-1.02,-0.62,-1.02,-0.62,0.62,0.48,0.91,-0.40,-0.40,-0.40
441.55,-1.05,-0.63,-1.05,-0.63,0.63,0.49,0.93,-0.42,-0.42,-0.42
445.96,-1.08,-0.64,-1.08,-0.64,0.64,0.50,0.95,-0.44,-0.44,-0.44
450.42,-1.11,-0.65,-1.11,-0.65,0.65,0.51,0.96,-0.46,-0.46,-0.46
454.93,-1.14,-0.66,-1.14,-0.66,0.66,0.52,0.98,-0.47,-0.47,-0.47
459.48,-1.17,-0.68,-1.17,-0.68,0.68,0.53,0.99,-0.49,-0.49,-0.49
464.07,-1.20,-0.69,-1.20,-0.69,0.69,0.55,1.00,-0.51,-0.51,-0.51
468.71,-1.23,-0.71,-1.23,-0.70,0.70,0.56,1.01,-0.52,-0.52,-0.52
473.40,-1.26,-0.72,-1.26,-0.72,0.72,0.57,1.02,-0.54,-0.54,-0.54
478.13,-1.29,-0.73,-1.29,-0.73,0.73,0.59,1.03,-0.55,-0.55,-0.55
482.91,-1.31,-0.75,-1.31,-0.75,0.75,0.60,1.04,-0.57,-0.57,-0.57
487.74,-1.34,-0.76,-1.34,-0.76,0.76,0.62,1.04,-0.58,-0.58,-0.58
492.62,-1.37,-0.78,-1.37,-0.78,0.78,0.64,1.05,-0.59,-0.59,-0.60
497.55,-1.40,-0.80,-1.40,-0.79,0.79,0.66,1.05,-0.61,-0.61,-0.61
502.52,-1.43,-0.81,-1.43,-0.81,0.81,0.67,1.05,-0.62,-0.62,-0.62
507.55,-1.46,-0.83,-1.46,-0.83,0.83,0.69,1.04,-0.63,-0.63,-0.63
512.62,-1.49,-0.85,-1.49,-0.85,0.85,0.71,1.04,-0.64,-0.64,-0.64
517.75,-1.52,-0.87,-1.52,-0.87,0.87,0.74,1.04,-0.65,-0.65,-0.65
522.93,-1.55,-0.89,-1.55,-0.89,0.89,0.76,1.03,-0.67,-0.67,-0.67
528.16,-1.58,-0.90,-1.58,-0.91,0.91,0.78,1.02,-0.68,-0.68,-0.68
533.44,-1.62,-0.93,-1.62,-0.93,0.93,0.81,1.01,-0.69,-0.69,-0.69
538.77,-1.65,-0.95,-1.65,-0.95,0.95,0.83,1.00,-0.70,-0.70,-0.70
544.16,-1.67,-0.97,-1.67,-0.97,0.97,0.86,0.99,-0.71,-0.71,-0.71
549.60,-1.70,-0.99,-1.70,-0.99,0.99,0.88,0.98,-0.71,-0.71,-0.71
