frequency,raw,error,smoothed,error_smoothed,equalization,parametric_eq,fixed_band_eq,equalized_raw,equalized_smoothed,target
20.00,6.47,-5.20,6.47,-5.20,5.20,-0.03,1.81,11.67,11.67,11.67
20.20,6.49,-5.17,6.49,-5.17,5.17,-0.03,1.87,11.66,11.66,11.66
20.40,6.52,-5.14,6.52,-5.14,5.14,-0.03,1.92,11.66,11.66,11.66
20.61,6.54,-5.11,6.54,-5.11,5.11,-0.03,1.98,11.66,11.66,11.65
20.81,6.57,-5.08,6.57,-5.08,5.08,-0.03,2.04,11.65,11.65,11.65
21.02,6.59,-5.05,6.59,-5.05,5.05,-0.03,2.10,11.64,11.64,11.64
21.23,6.61,-5.02,6.61,-5.02,5.02,-0.03,2.16,11.63,11.63,11.63
21.44,6.63,-4.99,6.63,-4.99,4.99,-0.03,2.23,11.62,11.62,11.62
21.66,6.65,-4.96,6.65,-4.96,4.96,-0.03,2.30,11.61,11.61,11.61
21.87,6.67,-4.93,6.67,-4.93,4.93,-0.03,2.37,11.60,11.60,11.60
22.09,6.69,-4.89,6.69,-4.89,4.89,-0.03,2.44,11.59,11.59,11.59
22.31,6.71,-4.86,6.71,-4.86,4.86,-0.03,2.51,11.57,11.57,11.57
22.54,6.74,-4.82,6.74,-4.82,4.82,-0.03,2.58,11.56,11.56,11.56
22.76,6.76,-4.79,6.76,-4.79,4.79,-0.04,2.66,11.54,11.54,11.54
22.99,6.77,-4.75,6.77,-4.75,4.76,-0.04,2.74,11.53,11.53,11.53
23.22,6.79,-4.72,6.79,-4.72,4.72,-0.04,2.82,11.51,11.51,11.51
23.45,6.81,-4.69,6.81,-4.69,4.69,-0.04,2.90,11.50,11.50,11.50
23.69,6.82,-4.65,6.82,-4.65,4.65,-0.04,2.98,11.48,11.48,11.48
23.92,6.84,-4.62,6.84,-4.62,4.62,-0.04,3.07,11.46,11.46,11.46
24.16,6.86,-4.58,6.86,-4.58,4.58,-0.04,3.16,11.43,11.43,11.44
24.40,6.87,-4.54,6.87,-4.54,4.54,-0.04,3.24,11.41,11.41,11.41
24.65,6.89,-4.50,6.89,-4.50,4.50,-0.04,3.33,11.39,11.39,11.39
24.89,6.91,-4.46,6.91,-4.46,4.45,-0.04,3.42,11.36,11.36,11.37
25.14,6.93,-4.41,6.93,-4.41,4.41,-0.04,3.51,11.34,11.34,11.34
25.39,6.95,-4.37,6.95,-4.37,4.37,-0.05,3.60,11.32,11.32,11.31
25.65,6.96,-4.32,6.96,-4.32,4.33,-0.05,3.69,11.29,11.29,11.29
25.91,6.98,-4.28,6.98,-4.28,4.28,-0.05,3.78,11.26,11.26,11.26
26.16,6.99,-4.24,6.99,-4.24,4.24,-0.05,3.87,11.23,11.23,11.23
26.43,7.00,-4.20,7.00,-4.20,4.20,-0.05,3.96,11.20,11.20,11.20
26.69,7.01,-4.17,7.01,-4.17,4.16,-0.05,4.05,11.17,11.17,11.17
26.96,7.01,-4.13,7.01,-4.13,4.12,-0.05,4.14,11.14,11.14,11.14
27.23,7.02,-4.09,7.02,-4.09,4.08,-0.05,4.22,11.11,11.11,11.11
27.50,7.04,-4.05,7.04,-4.05,4.04,-0.05,4.30,11.08,11.08,11.08
27.77,7.05,-4.01,7.05,-4.00,4.00,-0.06,4.38,11.05,11.05,11.05
28.05,7.05,-3.96,7.05,-3.96,3.96,-0.06,4.45,11.02,11.02,11.02
28.33,7.06,-3.92,7.06,-3.92,3.92,-0.06,4.51,10.98,10.98,10.98
28.62,7.06,-3.88,7.06,-3.88,3.88,-0.06,4.58,10.95,10.95,10.94
28.90,7.07,-3.84,7.07,-3.84,3.84,-0.06,4.63,10.91,10.91,10.91
29.19,7.07,-3.80,7.07,-3.80,3.80,-0.06,4.69,10.87,10.87,10.87
29.48,7.07,-3.76,7.07,-3.76,3.75,-0.06,4.73,10.83,10.83,10.83
29.78,7.08,-3.72,7.08,-3.72,3.71,-0.07,4.76,10.80,10.80,10.80
30.08,7.09,-3.67,7.09,-3.67,3.67,-0.07,4.79,10.77,10.77,10.76
30.38,7.10,-3.62,7.10,-3.63,3.64,-0.07,4.81,10.74,10.74,10.73
30.68,7.10,-3.59,7.10,-3.59,3.60,-0.07,4.82,10.70,10.70,10.69
30.99,7.10,-3.55,7.10,-3.55,3.56,-0.07,4.82,10.66,10.66,10.65
31.30,7.09,-3.52,7.09,-3.52,3.52,-0.07,4.81,10.61,10.61,10.61
31.61,7.08,-3.49,7.08,-3.49,3.48,-0.08,4.79,10.56,10.56,10.57
31.93,7.07,-3.46,7.08,-3.46,3.44,-0.08,4.77,10.51,10.51,10.53
32.24,7.08,-3.41,7.08,-3.41,3.39,-0.08,4.73,10.47,10.47,10.49
32.57,7.09,-3.35,7.10,-3.35,3.34,-0.08,4.69,10.44,10.44,10.45
32.89,7.12,-3.29,7.12,-3.29,3.29,-0.08,4.64,10.41,10.41,10.41
33.22,7.13,-3.23,7.13,-3.23,3.24,-0.08,4.57,10.38,10.38,10.36
33.55,7.15,-3.18,7.14,-3.18,3.20,-0.09,4.51,10.34,10.34,10.32
33.89,7.14,-3.14,7.14,-3.14,3.15,-0.09,4.43,10.30,10.29,10.28
34.23,7.13,-3.10,7.13,-3.10,3.11,-0.09,4.35,10.24,10.24,10.23
34.57,7.12,-3.07,7.12,-3.07,3.07,-0.09,4.26,10.19,10.19,10.19
34.92,7.11,-3.04,7.11,-3.03,3.02,-0.10,4.17,10.13,10.14,10.15
35.27,7.11,-2.99,7.11,-2.99,2.98,-0.10,4.07,10.09,10.09,10.10
35.62,7.11,-2.95,7.12,-2.95,2.94,-0.10,3.97,10.05,10.05,10.06
35.97,7.13,-2.89,7.13,-2.89,2.89,-0.10,3.86,10.01,10.01,10.02
36.33,7.14,-2.83,7.14,-2.83,2.83,-0.11,3.75,9.97,9.97,9.97
36.70,7.15,-2.77,7.15,-2.77,2.77,-0.11,3.64,9.93,9.93,9.93
37.06,7.17,-2.71,7.17,-2.71,2.71,-0.11,3.53,9.88,9.88,9.88
37.43,7.18,-2.65,7.18,-2.65,2.66,-0.11,3.41,9.83,9.83,9.83
37.81,7.19,-2.59,7.19,-2.59,2.60,-0.12,3.30,9.79,9.79,9.78
38.19,7.20,-2.53,7.20,-2.53,2.54,-0.12,3.18,9.74,9.74,9.73
38.57,7.21,-2.48,7.21,-2.48,2.48,-0.12,3.06,9.69,9.69,9.69
38.95,7.21,-2.43,7.21,-2.43,2.43,-0.13,2.94,9.64,9.64,9.64
39.34,7.21,-2.38,7.21,-2.38,2.36,-0.13,2.82,9.58,9.58,9.59
39.74,7.22,-2.32,7.22,-2.32,2.30,-0.13,2.70,9.52,9.52,9.54
40.14,7.23,-2.26,7.24,-2.25,2.24,-0.14,2.59,9.47,9.48,9.49
40.54,7.25,-2.18,7.25,-2.18,2.18,-0.14,2.47,9.43,9.43,9.44
40.94,7.27,-2.11,7.27,-2.11,2.12,-0.14,2.35,9.39,9.39,9.38
41.35,7.29,-2.04,7.28,-2.04,2.07,-0.15,2.23,9.35,9.35,9.33
41.76,7.28,-1.99,7.28,-1.99,2.02,-0.15,2.12,9.30,9.30,9.27
42.18,7.26,-1.95,7.26,-1.95,1.97,-0.16,2.00,9.23,9.23,9.21
42.60,7.24,-1.92,7.24,-1.92,1.92,-0.16,1.89,9.16,9.16,9.16
43.03,7.21,-1.89,7.21,-1.89,1.88,-0.17,1.78,9.09,9.09,9.10
43.46,7.19,-1.85,7.19,-1.84,1.83,-0.17,1.67,9.02,9.02,9.04
43.90,7.19,-1.79,7.19,-1.79,1.77,-0.18,1.56,8.95,8.95,8.98
44.33,7.19,-1.73,7.19,-1.72,1.70,-0.18,1.45,8.89,8.90,8.92
44.78,7.22,-1.64,7.22,-1.64,1.63,-0.19,1.34,8.84,8.85,8.86
45.23,7.25,-1.55,7.25,-1.55,1.55,-0.19,1.23,8.80,8.80,8.80
45.68,7.28,-1.45,7.28,-1.45,1.46,-0.20,1.13,8.75,8.75,8.74
46.13,7.31,-1.36,7.31,-1.36,1.38,-0.20,1.02,8.69,8.69,8.67
46.60,7.33,-1.28,7.33,-1.28,1.30,-0.21,0.92,8.63,8.62,8.61
47.06,7.33,-1.21,7.33,-1.21,1.22,-0.21,0.82,8.55,8.55,8.54
47.53,7.33,-1.14,7.33,-1.14,1.14,-0.22,0.72,8.47,8.47,8.47
48.01,7.32,-1.08,7.32,-1.08,1.07,-0.23,0.62,8.40,8.40,8.40
48.49,7.32,-1.02,7.32,-1.01,1.01,-0.23,0.52,8.33,8.33,8.33
48.97,7.32,-0.95,7.32,-0.95,0.94,-0.24,0.42,8.26,8.26,8.26
49.46,7.32,-0.88,7.31,-0.88,0.88,-0.25,0.33,8.19,8.19,8.19
49.96,7.31,-0.81,7.31,-0.81,0.81,-0.26,0.23,8.12,8.12,8.12
50.46,7.31,-0.74,7.31,-0.74,0.74,-0.27,0.14,8.05,8.05,8.05
50.96,7.30,-0.67,7.30,-0.67,0.67,-0.27,0.04,7.97,7.97,7.97
51.47,7.30,-0.60,7.30,-0.60,0.60,-0.28,-0.05,7.90,7.90,7.90
51.99,7.29,-0.53,7.29,-0.53,0.53,-0.29,-0.14,7.82,7.82,7.82
52.51,7.29,-0.46,7.29,-0.46,0.46,-0.30,-0.23,7.75,7.75,7.75
53.03,7.28,-0.39,7.28,-0.39,0.39,-0.31,-0.31,7.67,7.67,7.67
53.56,7.27,-0.32,7.27,-0.32,0.32,-0.32,-0.40,7.59,7.59,7.59
54.10,7.26,-0.25,7.26,-0.25,0.25,-0.33,-0.48,7.51,7.51,7.51
54.64,7.25,-0.18,7.25,-0.18,0.18,-0.35,-0.56,7.43,7.43,7.43
55.18,7.24,-0.11,7.24,-0.11,0.11,-0.36,-0.64,7.35,7.35,7.35
55.74,7.22,-0.04,7.22,-0.04,0.04,-0.37,-0.72,7.27,7.27,7.27
56.29,7.22,0.03,7.22,0.03,-0.03,-0.38,-0.79,7.18,7.18,7.19
56.86,7.21,0.10,7.21,0.10,-0.11,-0.40,-0.87,7.10,7.10,7.11
57.42,7.21,0.18,7.22,0.18,-0.19,-0.41,-0.94,7.03,7.03,7.03
58.00,7.22,0.27,7.22,0.27,-0.27,-0.43,-1.00,6.95,6.95,6.95
58.58,7.22,0.35,7.22,0.35,-0.35,-0.45,-1.07,6.87,6.87,6.87
59.16,7.22,0.43,7.22,0.43,-0.42,-0.46,-1.13,6.79,6.79,6.78
59.76,7.21,0.51,7.21,0.51,-0.50,-0.48,-1.19,6.71,6.71,6.70
60.35,7.20,0.58,7.20,0.58,-0.58,-0.50,-1.24,6.63,6.63,6.62
60.96,7.19,0.65,7.19,0.65,-0.65,-0.52,-1.29,6.54,6.54,6.55
61.57,7.18,0.71,7.18,0.71,-0.72,-0.54,-1.34,6.46,6.46,6.47
62.18,7.17,0.79,7.17,0.79,-0.79,-0.56,-1.39,6.38,6.38,6.38
62.80,7.16,0.86,7.16,0.86,-0.86,-0.59,-1.43,6.30,6.30,6.30
63.43,7.15,0.93,7.15,0.93,-0.93,-0.61,-1.47,6.22,6.22,6.22
64.07,7.14,1.00,7.14,1.00,-1.00,-0.64,-1.51,6.14,6.14,6.14
64.71,7.13,1.07,7.13,1.07,-1.07,-0.67,-1.54,6.06,6.06,6.06
65.35,7.12,1.14,7.12,1.14,-1.14,-0.70,-1.57,5.98,5.98,5.98
66.01,7.11,1.21,7.11,1.21,-1.21,-0.73,-1.60,5.90,5.90,5.90
66.67,7.10,1.28,7.10,1.28,-1.28,-0.77,-1.63,5.83,5.83,5.82
67.33,7.09,1.35,7.09,1.35,-1.35,-0.81,-1.65,5.75,5.75,5.75
68.01,7.08,1.41,7.08,1.41,-1.41,-0.85,-1.67,5.67,5.67,5.67
68.69,7.07,1.48,7.07,1.48,-1.48,-0.89,-1.69,5.59,5.59,5.59
69.37,7.06,1.54,7.06,1.54,-1.55,-0.93,-1.71,5.51,5.51,5.51
70.07,7.05,1.61,7.05,1.61,-1.62,-0.98,-1.73,5.43,5.43,5.43
70.77,7.04,1.68,7.04,1.68,-1.68,-1.03,-1.74,5.35,5.35,5.35
71.48,7.03,1.75,7.03,1.75,-1.75,-1.09,-1.76,5.28,5.28,5.27
72.19,7.01,1.82,7.01,1.82,-1.81,-1.15,-1.77,5.20,5.20,5.19
72.91,7.00,1.88,7.00,1.88,-1.88,-1.21,-1.78,5.12,5.12,5.11
73.64,6.98,1.94,6.98,1.94,-1.94,-1.28,-1.80,5.04,5.04,5.04
74.38,6.96,2.00,6.96,2.00,-2.00,-1.35,-1.81,4.96,4.96,4.96
75.12,6.95,2.06,6.95,2.06,-2.06,-1.42,-1.82,4.88,4.88,4.89
75.87,6.93,2.12,6.93,2.12,-2.12,-1.50,-1.83,4.81,4.81,4.81
76.63,6.92,2.18,6.92,2.18,-2.18,-1.59,-1.85,4.74,4.74,4.74
77.40,6.90,2.24,6.90,2.24,-2.23,-1.67,-1.86,4.67,4.67,4.66
78.17,6.88,2.29,6.88,2.29,-2.29,-1.76,-1.88,4.59,4.59,4.59
78.95,6.86,2.35,6.86,2.35,-2.35,-1.86,-1.89,4.52,4.52,4.51
79.74,6.84,2.40,6.84,2.40,-2.40,-1.95,-1.91,4.44,4.44,4.44
80.54,6.82,2.46,6.82,2.46,-2.46,-2.04,-1.93,4.36,4.36,4.36
81.35,6.80,2.51,6.80,2.51,-2.51,-2.13,-1.95,4.29,4.29,4.29
82.16,6.78,2.57,6.78,2.57,-2.57,-2.21,-1.97,4.21,4.21,4.21
82.98,6.76,2.62,6.76,2.62,-2.62,-2.29,-1.99,4.14,4.14,4.14
83.81,6.74,2.68,6.74,2.68,-2.68,-2.37,-2.01,4.07,4.07,4.07
84.65,6.73,2.73,6.73,2.73,-2.73,-2.43,-2.04,3.99,3.99,3.99
85.50,6.71,2.79,6.71,2.79,-2.79,-2.48,-2.07,3.92,3.92,3.92
86.35,6.69,2.84,6.69,2.84,-2.85,-2.53,-2.09,3.84,3.85,3.85
87.22,6.68,2.90,6.68,2.90,-2.91,-2.56,-2.13,3.77,3.77,3.78
88.09,6.66,2.96,6.66,2.96,-2.96,-2.59,-2.16,3.71,3.71,3.71
88.97,6.65,3.01,6.65,3.01,-3.01,-2.61,-2.19,3.64,3.64,3.63
89.86,6.63,3.06,6.62,3.06,-3.05,-2.63,-2.23,3.58,3.57,3.56
90.76,6.59,3.10,6.59,3.10,-3.09,-2.64,-2.27,3.50,3.50,3.49
91.66,6.55,3.13,6.55,3.13,-3.12,-2.65,-2.30,3.43,3.43,3.42
92.58,6.50,3.15,6.50,3.15,-3.15,-2.66,-2.35,3.35,3.35,3.35
93.51,6.45,3.17,6.45,3.17,-3.18,-2.68,-2.39,3.27,3.27,3.27
94.44,6.40,3.20,6.40,3.20,-3.21,-2.70,-2.43,3.19,3.19,3.20
95.39,6.36,3.22,6.36,3.22,-3.23,-2.73,-2.48,3.13,3.13,3.13
96.34,6.32,3.26,6.32,3.26,-3.26,-2.76,-2.53,3.06,3.06,3.07
97.30,6.29,3.29,6.29,3.29,-3.29,-2.80,-2.57,3.00,3.00,3.00
98.28,6.26,3.32,6.26,3.32,-3.32,-2.84,-2.62,2.94,2.94,2.94
99.26,6.23,3.35,6.23,3.35,-3.35,-2.89,-2.68,2.88,2.88,2.88
100.25,6.19,3.38,6.19,3.38,-3.38,-2.96,-2.73,2.81,2.81,2.81
101.25,6.16,3.41,6.16,3.41,-3.41,-3.02,-2.78,2.75,2.75,2.75
102.27,6.12,3.43,6.12,3.43,-3.43,-3.09,-2.83,2.70,2.69,2.69
103.29,6.08,3.45,6.08,3.45,-3.45,-3.17,-2.88,2.64,2.63,2.63
104.32,6.03,3.47,6.03,3.46,-3.46,-3.25,-2.94,2.57,2.57,2.57
105.37,5.98,3.47,5.98,3.47,-3.47,-3.34,-2.99,2.51,2.51,2.51
106.42,5.93,3.48,5.93,3.48,-3.48,-3.42,-3.04,2.45,2.45,2.45
107.48,5.89,3.49,5.89,3.49,-3.49,-3.51,-3.09,2.39,2.39,2.40
108.56,5.84,3.50,5.84,3.50,-3.50,-3.60,-3.14,2.33,2.33,2.34
109.64,5.79,3.50,5.79,3.50,-3.51,-3.69,-3.19,2.27,2.27,2.28
110.74,5.74,3.51,5.74,3.51,-3.52,-3.76,-3.23,2.22,2.22,2.23
111.85,5.69,3.52,5.69,3.52,-3.52,-3.84,-3.28,2.17,2.17,2.17
112.97,5.64,3.52,5.64,3.53,-3.51,-3.90,-3.31,2.13,2.13,2.12
114.10,5.59,3.52,5.59,3.52,-3.50,-3.96,-3.35,2.09,2.09,2.07
115.24,5.53,3.51,5.52,3.51,-3.48,-3.99,-3.38,2.04,2.04,2.02
116.39,5.44,3.47,5.44,3.47,-3.46,-4.02,-3.41,1.98,1.98,1.97
117.55,5.36,3.43,5.36,3.43,-3.44,-4.03,-3.43,1.92,1.92,1.92
118.73,5.27,3.39,5.27,3.39,-3.42,-4.03,-3.45,1.86,1.86,1.88
119.92,5.20,3.36,5.20,3.37,-3.40,-4.00,-3.46,1.80,1.80,1.83
121.12,5.14,3.35,5.15,3.36,-3.38,-3.97,-3.47,1.76,1.76,1.79
122.33,5.10,3.36,5.11,3.36,-3.37,-3.90,-3.47,1.73,1.73,1.74
123.55,5.07,3.37,5.07,3.37,-3.36,-3.84,-3.47,1.71,1.71,1.70
124.79,5.03,3.37,5.03,3.37,-3.35,-3.75,-3.45,1.68,1.68,1.66
126.03,4.98,3.35,4.98,3.35,-3.34,-3.65,-3.44,1.64,1.64,1.62
127.29,4.91,3.33,4.91,3.32,-3.31,-3.54,-3.41,1.59,1.59,1.58
128.57,4.83,3.28,4.83,3.29,-3.28,-3.43,-3.39,1.55,1.55,1.55
129.85,4.75,3.24,4.75,3.24,-3.24,-3.30,-3.35,1.50,1.50,1.51
131.15,4.66,3.19,4.66,3.19,-3.19,-3.18,-3.31,1.47,1.47,1.47
132.46,4.57,3.13,4.57,3.13,-3.13,-3.04,-3.26,1.44,1.44,1.44
133.79,4.47,3.06,4.47,3.06,-3.06,-2.91,-3.21,1.41,1.41,1.41
135.12,4.36,2.98,4.36,2.98,-2.98,-2.78,-3.15,1.38,1.38,1.38
136.48,4.25,2.90,4.25,2.90,-2.90,-2.64,-3.09,1.35,1.35,1.35
137.84,4.12,2.80,4.12,2.80,-2.80,-2.51,-3.02,1.32,1.32,1.32
139.22,3.98,2.69,3.98,2.69,-2.69,-2.38,-2.96,1.30,1.30,1.29
140.61,3.84,2.58,3.84,2.57,-2.56,-2.26,-2.88,1.27,1.27,1.26
142.02,3.68,2.44,3.68,2.44,-2.42,-2.13,-2.80,1.25,1.26,1.23
143.44,3.51,2.30,3.51,2.30,-2.27,-2.01,-2.72,1.24,1.24,1.21
144.87,3.33,2.14,3.32,2.14,-2.12,-1.90,-2.64,1.21,1.21,1.19
146.32,3.13,1.97,3.13,1.97,-1.96,-1.79,-2.56,1.17,1.17,1.16
147.78,2.94,1.80,2.94,1.80,-1.81,-1.67,-2.47,1.12,1.12,1.13
149.26,2.76,1.65,2.76,1.65,-1.68,-1.57,-2.38,1.07,1.08,1.11
150.75,2.61,1.53,2.61,1.53,-1.57,-1.47,-2.29,1.04,1.04,1.08
152.26,2.50,1.44,2.50,1.45,-1.49,-1.37,-2.20,1.00,1.01,1.06
153.78,2.44,1.40,2.44,1.40,-1.44,-1.27,-2.11,1.00,1.00,1.04
155.32,2.40,1.38,2.40,1.38,-1.40,-1.18,-2.02,0.99,1.00,1.02
156.88,2.39,1.39,2.39,1.39,-1.39,-1.09,-1.93,1.00,1.00,1.00
158.44,2.38,1.40,2.38,1.40,-1.38,-1.01,-1.84,1.00,1.00,0.98
160.03,2.37,1.40,2.36,1.40,-1.37,-0.92,-1.75,0.99,0.99,0.96
161.63,2.33,1.38,2.33,1.38,-1.35,-0.84,-1.66,0.98,0.98,0.95
163.24,2.28,1.35,2.28,1.35,-1.32,-0.76,-1.56,0.96,0.96,0.93
164.88,2.20,1.29,2.20,1.28,-1.26,-0.68,-1.47,0.94,0.94,0.92
166.53,2.10,1.19,2.10,1.20,-1.18,-0.60,-1.38,0.91,0.91,0.90
168.19,1.97,1.09,1.98,1.09,-1.08,-0.52,-1.29,0.89,0.89,0.89
169.87,1.84,0.97,1.84,0.97,-0.97,-0.45,-1.20,0.87,0.87,0.87
171.57,1.69,0.84,1.69,0.84,-0.84,-0.37,-1.11,0.85,0.85,0.86
173.29,1.54,0.69,1.54,0.69,-0.70,-0.29,-1.03,0.84,0.84,0.85
175.02,1.38,0.55,1.38,0.55,-0.56,-0.22,-0.94,0.83,0.83,0.84
176.77,1.23,0.40,1.23,0.40,-0.41,-0.14,-0.85,0.82,0.82,0.83
178.54,1.07,0.26,1.07,0.26,-0.26,-0.07,-0.77,0.81,0.81,0.82
180.32,0.92,0.11,0.92,0.11,-0.11,0.01,-0.68,0.80,0.80,0.80
182.13,0.76,-0.03,0.76,-0.03,0.03,0.08,-0.60,0.80,0.80,0.79
183.95,0.62,-0.17,0.62,-0.17,0.17,0.16,-0.51,0.79,0.79,0.78
185.79,0.47,-0.31,0.47,-0.31,0.31,0.24,-0.43,0.78,0.78,0.78
187.65,0.34,-0.44,0.34,-0.44,0.44,0.31,-0.35,0.77,0.78,0.78
189.52,0.21,-0.57,0.21,-0.57,0.56,0.39,-0.26,0.77,0.77,0.78
191.42,0.09,-0.68,0.09,-0.68,0.68,0.47,-0.18,0.77,0.77,0.77
193.33,-0.02,-0.78,-0.03,-0.78,0.79,0.55,-0.10,0.76,0.76,0.76
195.27,-0.14,-0.88,-0.14,-0.88,0.89,0.63,-0.02,0.75,0.75,0.74
197.22,-0.24,-0.97,-0.24,-0.97,0.98,0.71,0.06,0.74,0.74,0.73
199.19,-0.33,-1.06,-0.33,-1.06,1.05,0.78,0.13,0.72,0.72,0.73
201.18,-0.40,-1.13,-0.40,-1.13,1.12,0.86,0.21,0.72,0.72,0.72
203.19,-0.46,-1.18,-0.46,-1.18,1.17,0.93,0.29,0.71,0.71,0.72
205.23,-0.50,-1.22,-0.50,-1.22,1.22,1.00,0.36,0.71,0.71,0.72
207.28,-0.53,-1.25,-0.53,-1.25,1.24,1.06,0.43,0.72,0.72,0.72
209.35,-0.54,-1.26,-0.54,-1.26,1.26,1.12,0.51,0.72,0.72,0.72
211.44,-0.54,-1.26,-0.54,-1.26,1.26,1.17,0.58,0.72,0.72,0.72
213.56,-0.54,-1.25,-0.54,-1.25,1.25,1.21,0.64,0.72,0.72,0.72
215.69,-0.52,-1.24,-0.52,-1.24,1.23,1.25,0.71,0.71,0.71,0.71
217.85,-0.51,-1.21,-0.51,-1.21,1.21,1.27,0.78,0.70,0.70,0.71
220.03,-0.48,-1.18,-0.48,-1.18,1.18,1.29,0.84,0.69,0.69,0.69
222.23,-0.46,-1.14,-0.46,-1.14,1.14,1.30,0.90,0.69,0.69,0.68
224.45,-0.43,-1.10,-0.43,-1.10,1.11,1.30,0.96,0.68,0.68,0.67
226.70,-0.40,-1.07,-0.40,-1.07,1.07,1.29,1.01,0.67,0.67,0.67
228.96,-0.37,-1.03,-0.37,-1.03,1.04,1.27,1.07,0.67,0.67,0.67
231.25,-0.34,-1.00,-0.34,-1.00,1.00,1.25,1.12,0.66,0.66,0.66
233.57,-0.31,-0.97,-0.31,-0.97,0.97,1.22,1.17,0.66,0.66,0.66
235.90,-0.28,-0.94,-0.28,-0.94,0.94,1.19,1.21,0.66,0.66,0.66
238.26,-0.25,-0.91,-0.25,-0.91,0.91,1.15,1.25,0.66,0.66,0.66
240.64,-0.22,-0.88,-0.22,-0.88,0.88,1.11,1.29,0.66,0.66,0.66
243.05,-0.19,-0.85,-0.19,-0.85,0.85,1.07,1.32,0.66,0.66,0.66
245.48,-0.16,-0.82,-0.16,-0.82,0.82,1.02,1.35,0.67,0.67,0.66
247.93,-0.14,-0.80,-0.14,-0.80,0.80,0.98,1.38,0.67,0.67,0.66
250.41,-0.12,-0.78,-0.12,-0.78,0.78,0.94,1.40,0.67,0.66,0.66
252.92,-0.10,-0.76,-0.10,-0.76,0.76,0.90,1.42,0.66,0.66,0.66
255.45,-0.09,-0.75,-0.09,-0.75,0.74,0.86,1.43,0.66,0.66,0.66
258.00,-0.07,-0.73,-0.07,-0.73,0.73,0.82,1.44,0.66,0.66,0.66
260.58,-0.06,-0.72,-0.06,-0.72,0.71,0.78,1.45,0.66,0.66,0.66
263.19,-0.04,-0.70,-0.04,-0.70,0.70,0.75,1.45,0.66,0.66,0.66
265.82,-0.03,-0.69,-0.03,-0.69,0.69,0.71,1.45,0.66,0.66,0.66
268.48,-0.02,-0.68,-0.02,-0.68,0.68,0.68,1.45,0.67,0.67,0.66
271.16,-0.01,-0.67,-0.01,-0.67,0.68,0.65,1.45,0.67,0.67,0.66
273.87,-0.01,-0.67,-0.01,-0.67,0.67,0.63,1.44,0.67,0.66,0.66
276.61,-0.01,-0.67,-0.01,-0.67,0.67,0.60,1.43,0.66,0.66,0.66
279.38,-0.01,-0.67,-0.01,-0.67,0.67,0.58,1.42,0.66,0.66,0.66
282.17,-0.01,-0.67,-0.01,-0.67,0.66,0.56,1.40,0.66,0.66,0.66
284.99,-0.00,-0.67,-0.00,-0.67,0.66,0.54,1.39,0.66,0.66,0.66
287.84,0.01,-0.66,0.01,-0.66,0.66,0.52,1.37,0.67,0.67,0.67
290.72,0.01,-0.66,0.01,-0.66,0.66,0.50,1.35,0.67,0.67,0.67
293.63,0.02,-0.66,0.02,-0.66,0.66,0.49,1.33,0.67,0.67,0.67
296.57,0.02,-0.65,0.02,-0.65,0.66,0.47,1.31,0.67,0.67,0.67
299.53,0.02,-0.65,0.02,-0.65,0.65,0.46,1.29,0.67,0.67,0.67
302.53,0.02,-0.65,0.02,-0.65,0.65,0.45,1.27,0.67,0.67,0.67
305.55,0.02,-0.65,0.02,-0.65,0.65,0.44,1.24,0.67,0.67,0.67
308.61,0.02,-0.65,0.02,-0.65,0.65,0.43,1.22,0.67,0.67,0.67
311.69,0.02,-0.65,0.02,-0.65,0.65,0.42,1.20,0.67,0.67,0.67
314.81,0.02,-0.65,0.02,-0.65,0.66,0.42,1.17,0.68,0.68,0.67
317.96,0.02,-0.66,0.02,-0.66,0.66,0.41,1.15,0.68,0.68,0.68
321.14,0.02,-0.66,0.02,-0.66,0.66,0.41,1.12,0.69,0.69,0.68
324.35,0.02,-0.66,0.02,-0.67,0.67,0.40,1.10,0.69,0.69,0.69
327.59,0.02,-0.67,0.02,-0.67,0.68,0.40,1.08,0.70,0.70,0.70
330.87,0.02,-0.68,0.02,-0.68,0.68,0.39,1.06,0.70,0.70,0.70
334.18,0.02,-0.69,0.02,-0.69,0.68,0.39,1.04,0.71,0.71,0.71
337.52,0.03,-0.69,0.03,-0.69,0.68,0.39,1.01,0.71,0.71,0.72
340.90,0.04,-0.69,0.04,-0.69,0.68,0.39,0.99,0.72,0.72,0.73
344.30,0.05,-0.68,0.05,-0.68,0.68,0.39,0.97,0.72,0.72,0.73
347.75,0.06,-0.67,0.06,-0.67,0.67,0.39,0.95,0.73,0.73,0.73
351.23,0.06,-0.66,0.06,-0.66,0.66,0.39,0.94,0.73,0.73,0.72
354.74,0.07,-0.65,0.07,-0.65,0.66,0.40,0.92,0.73,0.73,0.71
358.28,0.07,-0.65,0.07,-0.65,0.65,0.40,0.90,0.72,0.72,0.72
361.87,0.07,-0.65,0.07,-0.65,0.65,0.40,0.89,0.72,0.72,0.72
365.49,0.08,-0.65,0.08,-0.65,0.64,0.40,0.87,0.72,0.72,0.73
369.14,0.09,-0.65,0.09,-0.65,0.64,0.41,0.86,0.73,0.73,0.73
372.83,0.09,-0.64,0.09,-0.64,0.64,0.41,0.84,0.73,0.73,0.73
376.56,0.10,-0.63,0.10,-0.63,0.63,0.42,0.83,0.73,0.73,0.73
380.33,0.11,-0.63,0.11,-0.63,0.62,0.42,0.82,0.73,0.73,0.73
384.13,0.11,-0.62,0.12,-0.62,0.61,0.43,0.80,0.73,0.73,0.73
387.97,0.12,-0.61,0.13,-0.61,0.60,0.44,0.79,0.73,0.73,0.73
391.85,0.14,-0.60,0.14,-0.59,0.59,0.45,0.78,0.73,0.73,0.73
395.77,0.15,-0.58,0.15,-0.58,0.59,0.45,0.77,0.73,0.73,0.73
399.73,0.16,-0.57,0.16,-0.57,0.58,0.46,0.76,0.74,0.74,0.73
403.72,0.16,-0.57,0.16,-0.57,0.57,0.47,0.76,0.74,0.74,0.73
407.76,0.16,-0.57,0.16,-0.57,0.57,0.48,0.75,0.74,0.73,0.73
411.84,0.16,-0.57,0.16,-0.57,0.57,0.49,0.74,0.73,0.73,0.73
415.96,0.16,-0.57,0.16,-0.57,0.57,0.50,0.74,0.73,0.73,0.73
420.12,0.16,-0.58,0.16,-0.58,0.57,0.51,0.73,0.73,0.73,0.73
424.32,0.15,-0.58,0.15,-0.58,0.58,0.52,0.73,0.73,0.73,0.73
428.56,0.15,-0.58,0.15,-0.58,0.58,0.53,0.72,0.74,0.74,0.74
432.85,0.15,-0.59,0.15,-0.59,0.59,0.54,0.72,0.74,0.74,0.74
437.18,0.16,-0.59,0.16,-0.59,0.59,0.55,0.72,0.75,0.75,0.75
441.55,0.16,-0.60,0.16,-0.60,0.60,0.56,0.71,0.76,0.76,0.76
445.96,0.16,-0.61,0.16,-0.60,0.60,0.57,0.71,0.76,0.76,0.77
450.42,0.16,-0.61,0.16,-0.61,0.61,0.59,0.71,0.77,0.77,0.77
454.93,0.16,-0.62,0.16,-0.62,0.62,0.60,0.71,0.78,0.78,0.78
459.48,0.16,-0.62,0.16,-0.62,0.63,0.61,0.71,0.78,0.78,0.78
464.07,0.15,-0.63,0.15,-0.63,0.63,0.61,0.71,0.79,0.79,0.78
468.71,0.15,-0.64,0.15,-0.64,0.64,0.62,0.71,0.79,0.79,0.79
473.40,0.14,-0.65,0.14,-0.65,0.65,0.63,0.71,0.79,0.79,0.79
478.13,0.14,-0.66,0.14,-0.66,0.66,0.64,0.71,0.80,0.80,0.80
482.91,0.13,-0.67,0.13,-0.67,0.67,0.65,0.71,0.80,0.80,0.80
487.74,0.12,-0.68,0.12,-0.68,0.68,0.65,0.72,0.80,0.80,0.80
492.62,0.11,-0.69,0.11,-0.69,0.69,0.66,0.72,0.80,0.80,0.80
497.55,0.11,-0.70,0.11,-0.70,0.69,0.67,0.72,0.80,0.80,0.80
502.52,0.10,-0.70,0.10,-0.70,0.70,0.67,0.73,0.80,0.80,0.80
507.55,0.09,-0.71,0.09,-0.71,0.71,0.68,0.73,0.80,0.80,0.80
512.62,0.09,-0.71,0.09,-0.71,0.71,0.68,0.74,0.80,0.80,0.80
517.75,0.08,-0.72,0.08,-0.72,0.72,0.69,0.74,0.80,0.80,0.80
522.93,0.08,-0.73,0.08,-0.73,0.73,0.69,0.75,0.80,0.80,0.80
528.16,0.07,-0.74,0.07,-0.74,0.74,0.70,0.75,0.80,0.80,0.80
533.44,0.06,-0.75,0.06,-0.75,0.75,0.70,0.76,0.80,0.80,0.80
