frequency,raw,error,smoothed,error_smoothed,equalization,parametric_eq,fixed_band_eq,equalized_raw,equalized_smoothed,target
20.00,7.76,-6.00,7.76,-6.00,6.00,5.87,2.05,13.76,13.76,13.75
20.20,7.78,-5.98,7.78,-5.98,5.98,5.93,2.11,13.76,13.76,13.76
20.40,7.80,-5.96,7.81,-5.96,5.96,6.00,2.17,13.77,13.77,13.77
20.61,7.83,-5.94,7.83,-5.94,5.94,6.04,2.23,13.77,13.77,13.77
20.81,7.86,-5.91,7.86,-5.91,5.91,6.08,2.30,13.77,13.77,13.78
21.02,7.89,-5.88,7.89,-5.88,5.88,6.09,2.37,13.78,13.78,13.78
21.23,7.93,-5.85,7.93,-5.85,5.85,6.10,2.44,13.78,13.78,13.78
21.44,7.96,-5.82,7.96,-5.82,5.82,6.07,2.51,13.78,13.78,13.78
21.66,7.99,-5.78,7.99,-5.78,5.79,6.05,2.58,13.77,13.77,13.77
21.87,8.02,-5.75,8.02,-5.75,5.75,5.99,2.66,13.77,13.77,13.77
22.09,8.05,-5.71,8.05,-5.71,5.71,5.93,2.74,13.76,13.76,13.76
22.31,8.08,-5.67,8.08,-5.67,5.67,5.85,2.82,13.75,13.75,13.75
22.54,8.11,-5.63,8.11,-5.63,5.63,5.78,2.90,13.73,13.73,13.73
22.76,8.13,-5.58,8.13,-5.58,5.58,5.69,2.98,13.72,13.72,13.72
22.99,8.16,-5.54,8.16,-5.54,5.54,5.60,3.07,13.70,13.70,13.70
23.22,8.19,-5.49,8.19,-5.49,5.49,5.52,3.16,13.68,13.68,13.68
23.45,8.22,-5.44,8.22,-5.44,5.43,5.43,3.25,13.66,13.66,13.66
23.69,8.25,-5.38,8.25,-5.38,5.38,5.35,3.34,13.63,13.63,13.63
23.92,8.28,-5.32,8.28,-5.32,5.32,5.26,3.43,13.60,13.60,13.60
24.16,8.31,-5.26,8.31,-5.26,5.26,5.19,3.53,13.57,13.57,13.57
24.40,8.34,-5.20,8.34,-5.20,5.20,5.11,3.63,13.54,13.54,13.54
24.65,8.36,-5.14,8.36,-5.14,5.14,5.05,3.72,13.50,13.50,13.50
24.89,8.39,-5.08,8.39,-5.08,5.08,4.98,3.82,13.47,13.47,13.47
25.14,8.41,-5.01,8.41,-5.01,5.01,4.92,3.92,13.43,13.43,13.43
25.39,8.44,-4.95,8.44,-4.95,4.95,4.86,4.02,13.39,13.39,13.39
25.65,8.46,-4.90,8.46,-4.90,4.90,4.81,4.13,13.35,13.35,13.35
25.91,8.47,-4.84,8.47,-4.84,4.84,4.76,4.23,13.32,13.32,13.31
26.16,8.49,-4.79,8.49,-4.79,4.79,4.71,4.33,13.28,13.28,13.28
26.43,8.50,-4.74,8.50,-4.74,4.75,4.66,4.43,13.25,13.25,13.24
26.69,8.50,-4.70,8.50,-4.70,4.71,4.62,4.53,13.21,13.21,13.21
26.96,8.51,-4.67,8.51,-4.67,4.67,4.58,4.62,13.18,13.18,13.17
27.23,8.50,-4.63,8.50,-4.63,4.64,4.54,4.72,13.14,13.14,13.14
27.50,8.50,-4.60,8.50,-4.60,4.60,4.50,4.81,13.10,13.10,13.10
27.77,8.49,-4.57,8.49,-4.57,4.57,4.46,4.90,13.06,13.06,13.06
28.05,8.48,-4.54,8.48,-4.54,4.53,4.42,4.98,13.02,13.02,13.03
28.33,8.48,-4.50,8.48,-4.50,4.50,4.39,5.06,12.98,12.98,12.99
28.62,8.48,-4.47,8.48,-4.46,4.46,4.36,5.14,12.94,12.94,12.95
28.90,8.49,-4.42,8.49,-4.42,4.42,4.32,5.21,12.91,12.91,12.91
29.19,8.50,-4.38,8.50,-4.38,4.38,4.29,5.27,12.88,12.88,12.88
29.48,8.52,-4.33,8.52,-4.33,4.34,4.26,5.32,12.85,12.85,12.85
29.78,8.53,-4.29,8.53,-4.29,4.29,4.23,5.37,12.83,12.83,12.82
30.08,8.55,-4.25,8.55,-4.25,4.25,4.20,5.41,12.80,12.80,12.80
30.38,8.57,-4.21,8.57,-4.21,4.20,4.17,5.45,12.77,12.77,12.78
30.68,8.58,-4.16,8.58,-4.16,4.16,4.14,5.47,12.74,12.74,12.75
30.99,8.60,-4.12,8.60,-4.12,4.11,4.11,5.48,12.71,12.71,12.71
31.30,8.61,-4.07,8.61,-4.07,4.07,4.08,5.49,12.68,12.68,12.68
31.61,8.62,-4.02,8.62,-4.02,4.03,4.05,5.49,12.64,12.64,12.64
31.93,8.63,-3.98,8.63,-3.98,3.98,4.02,5.47,12.61,12.61,12.60
32.24,8.64,-3.94,8.64,-3.94,3.95,3.99,5.45,12.58,12.58,12.57
32.57,8.65,-3.90,8.65,-3.90,3.91,3.96,5.42,12.55,12.55,12.55
32.89,8.66,-3.87,8.66,-3.87,3.87,3.93,5.38,12.52,12.52,12.52
33.22,8.66,-3.84,8.66,-3.84,3.83,3.90,5.34,12.49,12.49,12.50
33.55,8.67,-3.80,8.67,-3.80,3.79,3.88,5.28,12.46,12.46,12.48
33.89,8.68,-3.76,8.68,-3.76,3.75,3.85,5.22,12.43,12.43,12.44
34.23,8.69,-3.71,8.69,-3.71,3.71,3.82,5.16,12.40,12.40,12.41
34.57,8.70,-3.67,8.70,-3.67,3.68,3.79,5.08,12.37,12.37,12.37
34.92,8.70,-3.63,8.70,-3.63,3.64,3.76,5.01,12.34,12.34,12.33
35.27,8.70,-3.60,8.70,-3.60,3.61,3.73,4.93,12.31,12.31,12.30
35.62,8.71,-3.57,8.71,-3.57,3.58,3.70,4.84,12.28,12.28,12.28
35.97,8.71,-3.55,8.71,-3.55,3.55,3.67,4.75,12.26,12.26,12.26
36.33,8.71,-3.54,8.71,-3.54,3.53,3.64,4.66,12.24,12.24,12.24
36.70,8.71,-3.52,8.71,-3.52,3.51,3.61,4.57,12.22,12.22,12.23
37.06,8.72,-3.50,8.72,-3.50,3.49,3.58,4.48,12.21,12.21,12.21
37.43,8.72,-3.47,8.72,-3.47,3.47,3.54,4.38,12.19,12.19,12.19
37.81,8.72,-3.45,8.72,-3.45,3.45,3.51,4.29,12.18,12.18,12.17
38.19,8.72,-3.43,8.72,-3.43,3.43,3.48,4.19,12.16,12.16,12.16
38.57,8.72,-3.41,8.73,-3.41,3.41,3.45,4.10,12.14,12.14,12.14
38.95,8.73,-3.39,8.73,-3.39,3.39,3.42,4.00,12.12,12.12,12.12
39.34,8.73,-3.37,8.73,-3.37,3.37,3.38,3.91,12.10,12.10,12.10
39.74,8.73,-3.35,8.73,-3.35,3.35,3.35,3.81,12.08,12.08,12.08
40.14,8.73,-3.33,8.73,-3.33,3.33,3.32,3.72,12.06,12.06,12.06
40.54,8.74,-3.30,8.74,-3.30,3.31,3.28,3.63,12.05,12.05,12.04
40.94,8.74,-3.28,8.74,-3.28,3.29,3.25,3.54,12.03,12.03,12.02
41.35,8.74,-3.26,8.74,-3.26,3.26,3.22,3.46,12.01,12.01,12.01
41.76,8.75,-3.24,8.74,-3.24,3.24,3.18,3.37,11.98,11.98,11.99
42.18,8.75,-3.22,8.75,-3.22,3.21,3.15,3.29,11.96,11.96,11.96
42.60,8.74,-3.19,8.74,-3.19,3.18,3.11,3.21,11.93,11.93,11.93
43.03,8.74,-3.16,8.74,-3.16,3.16,3.08,3.13,11.90,11.90,11.90
43.46,8.74,-3.12,8.74,-3.12,3.13,3.04,3.05,11.86,11.86,11.86
43.90,8.73,-3.09,8.73,-3.09,3.10,3.01,2.98,11.83,11.83,11.82
44.33,8.72,-3.06,8.72,-3.06,3.07,2.97,2.91,11.79,11.79,11.78
44.78,8.72,-3.03,8.72,-3.03,3.03,2.93,2.84,11.75,11.75,11.75
45.23,8.71,-3.00,8.71,-3.00,3.00,2.90,2.77,11.71,11.71,11.71
45.68,8.70,-2.97,8.70,-2.97,2.96,2.86,2.70,11.67,11.67,11.67
46.13,8.70,-2.93,8.70,-2.93,2.93,2.82,2.64,11.62,11.62,11.63
46.60,8.69,-2.89,8.69,-2.89,2.89,2.78,2.58,11.58,11.58,11.58
47.06,8.69,-2.85,8.69,-2.85,2.85,2.75,2.52,11.54,11.54,11.54
47.53,8.69,-2.80,8.69,-2.80,2.81,2.71,2.47,11.50,11.50,11.49
48.01,8.69,-2.76,8.69,-2.76,2.76,2.67,2.41,11.45,11.45,11.45
48.49,8.69,-2.72,8.69,-2.72,2.72,2.63,2.36,11.41,11.41,11.40
48.97,8.68,-2.68,8.68,-2.68,2.68,2.59,2.31,11.36,11.36,11.36
49.46,8.68,-2.64,8.68,-2.64,2.64,2.55,2.26,11.32,11.32,11.32
49.96,8.67,-2.60,8.67,-2.60,2.61,2.51,2.21,11.27,11.27,11.27
50.46,8.66,-2.57,8.66,-2.57,2.57,2.47,2.17,11.23,11.23,11.22
50.96,8.65,-2.53,8.65,-2.53,2.53,2.43,2.12,11.18,11.18,11.18
51.47,8.64,-2.49,8.64,-2.49,2.48,2.39,2.08,11.12,11.12,11.13
51.99,8.63,-2.44,8.63,-2.44,2.44,2.35,2.04,11.07,11.07,11.08
52.51,8.62,-2.39,8.62,-2.39,2.39,2.31,2.00,11.01,11.01,11.02
53.03,8.62,-2.34,8.62,-2.34,2.33,2.27,1.96,10.95,10.95,10.96
53.56,8.62,-2.28,8.62,-2.28,2.28,2.23,1.93,10.89,10.89,10.90
54.10,8.61,-2.22,8.61,-2.22,2.22,2.19,1.89,10.83,10.83,10.83
54.64,8.61,-2.16,8.61,-2.16,2.16,2.15,1.86,10.77,10.77,10.77
55.18,8.61,-2.10,8.61,-2.10,2.11,2.11,1.82,10.71,10.71,10.71
55.74,8.60,-2.04,8.60,-2.05,2.05,2.07,1.79,10.66,10.66,10.65
56.29,8.60,-2.00,8.60,-2.00,2.00,2.02,1.76,10.60,10.60,10.59
56.86,8.59,-1.95,8.59,-1.95,1.96,1.98,1.73,10.55,10.55,10.54
57.42,8.58,-1.92,8.58,-1.92,1.91,1.94,1.69,10.49,10.49,10.49
58.00,8.57,-1.88,8.57,-1.88,1.87,1.90,1.66,10.44,10.44,10.44
58.58,8.55,-1.84,8.55,-1.84,1.84,1.86,1.63,10.39,10.39,10.39
59.16,8.54,-1.80,8.54,-1.80,1.80,1.81,1.60,10.33,10.34,10.34
59.76,8.53,-1.76,8.53,-1.76,1.76,1.77,1.57,10.28,10.28,10.28
60.35,8.51,-1.71,8.51,-1.72,1.72,1.73,1.54,10.23,10.23,10.23
60.96,8.50,-1.67,8.50,-1.67,1.67,1.69,1.51,10.17,10.17,10.17
61.57,8.48,-1.63,8.48,-1.63,1.63,1.65,1.48,10.11,10.11,10.11
62.18,8.46,-1.58,8.46,-1.58,1.58,1.60,1.45,10.04,10.04,10.04
62.80,8.45,-1.53,8.45,-1.53,1.53,1.56,1.42,9.97,9.97,9.98
63.43,8.43,-1.48,8.43,-1.48,1.48,1.52,1.39,9.91,9.91,9.91
64.07,8.42,-1.42,8.42,-1.42,1.43,1.48,1.36,9.84,9.84,9.84
64.71,8.41,-1.37,8.41,-1.37,1.37,1.44,1.33,9.78,9.78,9.78
65.35,8.40,-1.32,8.40,-1.32,1.32,1.39,1.30,9.72,9.72,9.72
66.01,8.39,-1.27,8.39,-1.27,1.27,1.35,1.27,9.66,9.66,9.66
66.67,8.39,-1.22,8.39,-1.22,1.22,1.31,1.24,9.60,9.60,9.60
67.33,8.38,-1.17,8.38,-1.17,1.17,1.27,1.21,9.55,9.55,9.55
68.01,8.37,-1.12,8.37,-1.12,1.13,1.23,1.18,9.50,9.50,9.49
68.69,8.36,-1.08,8.36,-1.08,1.08,1.19,1.15,9.45,9.45,9.44
69.37,8.36,-1.04,8.36,-1.04,1.04,1.15,1.12,9.39,9.39,9.39
70.07,8.34,-1.00,8.34,-1.00,0.99,1.11,1.09,9.34,9.34,9.34
70.77,8.33,-0.96,8.33,-0.96,0.95,1.07,1.05,9.28,9.28,9.29
71.48,8.31,-0.91,8.31,-0.92,0.91,1.03,1.02,9.23,9.23,9.23
72.19,8.30,-0.87,8.30,-0.87,0.87,0.99,0.99,9.17,9.17,9.17
72.91,8.28,-0.83,8.28,-0.83,0.83,0.95,0.96,9.11,9.11,9.11
73.64,8.26,-0.80,8.26,-0.80,0.80,0.91,0.93,9.05,9.05,9.05
74.38,8.24,-0.76,8.24,-0.76,0.76,0.87,0.90,9.00,9.00,8.99
75.12,8.22,-0.72,8.22,-0.72,0.72,0.83,0.87,8.94,8.94,8.94
75.87,8.20,-0.69,8.20,-0.69,0.69,0.79,0.84,8.88,8.88,8.88
76.63,8.18,-0.66,8.18,-0.66,0.66,0.75,0.81,8.83,8.83,8.83
77.40,8.16,-0.62,8.16,-0.62,0.62,0.72,0.78,8.78,8.78,8.78
78.17,8.14,-0.59,8.14,-0.59,0.59,0.68,0.74,8.73,8.73,8.73
78.95,8.12,-0.56,8.12,-0.56,0.57,0.64,0.72,8.68,8.68,8.68
79.74,8.09,-0.54,8.09,-0.54,0.54,0.61,0.69,8.63,8.63,8.63
80.54,8.07,-0.51,8.07,-0.51,0.51,0.57,0.66,8.58,8.58,8.58
81.35,8.05,-0.49,8.05,-0.49,0.48,0.54,0.63,8.53,8.53,8.53
82.16,8.02,-0.46,8.02,-0.46,0.46,0.50,0.60,8.48,8.48,8.48
82.98,7.99,-0.44,7.99,-0.44,0.43,0.47,0.57,8.43,8.43,8.43
83.81,7.97,-0.41,7.97,-0.41,0.41,0.44,0.54,8.38,8.38,8.38
84.65,7.94,-0.38,7.94,-0.38,0.39,0.40,0.51,8.33,8.33,8.32
85.50,7.91,-0.36,7.91,-0.36,0.36,0.37,0.48,8.27,8.27,8.27
86.35,7.88,-0.33,7.88,-0.33,0.34,0.34,0.46,8.22,8.22,8.21
87.22,7.85,-0.31,7.85,-0.31,0.31,0.31,0.43,8.16,8.16,8.16
88.09,7.82,-0.29,7.82,-0.29,0.28,0.28,0.40,8.10,8.10,8.10
88.97,7.79,-0.26,7.79,-0.26,0.25,0.25,0.37,8.04,8.04,8.05
89.86,7.77,-0.23,7.77,-0.23,0.22,0.22,0.35,7.99,7.99,8.00
90.76,7.75,-0.19,7.75,-0.19,0.19,0.19,0.32,7.94,7.94,7.94
91.66,7.74,-0.16,7.74,-0.16,0.16,0.16,0.29,7.89,7.89,7.89
92.58,7.72,-0.12,7.72,-0.12,0.12,0.13,0.27,7.85,7.85,7.84
93.51,7.70,-0.09,7.70,-0.09,0.09,0.11,0.24,7.80,7.80,7.79
94.44,7.67,-0.06,7.67,-0.06,0.07,0.08,0.22,7.74,7.74,7.73
95.39,7.64,-0.04,7.64,-0.04,0.05,0.05,0.19,7.68,7.68,7.67
96.34,7.59,-0.02,7.59,-0.02,0.03,0.03,0.17,7.62,7.62,7.61
97.30,7.54,-0.01,7.54,-0.01,0.01,0.01,0.14,7.55,7.55,7.55
98.28,7.48,-0.00,7.48,-0.00,-0.00,-0.02,0.12,7.48,7.48,7.48
99.26,7.42,0.01,7.42,0.01,-0.01,-0.04,0.09,7.41,7.41,7.42
100.25,7.38,0.02,7.38,0.02,-0.03,-0.06,0.07,7.35,7.35,7.36
101.25,7.35,0.04,7.35,0.04,-0.05,-0.08,0.04,7.30,7.30,7.31
102.27,7.34,0.07,7.34,0.07,-0.07,-0.10,0.02,7.26,7.26,7.27
103.29,7.33,0.10,7.33,0.10,-0.10,-0.12,-0.00,7.23,7.23,7.23
104.32,7.32,0.13,7.32,0.13,-0.13,-0.14,-0.03,7.19,7.19,7.19
105.37,7.32,0.16,7.32,0.16,-0.16,-0.16,-0.05,7.15,7.15,7.15
106.42,7.31,0.20,7.31,0.20,-0.20,-0.18,-0.07,7.11,7.11,7.11
107.48,7.30,0.23,7.30,0.23,-0.23,-0.19,-0.09,7.07,7.07,7.07
108.56,7.29,0.27,7.29,0.27,-0.27,-0.21,-0.11,7.03,7.03,7.03
109.64,7.28,0.30,7.28,0.30,-0.30,-0.23,-0.13,6.98,6.98,6.98
110.74,7.27,0.33,7.27,0.33,-0.34,-0.24,-0.15,6.93,6.93,6.93
111.85,7.25,0.37,7.25,0.37,-0.37,-0.25,-0.17,6.88,6.88,6.88
112.97,7.23,0.40,7.23,0.40,-0.41,-0.27,-0.19,6.82,6.82,6.83
114.10,7.21,0.43,7.21,0.44,-0.44,-0.28,-0.21,6.77,6.77,6.77
115.24,7.18,0.47,7.18,0.47,-0.47,-0.29,-0.22,6.71,6.71,6.71
116.39,7.15,0.50,7.15,0.50,-0.49,-0.30,-0.24,6.66,6.66,6.66
117.55,7.12,0.52,7.12,0.52,-0.51,-0.31,-0.25,6.61,6.61,6.60
118.73,7.09,0.53,7.09,0.53,-0.52,-0.32,-0.27,6.57,6.57,6.56
119.92,7.05,0.53,7.05,0.53,-0.52,-0.33,-0.28,6.53,6.53,6.52
121.12,7.01,0.52,7.01,0.52,-0.50,-0.34,-0.29,6.51,6.51,6.49
122.33,6.98,0.49,6.98,0.49,-0.48,-0.35,-0.30,6.49,6.49,6.48
123.55,6.94,0.46,6.94,0.46,-0.46,-0.35,-0.31,6.49,6.48,6.48
124.79,6.90,0.42,6.90,0.42,-0.42,-0.36,-0.32,6.48,6.48,6.48
126.03,6.87,0.38,6.87,0.38,-0.39,-0.36,-0.32,6.48,6.48,6.49
127.29,6.83,0.34,6.83,0.35,-0.36,-0.37,-0.33,6.48,6.48,6.49
128.57,6.80,0.32,6.80,0.32,-0.33,-0.37,-0.33,6.47,6.47,6.48
129.85,6.76,0.30,6.76,0.30,-0.31,-0.38,-0.34,6.45,6.45,6.46
131.15,6.72,0.28,6.72,0.28,-0.29,-0.38,-0.34,6.43,6.43,6.44
132.46,6.69,0.28,6.69,0.28,-0.29,-0.38,-0.34,6.40,6.40,6.41
133.79,6.65,0.28,6.65,0.28,-0.29,-0.38,-0.34,6.36,6.36,6.37
135.12,6.61,0.29,6.61,0.29,-0.29,-0.38,-0.34,6.32,6.32,6.32
136.48,6.57,0.30,6.57,0.30,-0.30,-0.38,-0.34,6.27,6.27,6.27
137.84,6.53,0.31,6.53,0.31,-0.31,-0.38,-0.34,6.22,6.22,6.22
139.22,6.49,0.33,6.49,0.32,-0.32,-0.38,-0.34,6.17,6.17,6.16
140.61,6.45,0.33,6.44,0.33,-0.32,-0.38,-0.33,6.12,6.12,6.11
142.02,6.40,0.33,6.40,0.33,-0.33,-0.38,-0.33,6.07,6.07,6.07
143.44,6.36,0.33,6.36,0.33,-0.33,-0.38,-0.32,6.03,6.03,6.03
144.87,6.32,0.33,6.31,0.33,-0.33,-0.38,-0.32,5.98,5.98,5.99
146.32,6.27,0.33,6.27,0.33,-0.33,-0.37,-0.31,5.94,5.94,5.95
147.78,6.23,0.32,6.23,0.32,-0.33,-0.37,-0.31,5.90,5.90,5.90
149.26,6.18,0.32,6.18,0.32,-0.32,-0.36,-0.30,5.86,5.86,5.86
150.75,6.14,0.31,6.14,0.31,-0.31,-0.36,-0.29,5.83,5.83,5.82
152.26,6.09,0.31,6.09,0.31,-0.30,-0.35,-0.29,5.79,5.79,5.78
153.78,6.05,0.29,6.05,0.29,-0.29,-0.35,-0.28,5.76,5.76,5.75
155.32,6.00,0.28,6.00,0.27,-0.27,-0.34,-0.27,5.73,5.73,5.72
156.88,5.95,0.26,5.95,0.26,-0.25,-0.33,-0.27,5.70,5.70,5.70
158.44,5.91,0.24,5.91,0.24,-0.24,-0.33,-0.26,5.67,5.67,5.67
160.03,5.87,0.22,5.87,0.22,-0.22,-0.32,-0.25,5.64,5.64,5.65
161.63,5.83,0.20,5.83,0.20,-0.21,-0.31,-0.25,5.61,5.61,5.62
163.24,5.78,0.20,5.79,0.20,-0.20,-0.30,-0.24,5.58,5.58,5.59
164.88,5.75,0.19,5.75,0.19,-0.20,-0.30,-0.24,5.55,5.55,5.55
166.53,5.70,0.19,5.70,0.19,-0.20,-0.29,-0.23,5.51,5.51,5.51
168.19,5.66,0.20,5.66,0.20,-0.20,-0.28,-0.22,5.47,5.47,5.46
169.87,5.62,0.20,5.62,0.20,-0.20,-0.27,-0.22,5.42,5.42,5.42
171.57,5.58,0.21,5.57,0.21,-0.20,-0.26,-0.21,5.37,5.37,5.37
173.29,5.53,0.21,5.53,0.21,-0.21,-0.25,-0.21,5.32,5.32,5.32
175.02,5.48,0.21,5.48,0.21,-0.21,-0.24,-0.20,5.27,5.27,5.27
176.77,5.43,0.21,5.43,0.21,-0.21,-0.22,-0.20,5.22,5.22,5.22
178.54,5.38,0.21,5.38,0.21,-0.21,-0.21,-0.19,5.18,5.18,5.18
180.32,5.34,0.20,5.34,0.20,-0.20,-0.20,-0.19,5.13,5.13,5.13
182.13,5.29,0.20,5.29,0.20,-0.20,-0.19,-0.18,5.09,5.09,5.09
183.95,5.24,0.19,5.24,0.19,-0.19,-0.18,-0.18,5.04,5.04,5.04
185.79,5.19,0.19,5.19,0.19,-0.18,-0.16,-0.18,5.00,5.00,5.00
187.65,5.14,0.18,5.14,0.18,-0.17,-0.15,-0.17,4.96,4.96,4.96
189.52,5.09,0.16,5.09,0.16,-0.16,-0.14,-0.17,4.92,4.92,4.92
191.42,5.04,0.15,5.04,0.15,-0.15,-0.12,-0.17,4.89,4.89,4.89
193.33,4.99,0.14,4.99,0.14,-0.14,-0.11,-0.16,4.85,4.85,4.85
195.27,4.94,0.12,4.94,0.12,-0.12,-0.10,-0.16,4.82,4.82,4.82
197.22,4.89,0.11,4.89,0.11,-0.11,-0.08,-0.16,4.78,4.78,4.78
199.19,4.84,0.09,4.84,0.09,-0.10,-0.07,-0.16,4.74,4.74,4.75
201.18,4.79,0.08,4.79,0.08,-0.08,-0.05,-0.15,4.70,4.70,4.71
203.19,4.74,0.07,4.74,0.07,-0.07,-0.04,-0.15,4.66,4.66,4.66
205.23,4.68,0.06,4.68,0.06,-0.06,-0.02,-0.15,4.62,4.62,4.62
207.28,4.63,0.05,4.63,0.05,-0.05,-0.01,-0.14,4.57,4.57,4.57
209.35,4.57,0.04,4.57,0.04,-0.04,0.01,-0.14,4.53,4.53,4.53
211.44,4.52,0.03,4.52,0.03,-0.03,0.02,-0.14,4.48,4.48,4.48
213.56,4.46,0.02,4.46,0.02,-0.02,0.04,-0.13,4.44,4.44,4.44
215.69,4.40,0.01,4.40,0.01,-0.01,0.05,-0.13,4.39,4.39,4.39
217.85,4.35,0.00,4.35,0.00,0.00,0.07,-0.13,4.35,4.35,4.35
220.03,4.29,-0.01,4.29,-0.01,0.01,0.09,-0.12,4.31,4.31,4.30
222.23,4.24,-0.03,4.24,-0.03,0.02,0.10,-0.12,4.26,4.26,4.26
224.45,4.18,-0.04,4.18,-0.04,0.04,0.12,-0.11,4.21,4.21,4.22
226.70,4.12,-0.05,4.12,-0.05,0.05,0.14,-0.11,4.17,4.17,4.17
228.96,4.06,-0.06,4.06,-0.06,0.06,0.16,-0.10,4.12,4.12,4.12
231.25,4.01,-0.07,4.01,-0.07,0.07,0.17,-0.10,4.07,4.07,4.07
233.57,3.95,-0.08,3.95,-0.08,0.08,0.19,-0.09,4.02,4.02,4.02
235.90,3.88,-0.09,3.88,-0.09,0.09,0.21,-0.08,3.97,3.97,3.97
238.26,3.82,-0.10,3.82,-0.10,0.10,0.23,-0.07,3.93,3.93,3.93
240.64,3.76,-0.12,3.76,-0.12,0.13,0.24,-0.06,3.88,3.88,3.88
243.05,3.69,-0.15,3.69,-0.15,0.16,0.26,-0.06,3.85,3.85,3.84
245.48,3.62,-0.19,3.62,-0.19,0.20,0.28,-0.04,3.82,3.82,3.81
247.93,3.55,-0.23,3.55,-0.23,0.25,0.30,-0.03,3.80,3.80,3.78
250.41,3.48,-0.29,3.48,-0.29,0.31,0.32,-0.02,3.79,3.79,3.77
252.92,3.41,-0.36,3.41,-0.36,0.38,0.34,-0.01,3.79,3.79,3.77
255.45,3.35,-0.44,3.34,-0.44,0.45,0.35,0.01,3.79,3.79,3.79
258.00,3.28,-0.52,3.28,-0.52,0.51,0.37,0.02,3.80,3.80,3.80
260.58,3.23,-0.59,3.23,-0.59,0.57,0.39,0.04,3.80,3.80,3.82
263.19,3.19,-0.65,3.19,-0.64,0.61,0.41,0.05,3.80,3.80,3.84
265.82,3.16,-0.68,3.16,-0.67,0.64,0.43,0.07,3.81,3.81,3.84
268.48,3.15,-0.68,3.15,-0.68,0.66,0.45,0.09,3.80,3.80,3.83
271.16,3.14,-0.66,3.14,-0.66,0.65,0.47,0.11,3.80,3.80,3.81
273.87,3.14,-0.64,3.14,-0.64,0.64,0.49,0.13,3.78,3.78,3.78
276.61,3.14,-0.61,3.14,-0.61,0.62,0.51,0.15,3.76,3.76,3.75
279.38,3.13,-0.58,3.13,-0.58,0.60,0.53,0.17,3.73,3.73,3.71
282.17,3.11,-0.57,3.11,-0.56,0.58,0.55,0.20,3.69,3.69,3.67
284.99,3.08,-0.55,3.08,-0.56,0.57,0.57,0.22,3.65,3.64,3.63
287.84,3.04,-0.56,3.04,-0.56,0.56,0.59,0.24,3.60,3.60,3.59
290.72,2.99,-0.56,2.99,-0.56,0.56,0.61,0.27,3.55,3.55,3.55
293.63,2.94,-0.57,2.94,-0.57,0.57,0.63,0.29,3.51,3.51,3.51
296.57,2.88,-0.59,2.88,-0.59,0.58,0.65,0.32,3.47,3.47,3.47
299.53,2.83,-0.60,2.83,-0.60,0.60,0.67,0.35,3.43,3.43,3.43
302.53,2.77,-0.62,2.77,-0.62,0.62,0.70,0.38,3.39,3.39,3.39
305.55,2.71,-0.64,2.71,-0.64,0.64,0.72,0.40,3.35,3.35,3.35
308.61,2.65,-0.66,2.65,-0.66,0.66,0.74,0.43,3.32,3.32,3.32
311.69,2.60,-0.68,2.60,-0.68,0.68,0.76,0.46,3.28,3.28,3.28
314.81,2.54,-0.71,2.54,-0.71,0.70,0.78,0.49,3.24,3.24,3.24
317.96,2.48,-0.73,2.48,-0.73,0.73,0.80,0.53,3.21,3.21,3.21
321.14,2.42,-0.75,2.42,-0.75,0.75,0.82,0.56,3.17,3.17,3.17
324.35,2.36,-0.77,2.36,-0.77,0.77,0.84,0.59,3.14,3.14,3.14
327.59,2.31,-0.79,2.31,-0.79,0.79,0.87,0.62,3.10,3.10,3.10
330.87,2.25,-0.82,2.25,-0.82,0.82,0.89,0.66,3.07,3.07,3.07
334.18,2.19,-0.84,2.19,-0.84,0.84,0.91,0.69,3.03,3.03,3.03
337.52,2.13,-0.86,2.13,-0.86,0.86,0.93,0.73,3.00,3.00,3.00
340.90,2.08,-0.89,2.08,-0.89,0.88,0.95,0.76,2.96,2.96,2.96
344.30,2.02,-0.91,2.02,-0.91,0.91,0.97,0.80,2.93,2.93,2.93
347.75,1.96,-0.93,1.96,-0.93,0.93,1.00,0.84,2.90,2.90,2.89
351.23,1.91,-0.95,1.91,-0.95,0.95,1.02,0.88,2.86,2.86,2.86
354.74,1.85,-0.98,1.85,-0.98,0.98,1.04,0.92,2.83,2.83,2.83
358.28,1.80,-1.00,1.80,-1.00,1.00,1.06,0.96,2.80,2.80,2.80
361.87,1.74,-1.02,1.74,-1.02,1.02,1.08,1.00,2.76,2.76,2.76
365.49,1.69,-1.04,1.69,-1.04,1.04,1.10,1.04,2.73,2.73,2.73
369.14,1.64,-1.06,1.64,-1.06,1.06,1.13,1.08,2.70,2.70,2.70
372.83,1.58,-1.09,1.58,-1.09,1.09,1.15,1.12,2.67,2.67,2.67
376.56,1.53,-1.11,1.53,-1.11,1.11,1.17,1.17,2.64,2.64,2.64
380.33,1.48,-1.13,1.48,-1.13,1.13,1.19,1.21,2.61,2.61,2.60
384.13,1.42,-1.15,1.42,-1.15,1.15,1.21,1.25,2.57,2.57,2.57
387.97,1.37,-1.17,1.37,-1.17,1.17,1.23,1.30,2.54,2.54,2.54
391.85,1.32,-1.19,1.32,-1.19,1.19,1.26,1.35,2.51,2.51,2.51
395.77,1.27,-1.21,1.27,-1.21,1.21,1.28,1.39,2.48,2.48,2.48
399.73,1.21,-1.24,1.22,-1.23,1.23,1.30,1.44,2.45,2.45,2.45
403.72,1.16,-1.26,1.16,-1.26,1.26,1.32,1.48,2.42,2.42,2.42
407.76,1.11,-1.28,1.11,-1.28,1.28,1.34,1.53,2.39,2.39,2.39
411.84,1.06,-1.30,1.06,-1.30,1.30,1.36,1.58,2.36,2.36,2.36
415.96,1.01,-1.32,1.01,-1.32,1.32,1.38,1.62,2.33,2.33,2.33
420.12,0.96,-1.34,0.96,-1.34,1.34,1.40,1.67,2.30,2.30,2.30
424.32,0.91,-1.36,0.91,-1.36,1.36,1.42,1.71,2.27,2.27,2.27
428.56,0.86,-1.38,0.86,-1.38,1.38,1.44,1.76,2.24,2.24,2.24
432.85,0.81,-1.40,0.81,-1.40,1.40,1.46,1.80,2.21,2.21,2.21
437.18,0.76,-1.42,0.76,-1.42,1.42,1.48,1.84,2.18,2.18,2.18
441.55,0.71,-1.44,0.71,-1.44,1.44,1.50,1.88,2.15,2.15,2.15
445.96,0.66,-1.46,0.66,-1.46,1.46,1.52,1.92,2.12,2.12,2.12
450.42,0.61,-1.47,0.61,-1.47,1.47,1.54,1.96,2.08,2.08,2.09
454.93,0.56,-1.49,0.56,-1.49,1.49,1.56,1.99,2.05,2.05,2.05
459.48,0.51,-1.51,0.51,-1.51,1.51,1.57,2.02,2.02,2.02,2.02
464.07,0.47,-1.53,0.47,-1.53,1.53,1.59,2.05,1.99,1.99,1.99
468.71,0.42,-1.55,0.42,-1.55,1.55,1.61,2.08,1.96,1.96,1.96
473.40,0.37,-1.56,0.37,-1.56,1.56,1.63,2.11,1.93,1.93,1.93
478.13,0.33,-1.58,0.33,-1.58,1.58,1.64,2.13,1.91,1.91,1.91
482.91,0.28,-1.59,0.28,-1.59,1.59,1.66,2.15,1.88,1.88,1.88
487.74,0.24,-1.61,0.24,-1.61,1.61,1.67,2.16,1.85,1.85,1.85
492.62,0.19,-1.62,0.19,-1.62,1.62,1.69,2.17,1.82,1.82,1.82
497.55,0.15,-1.64,0.15,-1.64,1.64,1.70,2.18,1.79,1.79,1.79
502.52,0.11,-1.65,0.11,-1.65,1.65,1.72,2.19,1.76,1.76,1.76
507.55,0.06,-1.67,0.06,-1.67,1.67,1.73,2.19,1.73,1.73,1.73
512.62,0.02,-1.68,0.02,-1.68,1.68,1.75,2.19,1.70,1.70,1.70
517.75,-0.03,-1.70,-0.03,-1.70,1.70,1.76,2.18,1.67,1.67,1.67
522.93,-0.07,-1.71,-0.07,-1.71,1.71,1.77,2.17,1.64,1.64,1.64
528.16,-0.11,-1.73,-0.11,-1.73,1.73,1.78,2.16,1.61,1.61,1.61
533.44,-0.16,-1.74,-0.16,-1.74,1.74,1.79,2.15,1.58,1.58,1.58
538.77,-0.20,-1.75,-0.20,-1.75,1.75,1.80,2.13,1.55,1.55,1.55
