frequency,raw,error,smoothed,error_smoothed,equalization,parametric_eq,fixed_band_eq,equalized_raw,equalized_smoothed,target
20.00,1.82,-4.27,1.82,-4.27,4.29,3.56,1.00,6.11,6.11,6.09
20.20,1.88,-4.21,1.88,-4.21,4.21,3.55,1.03,6.09,6.09,6.09
20.40,1.94,-4.15,1.94,-4.14,4.12,3.53,1.06,6.06,6.06,6.09
20.61,2.00,-4.09,2.00,-4.07,4.05,3.52,1.09,6.04,6.04,6.09
20.81,2.06,-3.96,2.06,-3.97,3.97,3.50,1.12,6.03,6.03,6.02
21.02,2.12,-3.87,2.12,-3.89,3.90,3.49,1.16,6.01,6.01,5.99
21.23,2.17,-3.81,2.17,-3.81,3.83,3.47,1.19,6.00,6.00,5.99
21.44,2.23,-3.75,2.23,-3.75,3.76,3.45,1.23,5.99,5.99,5.99
21.66,2.29,-3.70,2.29,-3.70,3.70,3.43,1.26,5.99,5.99,5.99
21.87,2.35,-3.64,2.35,-3.64,3.64,3.41,1.30,5.99,5.99,5.99
22.09,2.40,-3.59,2.40,-3.59,3.59,3.39,1.34,5.99,5.99,5.99
22.31,2.46,-3.53,2.46,-3.53,3.53,3.37,1.38,5.99,5.99,5.99
22.54,2.51,-3.48,2.51,-3.48,3.48,3.35,1.42,5.98,5.98,5.99
22.76,2.56,-3.43,2.56,-3.43,3.41,3.32,1.46,5.97,5.97,5.99
22.99,2.61,-3.38,2.61,-3.37,3.35,3.30,1.51,5.96,5.96,5.99
23.22,2.66,-3.32,2.66,-3.29,3.28,3.27,1.55,5.95,5.95,5.98
23.45,2.71,-3.19,2.71,-3.21,3.22,3.25,1.59,5.93,5.93,5.90
23.69,2.77,-3.12,2.77,-3.13,3.15,3.22,1.64,5.92,5.92,5.89
23.92,2.82,-3.07,2.82,-3.06,3.09,3.19,1.69,5.91,5.91,5.89
24.16,2.87,-3.02,2.87,-3.02,3.03,3.16,1.73,5.90,5.90,5.89
24.40,2.92,-2.97,2.92,-2.97,2.97,3.13,1.78,5.89,5.89,5.89
24.65,2.97,-2.92,2.97,-2.92,2.92,3.10,1.83,5.89,5.89,5.89
24.89,3.02,-2.87,3.02,-2.87,2.86,3.07,1.88,5.88,5.88,5.89
25.14,3.07,-2.82,3.07,-2.82,2.80,3.04,1.93,5.87,5.87,5.89
25.39,3.12,-2.77,3.12,-2.77,2.74,3.00,1.98,5.86,5.86,5.89
25.65,3.17,-2.71,3.17,-2.69,2.68,2.97,2.03,5.85,5.85,5.88
25.91,3.21,-2.60,3.21,-2.61,2.62,2.93,2.08,5.83,5.83,5.81
26.16,3.26,-2.53,3.26,-2.54,2.56,2.89,2.13,5.82,5.82,5.79
26.43,3.31,-2.48,3.31,-2.47,2.49,2.86,2.17,5.80,5.80,5.79
26.69,3.36,-2.43,3.36,-2.43,2.43,2.82,2.22,5.79,5.79,5.79
26.96,3.41,-2.38,3.41,-2.38,2.38,2.78,2.27,5.78,5.78,5.79
27.23,3.45,-2.33,3.45,-2.33,2.33,2.74,2.31,5.78,5.78,5.79
27.50,3.50,-2.29,3.50,-2.29,2.28,2.69,2.36,5.78,5.78,5.79
27.77,3.55,-2.24,3.55,-2.24,2.24,2.65,2.40,5.79,5.79,5.79
28.05,3.59,-2.19,3.59,-2.20,2.20,2.61,2.44,5.79,5.79,5.79
28.33,3.64,-2.15,3.64,-2.15,2.15,2.56,2.47,5.79,5.79,5.79
28.62,3.68,-2.11,3.68,-2.11,2.11,2.52,2.51,5.78,5.78,5.79
28.90,3.72,-2.07,3.72,-2.07,2.06,2.47,2.54,5.78,5.78,5.79
29.19,3.76,-2.03,3.76,-2.03,2.02,2.43,2.57,5.78,5.78,5.79
29.48,3.80,-1.99,3.80,-1.99,1.98,2.38,2.59,5.78,5.78,5.79
29.78,3.84,-1.95,3.84,-1.94,1.95,2.33,2.61,5.79,5.79,5.79
30.08,3.88,-1.91,3.88,-1.91,1.92,2.29,2.63,5.80,5.80,5.79
30.38,3.92,-1.87,3.92,-1.89,1.90,2.24,2.64,5.82,5.82,5.79
30.68,3.96,-1.88,3.96,-1.88,1.89,2.19,2.65,5.85,5.85,5.83
30.99,3.99,-1.89,3.99,-1.87,1.88,2.14,2.66,5.87,5.87,5.89
31.30,4.03,-1.86,4.03,-1.88,1.87,2.09,2.65,5.90,5.90,5.89
31.61,4.07,-1.87,4.07,-1.87,1.86,2.04,2.65,5.93,5.93,5.94
31.93,4.11,-1.88,4.11,-1.86,1.85,1.98,2.64,5.96,5.96,5.99
32.24,4.15,-1.84,4.15,-1.85,1.83,1.93,2.63,5.98,5.98,5.99
32.57,4.18,-1.81,4.18,-1.81,1.81,1.88,2.61,5.99,5.99,5.99
32.89,4.22,-1.77,4.22,-1.77,1.78,1.83,2.59,6.00,6.00,5.99
33.22,4.25,-1.73,4.25,-1.73,1.74,1.77,2.56,5.99,5.99,5.99
33.55,4.29,-1.70,4.29,-1.71,1.69,1.72,2.54,5.98,5.98,5.99
33.89,4.32,-1.67,4.32,-1.66,1.64,1.67,2.50,5.97,5.97,5.99
34.23,4.36,-1.63,4.36,-1.60,1.59,1.62,2.47,5.95,5.95,5.98
34.57,4.39,-1.52,4.39,-1.54,1.54,1.56,2.43,5.93,5.93,5.91
34.92,4.42,-1.47,4.42,-1.48,1.50,1.51,2.39,5.92,5.92,5.89
35.27,4.45,-1.43,4.45,-1.43,1.45,1.46,2.34,5.91,5.91,5.89
35.62,4.48,-1.40,4.48,-1.40,1.41,1.41,2.30,5.90,5.90,5.89
35.97,4.51,-1.37,4.51,-1.37,1.38,1.35,2.25,5.89,5.89,5.89
36.33,4.54,-1.35,4.54,-1.35,1.34,1.30,2.20,5.89,5.89,5.89
36.70,4.57,-1.32,4.57,-1.32,1.31,1.25,2.15,5.88,5.88,5.89
37.06,4.60,-1.29,4.60,-1.29,1.27,1.20,2.10,5.87,5.87,5.89
37.43,4.63,-1.26,4.63,-1.26,1.24,1.15,2.05,5.86,5.86,5.89
37.81,4.66,-1.23,4.66,-1.21,1.20,1.10,1.99,5.85,5.85,5.89
38.19,4.68,-1.15,4.68,-1.15,1.15,1.06,1.94,5.84,5.84,5.83
38.57,4.71,-1.08,4.71,-1.09,1.11,1.01,1.88,5.82,5.82,5.79
38.95,4.74,-1.05,4.74,-1.05,1.07,0.96,1.83,5.81,5.81,5.79
39.34,4.76,-1.03,4.76,-1.02,1.03,0.92,1.78,5.80,5.80,5.79
39.74,4.79,-1.00,4.79,-1.00,1.00,0.88,1.72,5.79,5.79,5.79
40.14,4.81,-0.98,4.81,-0.98,0.97,0.83,1.67,5.78,5.78,5.79
40.54,4.83,-0.95,4.83,-0.95,0.95,0.79,1.62,5.78,5.78,5.79
40.94,4.85,-0.93,4.85,-0.93,0.93,0.75,1.56,5.78,5.78,5.79
41.35,4.88,-0.91,4.88,-0.91,0.91,0.72,1.51,5.79,5.79,5.79
41.76,4.90,-0.89,4.90,-0.89,0.89,0.68,1.46,5.79,5.79,5.79
42.18,4.92,-0.87,4.92,-0.87,0.87,0.65,1.41,5.79,5.79,5.79
42.60,4.94,-0.85,4.94,-0.85,0.85,0.62,1.36,5.79,5.79,5.79
43.03,4.96,-0.83,4.96,-0.83,0.83,0.59,1.31,5.79,5.79,5.79
43.46,4.98,-0.81,4.98,-0.81,0.81,0.56,1.26,5.79,5.79,5.79
43.90,4.99,-0.79,4.99,-0.79,0.79,0.53,1.21,5.79,5.79,5.79
44.33,5.01,-0.78,5.01,-0.78,0.78,0.51,1.16,5.79,5.79,5.79
44.78,5.03,-0.76,5.03,-0.76,0.76,0.49,1.12,5.79,5.79,5.79
45.23,5.04,-0.75,5.04,-0.75,0.75,0.47,1.07,5.79,5.79,5.79
45.68,5.05,-0.73,5.06,-0.73,0.73,0.45,1.03,5.79,5.79,5.79
46.13,5.07,-0.72,5.07,-0.72,0.72,0.44,0.99,5.79,5.79,5.79
46.60,5.08,-0.71,5.08,-0.71,0.71,0.42,0.94,5.79,5.79,5.79
47.06,5.09,-0.70,5.09,-0.70,0.70,0.41,0.90,5.79,5.79,5.79
47.53,5.10,-0.69,5.10,-0.69,0.69,0.41,0.86,5.79,5.79,5.79
48.01,5.11,-0.68,5.11,-0.68,0.68,0.40,0.82,5.79,5.79,5.79
48.49,5.12,-0.67,5.12,-0.67,0.67,0.40,0.78,5.79,5.79,5.79
48.97,5.12,-0.66,5.12,-0.66,0.66,0.40,0.74,5.79,5.79,5.79
49.46,5.13,-0.66,5.13,-0.66,0.66,0.40,0.71,5.79,5.79,5.79
49.96,5.14,-0.65,5.14,-0.65,0.65,0.41,0.67,5.79,5.79,5.79
50.46,5.15,-0.64,5.15,-0.64,0.65,0.41,0.64,5.80,5.80,5.79
50.96,5.15,-0.64,5.15,-0.64,0.65,0.42,0.60,5.80,5.80,5.79
51.47,5.15,-0.63,5.15,-0.63,0.64,0.43,0.57,5.80,5.80,5.79
51.99,5.16,-0.63,5.16,-0.63,0.63,0.45,0.54,5.79,5.79,5.79
52.51,5.16,-0.62,5.16,-0.63,0.61,0.46,0.51,5.77,5.77,5.79
53.03,5.17,-0.62,5.17,-0.62,0.57,0.48,0.48,5.74,5.74,5.79
53.56,5.17,-0.61,5.17,-0.59,0.54,0.50,0.45,5.72,5.72,5.78
54.10,5.18,-0.54,5.18,-0.53,0.52,0.52,0.43,5.69,5.69,5.71
54.64,5.18,-0.47,5.18,-0.47,0.49,0.54,0.40,5.67,5.67,5.65
55.18,5.18,-0.41,5.18,-0.42,0.48,0.57,0.38,5.66,5.66,5.59
55.74,5.18,-0.41,5.18,-0.42,0.48,0.59,0.36,5.66,5.66,5.59
56.29,5.18,-0.46,5.18,-0.47,0.50,0.62,0.34,5.67,5.67,5.64
56.86,5.17,-0.54,5.17,-0.53,0.52,0.65,0.32,5.70,5.70,5.71
57.42,5.17,-0.61,5.17,-0.59,0.57,0.68,0.31,5.73,5.73,5.78
58.00,5.16,-0.62,5.16,-0.63,0.61,0.71,0.29,5.78,5.78,5.79
58.58,5.16,-0.65,5.16,-0.67,0.66,0.74,0.28,5.82,5.82,5.81
59.16,5.15,-0.73,5.15,-0.71,0.70,0.77,0.27,5.85,5.85,5.88
59.76,5.15,-0.74,5.15,-0.74,0.72,0.81,0.27,5.87,5.87,5.89
60.35,5.14,-0.75,5.14,-0.76,0.73,0.84,0.26,5.87,5.87,5.89
60.96,5.13,-0.76,5.13,-0.73,0.72,0.87,0.26,5.85,5.85,5.89
61.57,5.12,-0.70,5.12,-0.72,0.71,0.90,0.26,5.83,5.83,5.82
62.18,5.11,-0.68,5.11,-0.69,0.69,0.94,0.27,5.80,5.80,5.79
62.80,5.10,-0.68,5.10,-0.66,0.67,0.97,0.27,5.76,5.76,5.78
63.43,5.08,-0.63,5.08,-0.64,0.65,1.00,0.28,5.74,5.74,5.71
64.07,5.07,-0.62,5.07,-0.63,0.64,1.03,0.29,5.71,5.71,5.69
64.71,5.06,-0.63,5.06,-0.63,0.65,1.07,0.30,5.70,5.70,5.69
65.35,5.04,-0.65,5.04,-0.64,0.66,1.10,0.32,5.70,5.70,5.69
66.01,5.02,-0.67,5.02,-0.68,0.69,1.12,0.34,5.71,5.70,5.69
66.67,5.00,-0.71,5.00,-0.73,0.72,1.15,0.36,5.72,5.72,5.71
67.33,4.98,-0.80,4.98,-0.78,0.76,1.18,0.38,5.74,5.74,5.78
68.01,4.96,-0.83,4.96,-0.82,0.82,1.20,0.40,5.77,5.77,5.79
68.69,4.93,-0.85,4.93,-0.86,0.87,1.23,0.43,5.80,5.80,5.79
69.37,4.91,-0.88,4.91,-0.90,0.92,1.25,0.46,5.83,5.83,5.79
70.07,4.89,-0.97,4.89,-0.95,0.96,1.27,0.49,5.85,5.85,5.85
70.77,4.86,-1.02,4.87,-1.01,0.99,1.29,0.52,5.86,5.86,5.89
71.48,4.84,-1.05,4.84,-1.06,1.02,1.30,0.56,5.86,5.86,5.89
72.19,4.81,-1.07,4.81,-1.06,1.04,1.32,0.59,5.85,5.85,5.89
72.91,4.79,-1.06,4.79,-1.06,1.04,1.33,0.63,5.83,5.83,5.85
73.64,4.76,-1.03,4.76,-1.05,1.05,1.33,0.67,5.81,5.81,5.79
74.38,4.73,-1.05,4.73,-1.03,1.05,1.34,0.71,5.78,5.78,5.79
75.12,4.71,-1.03,4.71,-1.03,1.05,1.34,0.76,5.75,5.75,5.74
75.87,4.68,-1.01,4.68,-1.03,1.06,1.34,0.80,5.73,5.73,5.69
76.63,4.65,-1.04,4.65,-1.04,1.07,1.34,0.85,5.72,5.72,5.69
77.40,4.61,-1.07,4.61,-1.07,1.09,1.33,0.89,5.70,5.70,5.69
78.17,4.58,-1.11,4.58,-1.11,1.11,1.32,0.94,5.69,5.69,5.69
78.95,4.55,-1.14,4.55,-1.15,1.12,1.31,0.99,5.67,5.67,5.69
79.74,4.51,-1.18,4.51,-1.17,1.13,1.30,1.04,5.64,5.64,5.69
80.54,4.48,-1.18,4.48,-1.17,1.13,1.28,1.09,5.61,5.61,5.66
81.35,4.44,-1.16,4.44,-1.16,1.13,1.26,1.15,5.57,5.57,5.59
82.16,4.40,-1.13,4.40,-1.12,1.13,1.24,1.20,5.52,5.52,5.52
82.98,4.36,-1.10,4.36,-1.10,1.13,1.22,1.26,5.48,5.48,5.46
83.81,4.32,-1.07,4.31,-1.09,1.13,1.20,1.31,5.45,5.45,5.39
84.65,4.27,-1.11,4.27,-1.11,1.15,1.18,1.37,5.42,5.42,5.39
85.50,4.23,-1.16,4.23,-1.15,1.17,1.16,1.43,5.40,5.40,5.39
86.35,4.19,-1.20,4.19,-1.20,1.20,1.15,1.49,5.39,5.39,5.39
87.22,4.14,-1.24,4.14,-1.27,1.25,1.13,1.55,5.39,5.39,5.39
88.09,4.10,-1.34,4.10,-1.33,1.30,1.12,1.61,5.40,5.40,5.44
88.97,4.05,-1.41,4.05,-1.38,1.35,1.12,1.68,5.41,5.41,5.47
89.86,4.00,-1.40,4.00,-1.42,1.40,1.12,1.74,5.41,5.41,5.40
90.76,3.95,-1.44,3.95,-1.45,1.46,1.13,1.81,5.41,5.41,5.39
91.66,3.90,-1.49,3.90,-1.49,1.51,1.14,1.88,5.40,5.40,5.39
92.58,3.84,-1.55,3.84,-1.55,1.56,1.16,1.95,5.40,5.40,5.39
93.51,3.78,-1.60,3.78,-1.60,1.61,1.19,2.01,5.39,5.39,5.39
94.44,3.73,-1.66,3.73,-1.66,1.66,1.24,2.09,5.39,5.39,5.39
95.39,3.67,-1.72,3.67,-1.72,1.72,1.28,2.16,5.39,5.39,5.39
96.34,3.61,-1.78,3.61,-1.78,1.77,1.34,2.23,5.39,5.39,5.39
97.30,3.55,-1.84,3.55,-1.84,1.83,1.41,2.30,5.38,5.38,5.39
98.28,3.49,-1.90,3.49,-1.90,1.88,1.48,2.38,5.37,5.37,5.39
99.26,3.43,-1.96,3.43,-1.94,1.93,1.56,2.45,5.35,5.35,5.39
100.25,3.36,-1.98,3.36,-1.98,1.98,1.65,2.53,5.34,5.34,5.34
101.25,3.30,-1.99,3.30,-2.01,2.03,1.74,2.60,5.33,5.33,5.29
102.27,3.23,-2.06,3.23,-2.05,2.09,1.84,2.68,5.32,5.32,5.29
103.29,3.16,-2.12,3.16,-2.12,2.15,1.94,2.76,5.31,5.31,5.29
104.32,3.10,-2.19,3.10,-2.19,2.20,2.04,2.83,5.29,5.29,5.29
105.37,3.03,-2.26,3.03,-2.27,2.25,2.15,2.91,5.27,5.27,5.29
106.42,2.95,-2.33,2.95,-2.33,2.29,2.25,2.98,5.24,5.24,5.29
107.48,2.88,-2.38,2.88,-2.37,2.33,2.35,3.05,5.21,5.21,5.26
108.56,2.81,-2.40,2.81,-2.39,2.37,2.46,3.13,5.18,5.18,5.21
109.64,2.73,-2.39,2.73,-2.39,2.40,2.56,3.20,5.14,5.14,5.12
110.74,2.66,-2.39,2.66,-2.40,2.43,2.66,3.27,5.09,5.09,5.05
111.85,2.58,-2.41,2.58,-2.43,2.46,2.76,3.33,5.05,5.05,5.00
112.97,2.50,-2.48,2.50,-2.49,2.50,2.85,3.40,5.00,5.00,4.99
114.10,2.42,-2.56,2.42,-2.56,2.54,2.94,3.46,4.97,4.97,4.99
115.24,2.34,-2.63,2.34,-2.62,2.60,3.03,3.52,4.94,4.94,4.98
116.39,2.26,-2.66,2.26,-2.67,2.67,3.12,3.57,4.93,4.93,4.92
117.55,2.18,-2.71,2.18,-2.72,2.74,3.20,3.62,4.92,4.92,4.89
118.73,2.10,-2.79,2.10,-2.79,2.81,3.28,3.67,4.91,4.91,4.89
119.92,2.01,-2.88,2.01,-2.88,2.87,3.36,3.72,4.88,4.88,4.89
121.12,1.92,-2.96,1.92,-2.97,2.93,3.43,3.76,4.85,4.85,4.89
122.33,1.83,-3.04,1.83,-3.03,2.97,3.50,3.79,4.81,4.81,4.87
123.55,1.74,-3.07,1.74,-3.06,3.02,3.57,3.82,4.77,4.77,4.81
124.79,1.65,-3.06,1.65,-3.07,3.08,3.63,3.85,4.73,4.73,4.71
126.03,1.56,-3.08,1.56,-3.08,3.13,3.69,3.87,4.69,4.69,4.64
127.29,1.47,-3.12,1.47,-3.13,3.19,3.75,3.88,4.66,4.66,4.59
128.57,1.37,-3.21,1.37,-3.21,3.25,3.80,3.90,4.62,4.62,4.59
129.85,1.28,-3.31,1.28,-3.31,3.31,3.85,3.90,4.59,4.59,4.59
131.15,1.19,-3.40,1.19,-3.40,3.37,3.90,3.91,4.56,4.56,4.59
132.46,1.09,-3.49,1.09,-3.48,3.43,3.95,3.91,4.53,4.53,4.59
133.79,1.00,-3.55,1.00,-3.54,3.50,3.99,3.90,4.50,4.50,4.55
135.12,0.90,-3.58,0.90,-3.58,3.56,4.03,3.89,4.46,4.46,4.48
136.48,0.81,-3.61,0.81,-3.61,3.62,4.07,3.88,4.43,4.43,4.41
137.84,0.71,-3.64,0.71,-3.64,3.68,4.11,3.87,4.39,4.39,4.35
139.22,0.61,-3.68,0.61,-3.70,3.74,4.15,3.86,4.35,4.35,4.29
140.61,0.51,-3.78,0.51,-3.77,3.80,4.18,3.84,4.31,4.31,4.29
142.02,0.41,-3.88,0.41,-3.88,3.87,4.21,3.82,4.28,4.28,4.29
143.44,0.31,-3.97,0.31,-3.97,3.95,4.24,3.80,4.26,4.26,4.29
144.87,0.22,-4.07,0.22,-4.05,4.02,4.27,3.78,4.24,4.24,4.29
146.32,0.12,-4.10,0.12,-4.12,4.10,4.29,3.75,4.22,4.22,4.22
147.78,0.02,-4.17,0.02,-4.17,4.18,4.32,3.73,4.20,4.20,4.19
149.26,-0.07,-4.25,-0.07,-4.22,4.24,4.34,3.71,4.17,4.17,4.17
150.75,-0.17,-4.27,-0.17,-4.29,4.30,4.36,3.69,4.13,4.13,4.10
152.26,-0.26,-4.35,-0.26,-4.36,4.35,4.38,3.67,4.09,4.09,4.09
153.78,-0.36,-4.45,-0.36,-4.42,4.40,4.39,3.64,4.05,4.05,4.09
155.32,-0.45,-4.47,-0.45,-4.46,4.45,4.41,3.63,4.00,4.00,4.02
156.88,-0.54,-4.49,-0.54,-4.50,4.50,4.42,3.61,3.96,3.96,3.94
158.44,-0.63,-4.52,-0.63,-4.54,4.55,4.44,3.59,3.92,3.92,3.89
160.03,-0.72,-4.61,-0.72,-4.58,4.60,4.45,3.58,3.88,3.88,3.89
161.63,-0.81,-4.64,-0.81,-4.64,4.64,4.46,3.57,3.84,3.84,3.83
163.24,-0.89,-4.68,-0.89,-4.70,4.69,4.47,3.56,3.80,3.80,3.79
164.88,-0.97,-4.76,-0.97,-4.74,4.74,4.48,3.55,3.77,3.77,3.79
166.53,-1.05,-4.78,-1.05,-4.78,4.79,4.48,3.54,3.74,3.74,3.74
168.19,-1.12,-4.81,-1.12,-4.83,4.84,4.49,3.54,3.72,3.72,3.69
169.87,-1.20,-4.88,-1.20,-4.88,4.89,4.49,3.54,3.69,3.69,3.69
171.57,-1.27,-4.95,-1.27,-4.93,4.93,4.50,3.54,3.66,3.66,3.69
173.29,-1.34,-4.98,-1.34,-4.98,4.97,4.50,3.55,3.63,3.63,3.64
175.02,-1.40,-4.99,-1.40,-5.01,5.00,4.50,3.56,3.60,3.60,3.59
176.77,-1.46,-5.05,-1.46,-5.04,5.03,4.50,3.57,3.57,3.57,3.59
178.54,-1.52,-5.06,-1.52,-5.05,5.05,4.50,3.58,3.53,3.53,3.54
180.32,-1.58,-5.06,-1.58,-5.06,5.06,4.50,3.60,3.48,3.48,3.48
182.13,-1.63,-5.05,-1.63,-5.06,5.07,4.50,3.62,3.44,3.44,3.42
183.95,-1.68,-5.07,-1.68,-5.07,5.07,4.49,3.64,3.39,3.39,3.39
185.79,-1.73,-5.09,-1.73,-5.07,5.07,4.49,3.66,3.34,3.34,3.36
187.65,-1.77,-5.07,-1.77,-5.07,5.07,4.49,3.69,3.30,3.30,3.30
189.52,-1.81,-5.05,-1.81,-5.06,5.06,4.48,3.72,3.25,3.25,3.24
191.42,-1.84,-5.03,-1.84,-5.05,5.05,4.47,3.75,3.21,3.21,3.19
193.33,-1.88,-5.06,-1.88,-5.04,5.04,4.47,3.78,3.16,3.17,3.19
195.27,-1.90,-5.03,-1.90,-5.04,5.03,4.46,3.82,3.13,3.13,3.12
197.22,-1.92,-5.01,-1.92,-5.02,5.02,4.45,3.86,3.09,3.09,3.09
199.19,-1.94,-5.02,-1.94,-5.00,5.01,4.44,3.90,3.07,3.06,3.08
201.18,-1.96,-4.97,-1.96,-4.98,5.00,4.43,3.94,3.04,3.04,3.01
203.19,-1.97,-4.96,-1.97,-4.98,4.99,4.42,3.98,3.01,3.02,2.99
205.23,-1.98,-4.97,-1.98,-4.97,4.97,4.41,4.03,2.99,2.99,2.99
207.28,-1.99,-4.98,-1.99,-4.96,4.96,4.39,4.07,2.96,2.96,2.99
209.35,-2.00,-4.94,-2.00,-4.94,4.93,4.38,4.12,2.93,2.93,2.94
211.44,-2.00,-4.89,-2.00,-4.91,4.90,4.37,4.17,2.89,2.89,2.89
213.56,-2.00,-4.89,-2.00,-4.87,4.86,4.35,4.21,2.85,2.85,2.89
215.69,-2.00,-4.83,-2.00,-4.82,4.81,4.34,4.26,2.81,2.81,2.83
217.85,-2.00,-4.76,-2.00,-4.76,4.75,4.32,4.30,2.76,2.76,2.76
220.03,-1.99,-4.68,-1.99,-4.68,4.70,4.31,4.35,2.71,2.71,2.69
222.23,-1.98,-4.62,-1.98,-4.62,4.64,4.29,4.39,2.66,2.66,2.63
224.45,-1.97,-4.56,-1.97,-4.57,4.58,4.27,4.43,2.61,2.61,2.59
226.70,-1.96,-4.55,-1.96,-4.52,4.53,4.26,4.46,2.57,2.57,2.59
228.96,-1.95,-4.47,-1.95,-4.48,4.49,4.24,4.50,2.54,2.54,2.52
231.25,-1.94,-4.42,-1.94,-4.44,4.44,4.22,4.53,2.51,2.51,2.49
233.57,-1.92,-4.41,-1.92,-4.41,4.40,4.20,4.56,2.48,2.48,2.49
235.90,-1.91,-4.40,-1.91,-4.38,4.37,4.18,4.58,2.46,2.46,2.49
238.26,-1.89,-4.34,-1.89,-4.34,4.33,4.16,4.60,2.43,2.43,2.45
240.64,-1.88,-4.27,-1.88,-4.29,4.29,4.14,4.61,2.41,2.41,2.39
243.05,-1.86,-4.25,-1.86,-4.23,4.24,4.12,4.62,2.38,2.38,2.39
245.48,-1.85,-4.19,-1.85,-4.18,4.19,4.10,4.63,2.34,2.34,2.34
247.93,-1.83,-4.12,-1.83,-4.14,4.13,4.08,4.63,2.30,2.30,2.29
250.41,-1.81,-4.10,-1.81,-4.09,4.07,4.05,4.62,2.26,2.26,2.29
252.92,-1.80,-4.04,-1.80,-4.02,4.01,4.03,4.61,2.21,2.21,2.24
255.45,-1.78,-3.95,-1.78,-3.95,3.95,4.01,4.59,2.17,2.17,2.17
258.00,-1.77,-3.85,-1.77,-3.89,3.90,3.99,4.57,2.13,2.13,2.09
260.58,-1.75,-3.84,-1.75,-3.82,3.85,3.96,4.54,2.10,2.10,2.09
263.19,-1.74,-3.79,-1.74,-3.77,3.80,3.94,4.50,2.06,2.06,2.06
265.82,-1.72,-3.71,-1.72,-3.74,3.75,3.91,4.46,2.03,2.03,1.99
268.48,-1.71,-3.70,-1.71,-3.70,3.71,3.89,4.42,2.00,2.00,1.99
271.16,-1.70,-3.68,-1.70,-3.68,3.66,3.86,4.37,1.96,1.96,1.99
273.87,-1.68,-3.67,-1.68,-3.65,3.61,3.84,4.32,1.93,1.93,1.99
276.61,-1.67,-3.59,-1.67,-3.60,3.56,3.81,4.27,1.89,1.89,1.92
279.38,-1.66,-3.51,-1.66,-3.52,3.51,3.79,4.21,1.85,1.85,1.85
282.17,-1.65,-3.43,-1.65,-3.43,3.46,3.76,4.15,1.81,1.81,1.78
284.99,-1.64,-3.35,-1.64,-3.37,3.41,3.74,4.09,1.77,1.77,1.71
287.84,-1.63,-3.32,-1.63,-3.33,3.35,3.71,4.03,1.72,1.72,1.69
290.72,-1.62,-3.31,-1.62,-3.30,3.31,3.68,3.96,1.68,1.68,1.69
293.63,-1.61,-3.30,-1.61,-3.28,3.26,3.66,3.90,1.65,1.65,1.69
296.57,-1.61,-3.23,-1.61,-3.25,3.23,3.63,3.83,1.62,1.62,1.62
299.53,-1.60,-3.19,-1.60,-3.20,3.19,3.60,3.77,1.59,1.59,1.59
302.53,-1.59,-3.18,-1.59,-3.15,3.15,3.57,3.70,1.56,1.56,1.59
305.55,-1.59,-3.11,-1.59,-3.12,3.12,3.54,3.63,1.53,1.53,1.52
308.61,-1.58,-3.07,-1.58,-3.09,3.08,3.52,3.57,1.50,1.50,1.49
311.69,-1.58,-3.07,-1.58,-3.04,3.05,3.49,3.50,1.47,1.47,1.49
314.81,-1.58,-2.99,-1.58,-3.01,3.02,3.46,3.44,1.45,1.45,1.42
317.96,-1.58,-2.96,-1.58,-2.98,3.00,3.43,3.38,1.43,1.43,1.39
321.14,-1.57,-2.96,-1.57,-2.96,2.98,3.40,3.31,1.41,1.41,1.39
324.35,-1.57,-2.96,-1.57,-2.96,2.95,3.37,3.26,1.38,1.38,1.39
327.59,-1.57,-2.96,-1.57,-2.96,2.92,3.35,3.20,1.35,1.35,1.39
330.87,-1.57,-2.94,-1.57,-2.93,2.89,3.32,3.14,1.31,1.31,1.37
334.18,-1.58,-2.88,-1.58,-2.88,2.85,3.29,3.09,1.28,1.28,1.30
337.52,-1.58,-2.82,-1.58,-2.81,2.82,3.26,3.03,1.24,1.24,1.24
340.90,-1.58,-2.75,-1.58,-2.75,2.78,3.23,2.98,1.20,1.20,1.17
344.30,-1.58,-2.68,-1.58,-2.70,2.73,3.20,2.94,1.15,1.15,1.10
347.75,-1.59,-2.67,-1.59,-2.68,2.69,3.17,2.89,1.11,1.11,1.09
351.23,-1.59,-2.68,-1.59,-2.67,2.66,3.14,2.85,1.07,1.07,1.09
354.74,-1.59,-2.68,-1.59,-2.66,2.65,3.11,2.81,1.05,1.05,1.09
358.28,-1.60,-2.62,-1.60,-2.63,2.64,3.08,2.77,1.04,1.04,1.02
361.87,-1.61,-2.59,-1.61,-2.61,2.64,3.05,2.73,1.04,1.04,0.99
365.49,-1.61,-2.61,-1.61,-2.63,2.65,3.02,2.69,1.03,1.03,1.00
369.14,-1.62,-2.68,-1.62,-2.65,2.64,2.99,2.66,1.02,1.02,1.06
372.83,-1.63,-2.68,-1.63,-2.66,2.63,2.97,2.63,1.00,1.00,1.05
376.56,-1.63,-2.62,-1.63,-2.65,2.61,2.94,2.60,0.98,0.98,0.99
380.33,-1.64,-2.63,-1.64,-2.62,2.59,2.91,2.57,0.94,0.94,0.99
384.13,-1.65,-2.60,-1.65,-2.58,2.56,2.88,2.55,0.91,0.91,0.95
387.97,-1.66,-2.53,-1.66,-2.53,2.53,2.85,2.53,0.87,0.87,0.87
391.85,-1.67,-2.47,-1.67,-2.46,2.50,2.82,2.51,0.83,0.83,0.81
395.77,-1.68,-2.41,-1.68,-2.43,2.48,2.79,2.49,0.80,0.80,0.73
399.73,-1.69,-2.40,-1.69,-2.43,2.47,2.76,2.47,0.78,0.78,0.72
403.72,-1.69,-2.48,-1.69,-2.45,2.47,2.73,2.45,0.77,0.77,0.78
407.76,-1.70,-2.49,-1.70,-2.48,2.48,2.70,2.44,0.77,0.77,0.79
411.84,-1.71,-2.50,-1.71,-2.51,2.49,2.67,2.42,0.78,0.78,0.79
415.96,-1.72,-2.51,-1.72,-2.51,2.50,2.65,2.41,0.78,0.78,0.79
420.12,-1.73,-2.52,-1.73,-2.53,2.51,2.62,2.40,0.78,0.78,0.79
424.32,-1.74,-2.53,-1.74,-2.53,2.50,2.59,2.39,0.76,0.76,0.79
428.56,-1.75,-2.53,-1.75,-2.51,2.49,2.56,2.38,0.73,0.73,0.78
432.85,-1.76,-2.47,-1.76,-2.48,2.45,2.53,2.37,0.69,0.69,0.71
437.18,-1.77,-2.41,-1.77,-2.42,2.42,2.50,2.36,0.64,0.64,0.64
441.55,-1.78,-2.36,-1.78,-2.36,2.38,2.48,2.35,0.59,0.60,0.58
445.96,-1.79,-2.30,-1.79,-2.32,2.34,2.45,2.34,0.55,0.55,0.50
450.42,-1.80,-2.29,-1.80,-2.29,2.30,2.42,2.33,0.50,0.50,0.49
454.93,-1.81,-2.29,-1.81,-2.26,2.27,2.39,2.33,0.46,0.46,0.47
459.48,-1.82,-2.22,-1.82,-2.24,2.25,2.37,2.32,0.43,0.43,0.40
464.07,-1.83,-2.22,-1.83,-2.23,2.23,2.34,2.31,0.39,0.39,0.39
468.71,-1.84,-2.23,-1.84,-2.22,2.21,2.31,2.30,0.37,0.37,0.39
473.40,-1.85,-2.24,-1.85,-2.22,2.19,2.29,2.29,0.34,0.34,0.39
478.13,-1.86,-2.19,-1.86,-2.20,2.18,2.26,2.27,0.32,0.32,0.33
482.91,-1.87,-2.16,-1.87,-2.17,2.17,2.24,2.26,0.30,0.30,0.29
487.74,-1.88,-2.17,-1.88,-2.13,2.16,2.21,2.25,0.29,0.29,0.29
492.62,-1.88,-2.11,-1.89,-2.13,2.16,2.19,2.23,0.28,0.28,0.22
497.55,-1.89,-2.12,-1.89,-2.14,2.17,2.16,2.22,0.27,0.27,0.22
502.52,-1.90,-2.19,-1.90,-2.16,2.17,2.14,2.20,0.27,0.27,0.29
507.55,-1.91,-2.20,-1.91,-2.19,2.17,2.11,2.18,0.27,0.27,0.29
512.62,-1.92,-2.20,-1.92,-2.21,2.18,2.09,2.16,0.26,0.26,0.29
517.75,-1.92,-2.21,-1.92,-2.21,2.18,2.07,2.14,0.26,0.26,0.29
522.93,-1.93,-2.21,-1.93,-2.20,2.18,2.04,2.12,0.26,0.26,0.29
528.16,-1.93,-2.17,-1.93,-2.17,2.18,2.02,2.09,0.25,0.25,0.24
533.44,-1.94,-2.12,-1.94,-2.14,2.17,2.00,2.07,0.23,0.23,0.19
538.77,-1.94,-2.13,-1.94,-2.13,2.15,1.98,2.04,0.21,0.21,0.19
544.16,-1.95,-2.13,-1.95,-2.14,2.13,1.95,2.02,0.19,0.19,0.19
549.60,-1.95,-2.14,-1.95,-2.14,2.11,1.93,1.99,0.16,0.16,0.19
555.10,-1.95,-2.14,-1.95,-2.11,2.09,1.91,1.96,0.14,0.14,0.19
