frequency,raw,error,smoothed,error_smoothed,equalization,parametric_eq,fixed_band_eq,equalized_raw,equalized_smoothed,target
20.00,12.71,3.65,12.71,3.65,-3.66,-3.63,-1.62,9.06,9.06,9.06
20.20,12.72,3.72,12.72,3.72,-3.73,-3.70,-1.67,8.99,8.99,9.00
20.40,12.73,3.79,12.73,3.79,-3.79,-3.76,-1.72,8.94,8.94,8.94
20.61,12.73,3.85,12.73,3.85,-3.85,-3.83,-1.77,8.88,8.88,8.88
20.81,12.73,3.91,12.73,3.91,-3.90,-3.89,-1.82,8.84,8.84,8.82
21.02,12.74,3.96,12.74,3.96,-3.94,-3.95,-1.87,8.79,8.79,8.78
21.23,12.74,4.00,12.74,4.00,-3.98,-4.00,-1.93,8.76,8.76,8.74
21.44,12.73,4.02,12.73,4.02,-4.01,-4.03,-1.99,8.72,8.72,8.71
21.66,12.73,4.03,12.73,4.03,-4.03,-4.07,-2.04,8.70,8.70,8.70
21.87,12.73,4.04,12.72,4.04,-4.05,-4.07,-2.10,8.68,8.68,8.68
22.09,12.72,4.05,12.72,4.05,-4.06,-4.08,-2.16,8.66,8.66,8.67
22.31,12.71,4.06,12.71,4.06,-4.07,-4.07,-2.23,8.64,8.64,8.65
22.54,12.69,4.07,12.69,4.07,-4.07,-4.06,-2.29,8.62,8.62,8.63
22.76,12.68,4.07,12.68,4.07,-4.08,-4.07,-2.36,8.60,8.60,8.60
22.99,12.66,4.08,12.66,4.08,-4.08,-4.07,-2.43,8.58,8.58,8.58
23.22,12.64,4.08,12.64,4.08,-4.07,-4.07,-2.50,8.56,8.56,8.56
23.45,12.61,4.07,12.61,4.07,-4.06,-4.08,-2.57,8.55,8.55,8.54
23.69,12.59,4.06,12.59,4.06,-4.05,-4.07,-2.64,8.54,8.54,8.53
23.92,12.56,4.04,12.56,4.04,-4.03,-4.06,-2.71,8.53,8.53,8.53
24.16,12.53,4.01,12.53,4.01,-4.01,-4.04,-2.79,8.53,8.52,8.52
24.40,12.50,3.97,12.50,3.97,-3.98,-4.01,-2.86,8.52,8.52,8.52
24.65,12.46,3.94,12.46,3.94,-3.95,-3.98,-2.94,8.52,8.52,8.52
24.89,12.42,3.91,12.42,3.91,-3.91,-3.94,-3.02,8.51,8.51,8.51
25.14,12.39,3.88,12.39,3.88,-3.88,-3.91,-3.10,8.51,8.51,8.51
25.39,12.35,3.85,12.35,3.85,-3.85,-3.87,-3.18,8.50,8.50,8.50
25.65,12.31,3.82,12.31,3.82,-3.82,-3.84,-3.26,8.49,8.49,8.49
25.91,12.27,3.80,12.27,3.79,-3.80,-3.80,-3.34,8.48,8.48,8.48
26.16,12.24,3.77,12.24,3.77,-3.78,-3.77,-3.42,8.45,8.45,8.46
26.43,12.20,3.76,12.20,3.76,-3.77,-3.75,-3.50,8.43,8.43,8.44
26.69,12.16,3.75,12.16,3.75,-3.77,-3.72,-3.57,8.40,8.40,8.41
26.96,12.13,3.76,12.13,3.76,-3.77,-3.70,-3.65,8.36,8.36,8.37
27.23,12.09,3.77,12.09,3.77,-3.77,-3.68,-3.73,8.33,8.33,8.33
27.50,12.06,3.78,12.06,3.78,-3.77,-3.66,-3.80,8.29,8.29,8.28
27.77,12.02,3.78,12.02,3.78,-3.76,-3.64,-3.87,8.26,8.26,8.24
28.05,11.98,3.77,11.98,3.77,-3.74,-3.62,-3.94,8.24,8.24,8.21
28.33,11.94,3.74,11.94,3.74,-3.72,-3.61,-4.00,8.22,8.22,8.20
28.62,11.91,3.71,11.91,3.71,-3.70,-3.60,-4.07,8.21,8.21,8.20
28.90,11.87,3.67,11.87,3.67,-3.67,-3.59,-4.12,8.20,8.20,8.20
29.19,11.84,3.63,11.84,3.63,-3.64,-3.58,-4.18,8.20,8.20,8.21
29.48,11.81,3.59,11.81,3.60,-3.62,-3.57,-4.22,8.19,8.19,8.21
29.78,11.78,3.58,11.78,3.58,-3.60,-3.56,-4.27,8.18,8.18,8.20
30.08,11.76,3.57,11.76,3.57,-3.59,-3.55,-4.30,8.17,8.17,8.19
30.38,11.73,3.57,11.73,3.57,-3.58,-3.55,-4.34,8.15,8.15,8.16
30.68,11.71,3.58,11.70,3.58,-3.58,-3.54,-4.36,8.12,8.12,8.12
30.99,11.67,3.59,11.67,3.59,-3.58,-3.53,-4.38,8.09,8.09,8.08
31.30,11.64,3.59,11.64,3.59,-3.58,-3.53,-4.40,8.05,8.05,8.04
31.61,11.60,3.59,11.60,3.59,-3.58,-3.52,-4.41,8.02,8.02,8.01
31.93,11.56,3.58,11.56,3.58,-3.57,-3.52,-4.41,7.99,8.00,7.98
32.24,11.53,3.56,11.53,3.56,-3.55,-3.52,-4.40,7.98,7.98,7.98
32.57,11.50,3.53,11.51,3.53,-3.52,-3.51,-4.39,7.98,7.98,7.98
32.89,11.48,3.49,11.48,3.49,-3.49,-3.51,-4.38,8.00,8.00,7.99
33.22,11.46,3.45,11.46,3.45,-3.45,-3.50,-4.36,8.01,8.01,8.01
33.55,11.43,3.41,11.43,3.41,-3.41,-3.50,-4.33,8.03,8.02,8.03
33.89,11.40,3.37,11.40,3.37,-3.37,-3.50,-4.30,8.03,8.03,8.03
34.23,11.36,3.33,11.36,3.33,-3.34,-3.49,-4.27,8.03,8.03,8.04
34.57,11.32,3.29,11.32,3.29,-3.31,-3.49,-4.23,8.02,8.02,8.03
34.92,11.29,3.27,11.29,3.27,-3.28,-3.49,-4.19,8.01,8.01,8.02
35.27,11.26,3.26,11.26,3.26,-3.26,-3.48,-4.15,8.00,8.00,8.00
35.62,11.23,3.25,11.24,3.25,-3.25,-3.48,-4.10,7.99,7.99,7.98
35.97,11.22,3.25,11.22,3.25,-3.24,-3.48,-4.06,7.98,7.98,7.97
36.33,11.20,3.25,11.20,3.24,-3.24,-3.47,-4.01,7.96,7.96,7.96
36.70,11.19,3.24,11.19,3.24,-3.24,-3.47,-3.96,7.94,7.94,7.95
37.06,11.17,3.24,11.17,3.24,-3.25,-3.47,-3.91,7.92,7.92,7.93
37.43,11.15,3.25,11.15,3.26,-3.26,-3.46,-3.86,7.89,7.89,7.90
37.81,11.13,3.28,11.13,3.28,-3.27,-3.46,-3.80,7.86,7.86,7.85
38.19,11.11,3.31,11.11,3.30,-3.29,-3.46,-3.75,7.82,7.83,7.81
38.57,11.10,3.32,11.10,3.32,-3.31,-3.45,-3.70,7.78,7.78,7.77
38.95,11.08,3.34,11.08,3.34,-3.34,-3.45,-3.65,7.73,7.73,7.74
39.34,11.06,3.35,11.06,3.35,-3.38,-3.44,-3.61,7.68,7.68,7.71
39.74,11.04,3.38,11.04,3.39,-3.41,-3.44,-3.56,7.63,7.63,7.66
40.14,11.02,3.44,11.02,3.44,-3.44,-3.43,-3.51,7.57,7.58,7.58
40.54,11.00,3.51,11.00,3.50,-3.48,-3.43,-3.47,7.52,7.52,7.49
40.94,10.98,3.54,10.98,3.53,-3.51,-3.42,-3.43,7.47,7.47,7.44
41.35,10.96,3.55,10.96,3.55,-3.54,-3.42,-3.39,7.42,7.42,7.41
41.76,10.95,3.55,10.94,3.55,-3.57,-3.41,-3.35,7.38,7.38,7.40
42.18,10.92,3.57,10.92,3.57,-3.58,-3.41,-3.32,7.34,7.34,7.35
42.60,10.89,3.59,10.89,3.59,-3.59,-3.40,-3.28,7.30,7.30,7.30
43.03,10.86,3.62,10.86,3.61,-3.58,-3.40,-3.25,7.27,7.27,7.23
43.46,10.82,3.61,10.82,3.60,-3.58,-3.39,-3.22,7.24,7.24,7.21
43.90,10.78,3.57,10.78,3.57,-3.56,-3.39,-3.20,7.22,7.22,7.21
44.33,10.74,3.51,10.74,3.53,-3.55,-3.38,-3.18,7.19,7.19,7.23
44.78,10.71,3.50,10.71,3.51,-3.53,-3.37,-3.15,7.18,7.18,7.21
45.23,10.67,3.51,10.67,3.51,-3.52,-3.37,-3.14,7.16,7.16,7.16
45.68,10.63,3.52,10.63,3.51,-3.50,-3.36,-3.12,7.13,7.13,7.12
46.13,10.59,3.50,10.59,3.49,-3.49,-3.35,-3.11,7.09,7.09,7.09
46.60,10.54,3.46,10.54,3.47,-3.49,-3.35,-3.09,7.06,7.06,7.09
47.06,10.50,3.45,10.50,3.46,-3.47,-3.34,-3.09,7.03,7.03,7.05
47.53,10.45,3.46,10.45,3.47,-3.45,-3.33,-3.08,7.00,7.00,6.99
48.01,10.41,3.49,10.41,3.47,-3.42,-3.32,-3.07,6.99,6.99,6.92
48.49,10.36,3.46,10.36,3.44,-3.39,-3.32,-3.07,6.98,6.98,6.91
48.97,10.32,3.37,10.32,3.36,-3.36,-3.31,-3.07,6.96,6.96,6.95
49.46,10.27,3.27,10.27,3.29,-3.34,-3.30,-3.07,6.94,6.94,7.00
49.96,10.23,3.24,10.23,3.26,-3.32,-3.29,-3.08,6.91,6.91,6.99
50.46,10.18,3.28,10.18,3.27,-3.31,-3.28,-3.08,6.87,6.87,6.91
50.96,10.14,3.31,10.14,3.30,-3.31,-3.28,-3.09,6.83,6.83,6.83
51.47,10.09,3.33,10.09,3.33,-3.31,-3.27,-3.09,6.78,6.78,6.76
51.99,10.03,3.34,10.03,3.35,-3.32,-3.26,-3.10,6.72,6.72,6.69
52.51,9.98,3.35,9.98,3.35,-3.33,-3.25,-3.11,6.65,6.65,6.62
53.03,9.92,3.36,9.92,3.35,-3.34,-3.24,-3.12,6.58,6.58,6.55
53.56,9.85,3.33,9.85,3.33,-3.34,-3.23,-3.14,6.52,6.52,6.52
54.10,9.79,3.30,9.79,3.31,-3.32,-3.22,-3.15,6.47,6.47,6.49
54.64,9.73,3.28,9.73,3.29,-3.29,-3.21,-3.16,6.44,6.44,6.45
55.18,9.66,3.29,9.67,3.29,-3.26,-3.20,-3.17,6.41,6.41,6.37
55.74,9.61,3.27,9.61,3.26,-3.23,-3.19,-3.18,6.38,6.38,6.33
56.29,9.55,3.21,9.55,3.20,-3.20,-3.18,-3.19,6.36,6.36,6.34
56.86,9.50,3.12,9.50,3.14,-3.17,-3.17,-3.20,6.33,6.33,6.38
57.42,9.45,3.09,9.45,3.09,-3.14,-3.16,-3.21,6.31,6.31,6.36
58.00,9.40,3.07,9.40,3.10,-3.13,-3.15,-3.22,6.28,6.27,6.33
58.58,9.35,3.13,9.35,3.11,-3.11,-3.14,-3.22,6.24,6.24,6.22
59.16,9.29,3.15,9.29,3.12,-3.10,-3.12,-3.23,6.19,6.19,6.14
59.76,9.24,3.09,9.24,3.11,-3.09,-3.11,-3.23,6.15,6.15,6.15
60.35,9.18,3.07,9.18,3.10,-3.09,-3.10,-3.23,6.09,6.09,6.11
60.96,9.13,3.09,9.13,3.09,-3.09,-3.09,-3.23,6.04,6.04,6.04
61.57,9.07,3.13,9.07,3.08,-3.08,-3.08,-3.23,5.99,5.99,5.94
62.18,9.00,3.05,9.00,3.06,-3.06,-3.07,-3.22,5.94,5.94,5.95
62.80,8.93,2.99,8.93,3.03,-3.04,-3.06,-3.21,5.90,5.90,5.94
63.43,8.87,3.00,8.87,3.01,-3.01,-3.04,-3.20,5.86,5.86,5.86
64.07,8.80,3.03,8.80,2.99,-2.97,-3.03,-3.19,5.83,5.83,5.76
64.71,8.74,2.96,8.74,2.96,-2.93,-3.02,-3.17,5.80,5.80,5.78
65.35,8.68,2.89,8.68,2.91,-2.90,-3.01,-3.15,5.78,5.78,5.78
66.01,8.62,2.84,8.62,2.85,-2.87,-2.99,-3.13,5.75,5.75,5.78
66.67,8.56,2.83,8.56,2.83,-2.85,-2.98,-3.11,5.71,5.71,5.73
67.33,8.51,2.82,8.51,2.81,-2.84,-2.97,-3.09,5.66,5.66,5.69
68.01,8.45,2.81,8.45,2.80,-2.84,-2.96,-3.06,5.61,5.61,5.65
68.69,8.40,2.79,8.40,2.82,-2.85,-2.94,-3.04,5.55,5.55,5.61
69.37,8.35,2.85,8.35,2.87,-2.86,-2.93,-3.01,5.49,5.49,5.50
70.07,8.30,2.96,8.30,2.92,-2.88,-2.92,-2.98,5.42,5.42,5.34
70.77,8.24,2.96,8.24,2.92,-2.89,-2.91,-2.95,5.36,5.36,5.29
71.48,8.19,2.87,8.19,2.91,-2.88,-2.89,-2.92,5.31,5.31,5.31
72.19,8.13,2.82,8.13,2.88,-2.86,-2.88,-2.89,5.27,5.27,5.31
72.91,8.07,2.92,8.07,2.84,-2.83,-2.87,-2.86,5.24,5.24,5.14
73.64,8.01,2.81,8.01,2.79,-2.79,-2.85,-2.83,5.22,5.22,5.20
74.38,7.95,2.70,7.95,2.74,-2.74,-2.84,-2.80,5.21,5.21,5.25
75.12,7.90,2.65,7.90,2.67,-2.70,-2.83,-2.77,5.19,5.19,5.25
75.87,7.84,2.67,7.84,2.64,-2.67,-2.81,-2.74,5.17,5.17,5.18
76.63,7.79,2.64,7.79,2.62,-2.64,-2.80,-2.71,5.15,5.15,5.15
77.40,7.74,2.58,7.74,2.63,-2.62,-2.79,-2.68,5.12,5.11,5.16
78.17,7.69,2.63,7.69,2.62,-2.62,-2.77,-2.66,5.07,5.07,5.06
78.95,7.64,2.67,7.64,2.63,-2.62,-2.76,-2.63,5.02,5.02,4.97
79.74,7.59,2.62,7.59,2.62,-2.62,-2.75,-2.61,4.97,4.97,4.97
80.54,7.54,2.59,7.54,2.61,-2.63,-2.74,-2.58,4.91,4.91,4.95
81.35,7.49,2.60,7.49,2.63,-2.62,-2.72,-2.56,4.87,4.87,4.89
82.16,7.44,2.68,7.44,2.64,-2.62,-2.71,-2.54,4.82,4.82,4.76
82.98,7.39,2.66,7.39,2.64,-2.61,-2.70,-2.52,4.78,4.78,4.73
83.81,7.34,2.57,7.34,2.62,-2.60,-2.69,-2.51,4.73,4.73,4.76
84.65,7.28,2.60,7.28,2.57,-2.59,-2.67,-2.49,4.69,4.69,4.69
85.50,7.23,2.56,7.23,2.55,-2.58,-2.66,-2.48,4.65,4.65,4.67
86.35,7.17,2.51,7.17,2.56,-2.57,-2.65,-2.47,4.61,4.60,4.66
87.22,7.12,2.57,7.12,2.56,-2.55,-2.64,-2.46,4.56,4.56,4.54
88.09,7.06,2.58,7.06,2.57,-2.54,-2.62,-2.45,4.52,4.52,4.48
88.97,7.01,2.57,7.01,2.56,-2.54,-2.61,-2.45,4.46,4.46,4.44
89.86,6.95,2.55,6.95,2.51,-2.55,-2.60,-2.44,4.41,4.41,4.40
90.76,6.90,2.45,6.90,2.53,-2.54,-2.59,-2.44,4.36,4.36,4.45
91.66,6.85,2.51,6.85,2.54,-2.53,-2.58,-2.44,4.32,4.32,4.34
92.58,6.80,2.69,6.80,2.55,-2.53,-2.57,-2.44,4.27,4.27,4.11
93.51,6.75,2.52,6.75,2.60,-2.55,-2.56,-2.44,4.20,4.20,4.22
94.44,6.69,2.57,6.69,2.63,-2.61,-2.55,-2.45,4.08,4.08,4.12
95.39,6.63,2.66,6.63,2.54,-2.69,-2.54,-2.46,3.95,3.95,3.97
96.34,6.57,2.64,6.57,2.57,-2.76,-2.53,-2.46,3.81,3.81,3.93
97.30,6.50,2.41,6.50,2.73,-2.81,-2.52,-2.47,3.69,3.69,4.09
98.28,6.44,2.99,6.44,2.96,-2.85,-2.51,-2.49,3.59,3.59,3.45
99.26,6.37,3.35,6.37,3.09,-2.88,-2.50,-2.50,3.50,3.50,3.03
100.25,6.32,3.14,6.32,3.09,-2.87,-2.49,-2.51,3.44,3.44,3.18
101.25,6.27,2.68,6.27,2.87,-2.85,-2.48,-2.53,3.42,3.42,3.58
102.27,6.22,2.65,6.22,2.70,-2.80,-2.47,-2.54,3.43,3.43,3.58
103.29,6.19,2.71,6.19,2.63,-2.72,-2.47,-2.56,3.47,3.47,3.48
104.32,6.15,2.66,6.15,2.60,-2.62,-2.46,-2.58,3.53,3.53,3.48
105.37,6.11,2.48,6.11,2.49,-2.52,-2.45,-2.59,3.59,3.59,3.63
106.42,6.07,2.35,6.07,2.39,-2.45,-2.45,-2.61,3.62,3.62,3.72
107.48,6.03,2.32,6.03,2.36,-2.41,-2.44,-2.63,3.62,3.62,3.71
108.56,5.99,2.42,5.99,2.39,-2.39,-2.44,-2.65,3.59,3.59,3.56
109.64,5.94,2.44,5.94,2.41,-2.37,-2.43,-2.67,3.57,3.57,3.50
110.74,5.89,2.40,5.89,2.40,-2.35,-2.43,-2.68,3.55,3.55,3.49
111.85,5.84,2.31,5.84,2.39,-2.32,-2.43,-2.70,3.52,3.52,3.53
112.97,5.79,2.37,5.79,2.32,-2.30,-2.42,-2.72,3.49,3.49,3.42
114.10,5.73,2.35,5.73,2.27,-2.27,-2.42,-2.73,3.46,3.46,3.38
115.24,5.67,2.12,5.67,2.24,-2.25,-2.42,-2.75,3.42,3.42,3.55
116.39,5.61,2.22,5.61,2.20,-2.24,-2.42,-2.76,3.37,3.37,3.39
117.55,5.56,2.25,5.56,2.20,-2.25,-2.42,-2.77,3.31,3.31,3.31
118.73,5.52,2.22,5.51,2.24,-2.28,-2.42,-2.78,3.23,3.23,3.30
119.92,5.48,2.26,5.48,2.29,-2.33,-2.43,-2.79,3.15,3.14,3.22
121.12,5.45,2.37,5.45,2.37,-2.40,-2.43,-2.79,3.05,3.05,3.08
122.33,5.44,2.53,5.44,2.48,-2.46,-2.43,-2.80,2.98,2.98,2.91
123.55,5.44,2.55,5.44,2.59,-2.52,-2.44,-2.80,2.92,2.92,2.89
124.79,5.44,2.65,5.44,2.65,-2.57,-2.44,-2.80,2.87,2.87,2.79
126.03,5.45,2.69,5.45,2.65,-2.61,-2.45,-2.79,2.83,2.84,2.76
127.29,5.45,2.64,5.45,2.65,-2.64,-2.46,-2.79,2.81,2.80,2.81
128.57,5.44,2.60,5.44,2.63,-2.66,-2.46,-2.78,2.77,2.77,2.84
129.85,5.42,2.61,5.42,2.59,-2.67,-2.47,-2.77,2.75,2.75,2.80
131.15,5.40,2.63,5.40,2.63,-2.67,-2.48,-2.76,2.73,2.73,2.77
132.46,5.37,2.60,5.36,2.68,-2.66,-2.50,-2.74,2.70,2.70,2.77
133.79,5.32,2.80,5.32,2.69,-2.65,-2.51,-2.73,2.68,2.68,2.53
135.12,5.28,2.69,5.28,2.69,-2.63,-2.52,-2.71,2.65,2.65,2.59
136.48,5.23,2.59,5.23,2.66,-2.61,-2.53,-2.69,2.62,2.62,2.63
137.84,5.17,2.63,5.17,2.59,-2.59,-2.55,-2.67,2.59,2.59,2.54
139.22,5.12,2.56,5.12,2.56,-2.58,-2.56,-2.65,2.54,2.54,2.56
140.61,5.07,2.52,5.07,2.54,-2.59,-2.58,-2.63,2.48,2.48,2.55
142.02,5.03,2.53,5.03,2.51,-2.62,-2.59,-2.61,2.41,2.41,2.50
143.44,4.99,2.54,4.99,2.53,-2.65,-2.61,-2.58,2.34,2.34,2.44
144.87,4.95,2.55,4.95,2.62,-2.66,-2.62,-2.56,2.28,2.28,2.39
146.32,4.90,2.73,4.90,2.74,-2.66,-2.64,-2.53,2.24,2.24,2.17
147.78,4.86,2.89,4.86,2.85,-2.65,-2.66,-2.51,2.21,2.21,1.97
149.26,4.82,2.89,4.82,2.84,-2.64,-2.67,-2.49,2.18,2.18,1.93
150.75,4.78,2.73,4.78,2.69,-2.63,-2.69,-2.46,2.15,2.15,2.05
152.26,4.74,2.41,4.74,2.48,-2.62,-2.70,-2.44,2.12,2.13,2.33
153.78,4.71,2.34,4.71,2.37,-2.60,-2.71,-2.42,2.11,2.11,2.37
155.32,4.68,2.37,4.68,2.41,-2.58,-2.73,-2.40,2.10,2.10,2.31
156.88,4.66,2.60,4.66,2.57,-2.57,-2.74,-2.38,2.09,2.09,2.06
158.44,4.63,2.72,4.63,2.69,-2.57,-2.75,-2.36,2.06,2.06,1.91
160.03,4.61,2.77,4.61,2.72,-2.60,-2.76,-2.34,2.01,2.01,1.84
161.63,4.58,2.65,4.58,2.70,-2.64,-2.76,-2.32,1.94,1.94,1.93
163.24,4.55,2.62,4.55,2.66,-2.69,-2.77,-2.31,1.86,1.86,1.93
164.88,4.51,2.69,4.51,2.64,-2.71,-2.77,-2.29,1.80,1.80,1.82
166.53,4.47,2.66,4.47,2.67,-2.70,-2.77,-2.28,1.77,1.77,1.81
168.19,4.42,2.66,4.42,2.69,-2.68,-2.77,-2.27,1.75,1.75,1.76
169.87,4.37,2.73,4.37,2.69,-2.66,-2.76,-2.26,1.71,1.71,1.64
171.57,4.32,2.68,4.32,2.68,-2.65,-2.76,-2.25,1.67,1.67,1.64
173.29,4.28,2.64,4.28,2.65,-2.65,-2.75,-2.24,1.63,1.63,1.64
175.02,4.23,2.61,4.23,2.61,-2.65,-2.74,-2.24,1.58,1.58,1.62
176.77,4.18,2.60,4.18,2.60,-2.64,-2.72,-2.24,1.54,1.54,1.58
178.54,4.14,2.61,4.14,2.63,-2.64,-2.71,-2.24,1.50,1.49,1.52
180.32,4.09,2.64,4.09,2.66,-2.64,-2.69,-2.24,1.45,1.45,1.45
182.13,4.05,2.73,4.05,2.64,-2.64,-2.68,-2.24,1.41,1.41,1.32
183.95,4.00,2.60,4.00,2.65,-2.63,-2.66,-2.24,1.37,1.37,1.40
185.79,3.96,2.58,3.96,2.65,-2.63,-2.64,-2.25,1.33,1.33,1.38
187.65,3.92,2.73,3.92,2.63,-2.62,-2.62,-2.26,1.29,1.29,1.19
189.52,3.88,2.61,3.88,2.63,-2.62,-2.60,-2.27,1.26,1.26,1.28
191.42,3.84,2.58,3.84,2.58,-2.61,-2.57,-2.28,1.23,1.23,1.26
193.33,3.81,2.56,3.81,2.55,-2.60,-2.55,-2.29,1.21,1.21,1.25
195.27,3.78,2.52,3.78,2.58,-2.59,-2.53,-2.30,1.18,1.18,1.25
197.22,3.74,2.67,3.74,2.60,-2.59,-2.51,-2.32,1.15,1.15,1.07
199.19,3.70,2.62,3.70,2.61,-2.59,-2.49,-2.33,1.11,1.11,1.08
201.18,3.66,2.57,3.66,2.59,-2.59,-2.47,-2.35,1.08,1.08,1.09
203.19,3.62,2.55,3.62,2.55,-2.57,-2.45,-2.36,1.05,1.05,1.07
205.23,3.58,2.53,3.58,2.56,-2.55,-2.43,-2.38,1.03,1.03,1.05
207.28,3.53,2.56,3.53,2.56,-2.52,-2.42,-2.40,1.01,1.01,0.97
209.35,3.49,2.60,3.49,2.53,-2.48,-2.40,-2.42,1.01,1.01,0.89
211.44,3.44,2.44,3.44,2.46,-2.43,-2.39,-2.44,1.01,1.01,1.00
213.56,3.40,2.33,3.40,2.36,-2.39,-2.37,-2.46,1.00,1.00,1.07
215.69,3.35,2.29,3.35,2.30,-2.36,-2.36,-2.48,0.99,0.99,1.06
217.85,3.31,2.28,3.31,2.30,-2.33,-2.35,-2.50,0.97,0.97,1.03
220.03,3.26,2.36,3.26,2.32,-2.31,-2.34,-2.52,0.95,0.95,0.91
222.23,3.22,2.32,3.22,2.31,-2.30,-2.34,-2.54,0.91,0.91,0.90
224.45,3.18,2.29,3.18,2.31,-2.31,-2.33,-2.56,0.87,0.87,0.88
226.70,3.13,2.28,3.13,2.31,-2.31,-2.33,-2.58,0.82,0.82,0.85
228.96,3.08,2.35,3.08,2.33,-2.32,-2.32,-2.60,0.76,0.76,0.74
231.25,3.03,2.37,3.03,2.35,-2.32,-2.32,-2.61,0.71,0.71,0.66
233.57,2.98,2.35,2.98,2.35,-2.32,-2.32,-2.63,0.66,0.66,0.63
235.90,2.93,2.31,2.93,2.32,-2.31,-2.33,-2.64,0.62,0.62,0.62
238.26,2.88,2.29,2.88,2.29,-2.31,-2.33,-2.65,0.58,0.58,0.60
240.64,2.84,2.27,2.84,2.28,-2.30,-2.34,-2.66,0.54,0.54,0.56
243.05,2.80,2.29,2.80,2.28,-2.30,-2.34,-2.66,0.50,0.50,0.50
245.48,2.77,2.29,2.76,2.29,-2.29,-2.35,-2.67,0.47,0.47,0.47
247.93,2.74,2.30,2.74,2.30,-2.29,-2.36,-2.67,0.45,0.45,0.45
250.41,2.73,2.30,2.73,2.31,-2.30,-2.37,-2.67,0.42,0.43,0.42
252.92,2.73,2.33,2.73,2.32,-2.32,-2.38,-2.67,0.41,0.41,0.40
255.45,2.74,2.34,2.74,2.34,-2.34,-2.39,-2.66,0.40,0.40,0.40
258.00,2.76,2.36,2.76,2.37,-2.37,-2.41,-2.66,0.39,0.39,0.40
260.58,2.78,2.40,2.78,2.39,-2.41,-2.42,-2.65,0.37,0.37,0.38
263.19,2.79,2.43,2.79,2.43,-2.45,-2.44,-2.64,0.35,0.35,0.36
265.82,2.79,2.46,2.79,2.47,-2.49,-2.45,-2.63,0.31,0.31,0.34
268.48,2.79,2.52,2.78,2.52,-2.52,-2.46,-2.61,0.26,0.26,0.26
271.16,2.76,2.59,2.76,2.57,-2.55,-2.48,-2.60,0.21,0.21,0.18
273.87,2.74,2.61,2.74,2.61,-2.57,-2.49,-2.58,0.16,0.16,0.13
276.61,2.70,2.61,2.70,2.62,-2.58,-2.50,-2.56,0.12,0.12,0.10
279.38,2.67,2.61,2.67,2.60,-2.59,-2.51,-2.54,0.08,0.08,0.06
282.17,2.63,2.58,2.63,2.58,-2.59,-2.52,-2.52,0.05,0.05,0.05
284.99,2.59,2.54,2.59,2.56,-2.58,-2.53,-2.50,0.01,0.01,0.06
287.84,2.55,2.56,2.55,2.55,-2.57,-2.54,-2.48,-0.02,-0.02,-0.01
290.72,2.51,2.56,2.51,2.53,-2.55,-2.54,-2.46,-0.04,-0.04,-0.05
293.63,2.47,2.50,2.47,2.53,-2.54,-2.54,-2.44,-0.07,-0.07,-0.03
296.57,2.43,2.51,2.43,2.53,-2.53,-2.54,-2.42,-0.10,-0.10,-0.08
299.53,2.39,2.58,2.39,2.54,-2.52,-2.54,-2.40,-0.13,-0.13,-0.19
302.53,2.35,2.54,2.35,2.54,-2.51,-2.53,-2.37,-0.16,-0.16,-0.19
305.55,2.31,2.50,2.31,2.51,-2.50,-2.53,-2.36,-0.19,-0.19,-0.19
308.61,2.27,2.48,2.27,2.47,-2.50,-2.52,-2.34,-0.22,-0.22,-0.20
311.69,2.24,2.46,2.24,2.46,-2.49,-2.51,-2.32,-0.25,-0.25,-0.22
314.81,2.20,2.46,2.20,2.47,-2.47,-2.50,-2.30,-0.27,-0.27,-0.26
317.96,2.16,2.48,2.16,2.47,-2.46,-2.48,-2.29,-0.30,-0.30,-0.32
321.14,2.13,2.48,2.13,2.47,-2.46,-2.47,-2.27,-0.33,-0.33,-0.35
324.35,2.09,2.45,2.09,2.46,-2.45,-2.46,-2.26,-0.36,-0.36,-0.36
327.59,2.06,2.44,2.06,2.45,-2.45,-2.45,-2.25,-0.39,-0.39,-0.38
330.87,2.02,2.44,2.02,2.44,-2.45,-2.44,-2.24,-0.43,-0.43,-0.42
334.18,1.99,2.45,1.99,2.45,-2.45,-2.43,-2.23,-0.46,-0.46,-0.46
337.52,1.95,2.45,1.95,2.45,-2.44,-2.43,-2.22,-0.49,-0.49,-0.49
340.90,1.92,2.44,1.92,2.44,-2.44,-2.42,-2.21,-0.52,-0.52,-0.52
344.30,1.89,2.43,1.89,2.44,-2.43,-2.42,-2.21,-0.55,-0.55,-0.55
347.75,1.85,2.43,1.85,2.43,-2.43,-2.42,-2.21,-0.58,-0.58,-0.58
351.23,1.82,2.43,1.82,2.43,-2.43,-2.42,-2.21,-0.61,-0.61,-0.61
354.74,1.79,2.42,1.79,2.43,-2.43,-2.42,-2.21,-0.64,-0.64,-0.64
358.28,1.75,2.42,1.75,2.42,-2.42,-2.42,-2.21,-0.67,-0.67,-0.67
361.87,1.72,2.41,1.72,2.42,-2.42,-2.42,-2.22,-0.70,-0.70,-0.69
365.49,1.69,2.40,1.69,2.42,-2.41,-2.42,-2.22,-0.72,-0.72,-0.72
369.14,1.66,2.43,1.66,2.42,-2.41,-2.42,-2.23,-0.75,-0.75,-0.77
372.83,1.63,2.41,1.63,2.41,-2.40,-2.42,-2.24,-0.78,-0.78,-0.79
376.56,1.59,2.39,1.59,2.40,-2.40,-2.41,-2.25,-0.80,-0.80,-0.79
380.33,1.56,2.38,1.56,2.38,-2.39,-2.41,-2.27,-0.83,-0.83,-0.81
384.13,1.53,2.38,1.53,2.38,-2.38,-2.41,-2.28,-0.85,-0.85,-0.85
387.97,1.50,2.38,1.50,2.38,-2.38,-2.40,-2.30,-0.88,-0.88,-0.88
391.85,1.47,2.37,1.47,2.37,-2.37,-2.39,-2.31,-0.90,-0.90,-0.90
395.77,1.44,2.36,1.44,2.37,-2.36,-2.39,-2.33,-0.93,-0.93,-0.93
399.73,1.41,2.36,1.41,2.35,-2.36,-2.38,-2.35,-0.95,-0.95,-0.95
403.72,1.38,2.34,1.38,2.35,-2.35,-2.37,-2.37,-0.98,-0.98,-0.97
407.76,1.35,2.34,1.35,2.35,-2.35,-2.36,-2.39,-1.00,-1.00,-0.99
411.84,1.32,2.35,1.32,2.35,-2.34,-2.35,-2.41,-1.02,-1.02,-1.03
415.96,1.29,2.35,1.29,2.34,-2.34,-2.34,-2.43,-1.05,-1.05,-1.07
420.12,1.25,2.34,1.25,2.33,-2.33,-2.34,-2.46,-1.08,-1.08,-1.08
424.32,1.22,2.30,1.22,2.32,-2.33,-2.33,-2.48,-1.10,-1.10,-1.08
428.56,1.19,2.31,1.19,2.31,-2.32,-2.32,-2.50,-1.13,-1.13,-1.12
432.85,1.16,2.32,1.16,2.31,-2.32,-2.31,-2.52,-1.15,-1.15,-1.16
437.18,1.13,2.32,1.13,2.31,-2.31,-2.30,-2.54,-1.18,-1.18,-1.19
441.55,1.10,2.30,1.10,2.31,-2.30,-2.29,-2.56,-1.20,-1.20,-1.20
445.96,1.07,2.29,1.07,2.30,-2.30,-2.28,-2.58,-1.22,-1.22,-1.22
450.42,1.04,2.30,1.04,2.29,-2.29,-2.27,-2.60,-1.25,-1.25,-1.26
454.93,1.01,2.28,1.01,2.28,-2.28,-2.26,-2.62,-1.27,-1.27,-1.27
459.48,0.98,2.27,0.98,2.28,-2.27,-2.25,-2.63,-1.29,-1.29,-1.28
464.07,0.95,2.26,0.95,2.26,-2.26,-2.24,-2.64,-1.31,-1.31,-1.31
468.71,0.92,2.26,0.92,2.24,-2.25,-2.23,-2.65,-1.32,-1.32,-1.33
473.40,0.89,2.21,0.89,2.23,-2.24,-2.23,-2.66,-1.34,-1.34,-1.32
478.13,0.86,2.22,0.86,2.22,-2.23,-2.22,-2.66,-1.36,-1.36,-1.35
482.91,0.83,2.23,0.83,2.22,-2.22,-2.21,-2.66,-1.38,-1.38,-1.40
487.74,0.80,2.22,0.80,2.22,-2.21,-2.20,-2.66,-1.41,-1.41,-1.41
492.62,0.77,2.20,0.77,2.21,-2.20,-2.19,-2.66,-1.43,-1.43,-1.42
497.55,0.75,2.19,0.75,2.20,-2.20,-2.18,-2.65,-1.45,-1.45,-1.45
502.52,0.72,2.19,0.72,2.19,-2.19,-2.18,-2.64,-1.47,-1.47,-1.48
507.55,0.69,2.19,0.69,2.18,-2.18,-2.17,-2.62,-1.49,-1.49,-1.50
512.62,0.66,2.16,0.66,2.17,-2.17,-2.16,-2.61,-1.51,-1.51,-1.50
