frequency,raw,error,smoothed,error_smoothed,equalization,parametric_eq,fixed_band_eq,equalized_raw,equalized_smoothed,target
20.00,9.62,2.47,9.62,2.47,-2.47,-2.15,-1.10,7.15,7.15,7.15
20.20,9.65,2.50,9.65,2.50,-2.50,-2.28,-1.14,7.15,7.15,7.15
20.40,9.68,2.53,9.68,2.53,-2.53,-2.40,-1.17,7.15,7.15,7.15
20.61,9.71,2.56,9.71,2.56,-2.56,-2.53,-1.21,7.15,7.15,7.15
20.81,9.74,2.59,9.74,2.59,-2.59,-2.67,-1.24,7.15,7.15,7.15
21.02,9.77,2.62,9.77,2.62,-2.62,-2.78,-1.28,7.15,7.15,7.15
21.23,9.80,2.65,9.80,2.65,-2.65,-2.89,-1.32,7.15,7.15,7.15
21.44,9.83,2.68,9.83,2.68,-2.68,-2.95,-1.36,7.15,7.15,7.15
21.66,9.86,2.71,9.86,2.71,-2.71,-3.01,-1.40,7.15,7.15,7.15
21.87,9.89,2.74,9.89,2.74,-2.75,-3.00,-1.44,7.14,7.14,7.15
22.09,9.92,2.77,9.92,2.77,-2.78,-3.00,-1.48,7.14,7.14,7.15
22.31,9.95,2.80,9.95,2.80,-2.81,-2.94,-1.53,7.14,7.14,7.15
22.54,9.98,2.83,9.98,2.83,-2.84,-2.89,-1.57,7.14,7.14,7.15
22.76,10.00,2.86,10.00,2.86,-2.85,-2.83,-1.62,7.15,7.15,7.15
22.99,10.03,2.88,10.03,2.88,-2.85,-2.76,-1.66,7.17,7.17,7.15
23.22,10.05,2.90,10.05,2.88,-2.85,-2.70,-1.71,7.21,7.21,7.16
23.45,10.08,2.84,10.08,2.85,-2.83,-2.64,-1.76,7.25,7.25,7.23
23.69,10.10,2.79,10.10,2.80,-2.80,-2.60,-1.81,7.30,7.30,7.31
23.92,10.12,2.74,10.12,2.74,-2.76,-2.56,-1.86,7.36,7.36,7.38
24.16,10.14,2.70,10.14,2.70,-2.71,-2.53,-1.92,7.43,7.43,7.44
24.40,10.17,2.65,10.17,2.65,-2.66,-2.50,-1.97,7.51,7.51,7.52
24.65,10.19,2.60,10.19,2.61,-2.61,-2.49,-2.02,7.58,7.58,7.59
24.89,10.21,2.57,10.21,2.57,-2.56,-2.48,-2.08,7.66,7.66,7.65
25.14,10.24,2.53,10.24,2.52,-2.51,-2.47,-2.13,7.73,7.73,7.71
25.39,10.26,2.48,10.26,2.47,-2.47,-2.47,-2.19,7.79,7.79,7.78
25.65,10.28,2.42,10.28,2.42,-2.43,-2.47,-2.24,7.85,7.85,7.86
25.91,10.30,2.38,10.30,2.39,-2.40,-2.47,-2.30,7.91,7.91,7.93
26.16,10.32,2.37,10.32,2.37,-2.37,-2.48,-2.35,7.95,7.95,7.95
26.43,10.34,2.38,10.34,2.35,-2.36,-2.49,-2.41,7.97,7.97,7.96
26.69,10.35,2.33,10.35,2.36,-2.37,-2.49,-2.46,7.99,7.99,8.02
26.96,10.37,2.36,10.37,2.37,-2.39,-2.50,-2.51,7.98,7.98,8.01
27.23,10.38,2.43,10.38,2.40,-2.42,-2.51,-2.56,7.96,7.96,7.95
27.50,10.39,2.44,10.39,2.45,-2.47,-2.53,-2.61,7.92,7.92,7.95
27.77,10.40,2.51,10.40,2.51,-2.52,-2.54,-2.66,7.88,7.88,7.89
28.05,10.41,2.57,10.41,2.58,-2.57,-2.55,-2.71,7.84,7.84,7.84
28.33,10.42,2.66,10.42,2.64,-2.62,-2.56,-2.75,7.80,7.80,7.77
28.62,10.43,2.68,10.43,2.68,-2.66,-2.56,-2.79,7.77,7.77,7.75
28.90,10.45,2.70,10.45,2.71,-2.69,-2.57,-2.83,7.76,7.76,7.75
29.19,10.46,2.71,10.46,2.72,-2.70,-2.58,-2.86,7.76,7.76,7.75
29.48,10.48,2.73,10.48,2.72,-2.70,-2.59,-2.89,7.78,7.78,7.75
29.78,10.49,2.70,10.49,2.69,-2.68,-2.59,-2.92,7.81,7.81,7.79
30.08,10.51,2.65,10.51,2.65,-2.65,-2.59,-2.94,7.86,7.86,7.86
30.38,10.53,2.60,10.53,2.60,-2.62,-2.60,-2.96,7.91,7.91,7.92
30.68,10.55,2.55,10.55,2.56,-2.58,-2.60,-2.98,7.97,7.97,7.99
30.99,10.57,2.52,10.57,2.54,-2.55,-2.59,-2.99,8.02,8.02,8.05
31.30,10.58,2.53,10.58,2.51,-2.52,-2.59,-2.99,8.07,8.07,8.05
31.61,10.60,2.50,10.60,2.49,-2.49,-2.59,-3.00,8.10,8.10,8.10
31.93,10.61,2.46,10.60,2.47,-2.48,-2.58,-2.99,8.13,8.13,8.15
32.24,10.61,2.46,10.61,2.46,-2.47,-2.57,-2.99,8.14,8.14,8.15
32.57,10.61,2.47,10.61,2.46,-2.47,-2.56,-2.97,8.14,8.14,8.15
32.89,10.62,2.47,10.62,2.47,-2.47,-2.55,-2.96,8.14,8.15,8.15
33.22,10.62,2.47,10.62,2.47,-2.48,-2.54,-2.94,8.14,8.14,8.15
33.55,10.63,2.48,10.63,2.48,-2.48,-2.53,-2.92,8.15,8.15,8.15
33.89,10.64,2.49,10.64,2.49,-2.48,-2.51,-2.89,8.15,8.15,8.15
34.23,10.64,2.50,10.64,2.50,-2.48,-2.50,-2.86,8.16,8.16,8.15
34.57,10.65,2.50,10.65,2.49,-2.47,-2.48,-2.83,8.18,8.18,8.15
34.92,10.66,2.47,10.66,2.47,-2.46,-2.46,-2.80,8.20,8.20,8.19
35.27,10.67,2.42,10.67,2.44,-2.44,-2.44,-2.76,8.23,8.23,8.25
35.62,10.67,2.42,10.67,2.40,-2.42,-2.42,-2.72,8.26,8.26,8.25
35.97,10.68,2.38,10.68,2.38,-2.39,-2.40,-2.68,8.29,8.29,8.30
36.33,10.69,2.34,10.69,2.36,-2.36,-2.38,-2.64,8.33,8.33,8.35
36.70,10.69,2.35,10.69,2.32,-2.32,-2.35,-2.60,8.37,8.37,8.35
37.06,10.70,2.30,10.70,2.30,-2.29,-2.33,-2.55,8.41,8.41,8.40
37.43,10.71,2.26,10.71,2.28,-2.26,-2.31,-2.51,8.45,8.45,8.45
37.81,10.71,2.27,10.71,2.24,-2.23,-2.28,-2.47,8.48,8.48,8.45
38.19,10.72,2.21,10.72,2.21,-2.22,-2.26,-2.42,8.50,8.50,8.51
38.57,10.72,2.18,10.72,2.19,-2.21,-2.23,-2.38,8.52,8.52,8.55
38.95,10.73,2.18,10.73,2.17,-2.21,-2.20,-2.34,8.52,8.52,8.55
39.34,10.73,2.18,10.73,2.20,-2.22,-2.18,-2.29,8.51,8.51,8.55
39.74,10.74,2.23,10.74,2.23,-2.25,-2.15,-2.25,8.49,8.49,8.51
40.14,10.74,2.29,10.74,2.27,-2.29,-2.13,-2.21,8.46,8.46,8.45
40.54,10.75,2.30,10.75,2.32,-2.33,-2.10,-2.17,8.42,8.42,8.45
40.94,10.75,2.35,10.75,2.36,-2.37,-2.08,-2.13,8.38,8.38,8.41
41.35,10.76,2.41,10.76,2.39,-2.39,-2.05,-2.09,8.37,8.37,8.35
41.76,10.76,2.41,10.76,2.43,-2.38,-2.03,-2.06,8.39,8.39,8.35
42.18,10.77,2.42,10.77,2.42,-2.33,-2.00,-2.02,8.43,8.43,8.35
42.60,10.77,2.38,10.77,2.35,-2.27,-1.98,-1.99,8.50,8.50,8.38
43.03,10.77,2.24,10.77,2.22,-2.18,-1.96,-1.96,8.58,8.58,8.53
43.46,10.76,2.03,10.76,2.06,-2.08,-1.93,-1.92,8.68,8.68,8.73
43.90,10.76,1.88,10.76,1.91,-1.98,-1.91,-1.89,8.78,8.78,8.88
44.33,10.75,1.81,10.75,1.80,-1.88,-1.89,-1.87,8.88,8.88,8.94
44.78,10.75,1.74,10.75,1.74,-1.78,-1.87,-1.84,8.97,8.97,9.01
45.23,10.74,1.70,10.75,1.71,-1.70,-1.85,-1.81,9.04,9.04,9.05
45.68,10.74,1.69,10.74,1.66,-1.64,-1.83,-1.79,9.10,9.10,9.05
46.13,10.74,1.62,10.74,1.63,-1.61,-1.81,-1.77,9.13,9.13,9.12
46.60,10.74,1.59,10.74,1.60,-1.59,-1.79,-1.75,9.14,9.14,9.15
47.06,10.73,1.58,10.73,1.57,-1.59,-1.78,-1.73,9.14,9.14,9.15
47.53,10.72,1.58,10.72,1.57,-1.60,-1.76,-1.71,9.13,9.13,9.15
48.01,10.72,1.57,10.72,1.58,-1.60,-1.74,-1.69,9.12,9.12,9.15
48.49,10.71,1.58,10.71,1.60,-1.60,-1.73,-1.68,9.11,9.11,9.14
48.97,10.71,1.64,10.71,1.63,-1.61,-1.72,-1.66,9.10,9.10,9.07
49.46,10.71,1.66,10.71,1.64,-1.60,-1.70,-1.65,9.11,9.11,9.05
49.96,10.71,1.64,10.71,1.63,-1.59,-1.69,-1.64,9.12,9.12,9.07
50.46,10.71,1.57,10.71,1.60,-1.56,-1.68,-1.63,9.15,9.15,9.14
50.96,10.71,1.56,10.71,1.55,-1.54,-1.67,-1.62,9.17,9.17,9.15
51.47,10.70,1.53,10.70,1.50,-1.51,-1.66,-1.61,9.20,9.19,9.17
51.99,10.70,1.45,10.69,1.47,-1.49,-1.65,-1.60,9.20,9.20,9.25
52.51,10.68,1.43,10.68,1.44,-1.49,-1.64,-1.59,9.19,9.19,9.25
53.03,10.67,1.45,10.67,1.45,-1.52,-1.63,-1.59,9.15,9.15,9.22
53.56,10.66,1.52,10.66,1.51,-1.57,-1.62,-1.58,9.09,9.09,9.14
54.10,10.65,1.58,10.65,1.59,-1.63,-1.62,-1.57,9.02,9.02,9.07
54.64,10.65,1.69,10.65,1.70,-1.70,-1.61,-1.57,8.95,8.95,8.96
55.18,10.65,1.82,10.65,1.80,-1.75,-1.60,-1.56,8.90,8.90,8.84
55.74,10.65,1.88,10.65,1.87,-1.79,-1.60,-1.55,8.86,8.86,8.77
56.29,10.64,1.89,10.64,1.89,-1.79,-1.59,-1.55,8.84,8.84,8.75
56.86,10.62,1.85,10.62,1.84,-1.77,-1.58,-1.54,8.85,8.85,8.77
57.42,10.60,1.76,10.60,1.75,-1.71,-1.58,-1.53,8.89,8.89,8.84
58.00,10.58,1.62,10.58,1.62,-1.64,-1.57,-1.52,8.94,8.94,8.96
58.58,10.57,1.50,10.57,1.51,-1.56,-1.56,-1.52,9.01,9.01,9.07
59.16,10.56,1.41,10.56,1.43,-1.49,-1.56,-1.51,9.06,9.06,9.14
59.76,10.54,1.40,10.54,1.38,-1.44,-1.55,-1.50,9.10,9.10,9.15
60.35,10.53,1.39,10.53,1.38,-1.42,-1.54,-1.49,9.12,9.12,9.15
60.96,10.52,1.38,10.52,1.40,-1.42,-1.53,-1.47,9.10,9.10,9.15
61.57,10.52,1.44,10.52,1.44,-1.46,-1.52,-1.46,9.06,9.06,9.08
62.18,10.51,1.50,10.51,1.50,-1.50,-1.51,-1.45,9.01,9.01,9.01
62.80,10.51,1.57,10.51,1.57,-1.55,-1.50,-1.43,8.96,8.96,8.94
63.43,10.50,1.63,10.50,1.62,-1.59,-1.49,-1.42,8.91,8.91,8.88
64.07,10.50,1.65,10.50,1.65,-1.61,-1.48,-1.40,8.89,8.89,8.85
64.71,10.49,1.64,10.49,1.65,-1.61,-1.46,-1.38,8.88,8.88,8.85
65.35,10.47,1.62,10.47,1.61,-1.58,-1.45,-1.36,8.90,8.90,8.85
66.01,10.45,1.55,10.45,1.55,-1.52,-1.43,-1.34,8.93,8.93,8.90
66.67,10.43,1.46,10.43,1.47,-1.45,-1.41,-1.32,8.98,8.98,8.97
67.33,10.41,1.36,10.41,1.37,-1.37,-1.40,-1.29,9.03,9.03,9.04
68.01,10.38,1.27,10.38,1.27,-1.29,-1.38,-1.27,9.09,9.09,9.11
68.69,10.37,1.19,10.37,1.19,-1.22,-1.36,-1.25,9.15,9.15,9.18
69.37,10.36,1.11,10.36,1.13,-1.16,-1.33,-1.22,9.19,9.19,9.25
70.07,10.35,1.10,10.35,1.10,-1.12,-1.31,-1.19,9.23,9.23,9.25
70.77,10.35,1.10,10.35,1.09,-1.11,-1.29,-1.17,9.24,9.24,9.25
71.48,10.35,1.10,10.35,1.09,-1.11,-1.26,-1.14,9.24,9.24,9.25
72.19,10.34,1.09,10.34,1.10,-1.12,-1.23,-1.11,9.22,9.22,9.25
72.91,10.33,1.12,10.33,1.13,-1.13,-1.21,-1.09,9.20,9.19,9.21
73.64,10.30,1.17,10.30,1.17,-1.14,-1.18,-1.06,9.16,9.16,9.14
74.38,10.27,1.20,10.27,1.19,-1.14,-1.15,-1.03,9.13,9.13,9.07
75.12,10.23,1.18,10.23,1.18,-1.13,-1.12,-1.00,9.11,9.10,9.05
75.87,10.18,1.13,10.18,1.14,-1.10,-1.09,-0.97,9.08,9.08,9.05
76.63,10.13,1.08,10.13,1.08,-1.08,-1.06,-0.95,9.05,9.05,9.05
77.40,10.08,1.03,10.08,1.03,-1.06,-1.03,-0.92,9.02,9.02,9.05
78.17,10.04,0.99,10.04,0.99,-1.05,-1.00,-0.89,9.00,9.00,9.05
78.95,10.00,0.95,10.00,0.97,-1.03,-0.97,-0.87,8.97,8.97,9.05
79.74,9.97,0.98,9.97,0.99,-1.02,-0.94,-0.84,8.95,8.95,8.99
80.54,9.95,1.03,9.95,1.03,-1.02,-0.91,-0.81,8.93,8.93,8.92
81.35,9.93,1.08,9.93,1.06,-1.01,-0.87,-0.79,8.91,8.92,8.85
82.16,9.91,1.06,9.91,1.05,-1.01,-0.84,-0.76,8.91,8.91,8.85
82.98,9.90,1.02,9.90,1.02,-0.99,-0.81,-0.73,8.91,8.91,8.88
83.81,9.89,0.94,9.89,0.97,-0.96,-0.78,-0.71,8.93,8.93,8.95
84.65,9.87,0.92,9.87,0.91,-0.91,-0.75,-0.69,8.96,8.96,8.95
85.50,9.85,0.86,9.85,0.85,-0.85,-0.72,-0.66,9.00,9.00,8.99
86.35,9.82,0.77,9.82,0.79,-0.80,-0.69,-0.64,9.02,9.02,9.05
87.22,9.78,0.73,9.77,0.72,-0.74,-0.65,-0.62,9.03,9.03,9.05
88.09,9.72,0.68,9.72,0.66,-0.70,-0.62,-0.59,9.03,9.03,9.05
88.97,9.67,0.62,9.67,0.62,-0.65,-0.59,-0.57,9.02,9.02,9.05
89.86,9.62,0.57,9.63,0.60,-0.61,-0.56,-0.55,9.01,9.02,9.05
90.76,9.59,0.60,9.60,0.59,-0.57,-0.53,-0.53,9.02,9.02,8.99
91.66,9.58,0.60,9.58,0.57,-0.54,-0.51,-0.51,9.04,9.04,8.97
92.58,9.57,0.53,9.57,0.53,-0.50,-0.48,-0.49,9.06,9.06,9.04
93.51,9.56,0.44,9.55,0.45,-0.46,-0.45,-0.47,9.09,9.09,9.11
94.44,9.53,0.38,9.53,0.40,-0.41,-0.42,-0.45,9.12,9.12,9.15
95.39,9.49,0.34,9.49,0.37,-0.36,-0.39,-0.43,9.14,9.13,9.15
96.34,9.44,0.36,9.44,0.32,-0.30,-0.36,-0.41,9.14,9.14,9.08
97.30,9.37,0.28,9.37,0.26,-0.24,-0.34,-0.39,9.13,9.13,9.08
98.28,9.30,0.15,9.30,0.18,-0.19,-0.31,-0.37,9.11,9.11,9.15
99.26,9.25,0.10,9.25,0.11,-0.15,-0.28,-0.36,9.10,9.10,9.15
100.25,9.22,0.07,9.22,0.07,-0.11,-0.26,-0.34,9.11,9.11,9.15
101.25,9.21,0.06,9.21,0.06,-0.08,-0.23,-0.32,9.13,9.13,9.15
102.27,9.20,0.06,9.20,0.05,-0.04,-0.21,-0.31,9.16,9.16,9.15
103.29,9.19,0.05,9.19,0.05,-0.01,-0.18,-0.29,9.18,9.18,9.15
104.32,9.18,0.03,9.18,0.03,0.01,-0.16,-0.27,9.19,9.19,9.15
105.37,9.15,0.01,9.16,-0.01,0.03,-0.13,-0.25,9.19,9.19,9.15
106.42,9.13,-0.07,9.12,-0.07,0.05,-0.11,-0.24,9.18,9.18,9.19
107.48,9.09,-0.13,9.09,-0.10,0.08,-0.08,-0.22,9.17,9.16,9.22
108.56,9.05,-0.12,9.05,-0.11,0.09,-0.06,-0.21,9.14,9.14,9.17
109.64,9.00,-0.08,9.00,-0.11,0.10,-0.03,-0.19,9.10,9.10,9.08
110.74,8.96,-0.09,8.96,-0.10,0.09,-0.01,-0.17,9.05,9.05,9.05
111.85,8.91,-0.14,8.91,-0.10,0.08,0.01,-0.16,9.00,9.00,9.05
112.97,8.87,-0.08,8.87,-0.09,0.07,0.04,-0.14,8.94,8.94,8.95
114.10,8.83,-0.06,8.83,-0.06,0.07,0.06,-0.12,8.90,8.90,8.89
115.24,8.80,-0.04,8.79,-0.03,0.08,0.09,-0.10,8.87,8.87,8.84
116.39,8.76,-0.02,8.76,-0.05,0.10,0.11,-0.09,8.86,8.86,8.78
117.55,8.71,-0.09,8.71,-0.09,0.14,0.13,-0.07,8.85,8.85,8.80
118.73,8.67,-0.18,8.67,-0.16,0.18,0.16,-0.05,8.85,8.85,8.85
119.92,8.62,-0.23,8.62,-0.25,0.22,0.18,-0.03,8.84,8.84,8.85
121.12,8.58,-0.33,8.58,-0.33,0.26,0.20,-0.01,8.84,8.84,8.90
122.33,8.53,-0.40,8.53,-0.36,0.31,0.23,0.01,8.84,8.84,8.93
123.55,8.49,-0.38,8.49,-0.37,0.35,0.25,0.03,8.83,8.83,8.87
124.79,8.45,-0.32,8.45,-0.36,0.38,0.27,0.05,8.82,8.82,8.77
126.03,8.40,-0.34,8.40,-0.35,0.40,0.30,0.07,8.80,8.80,8.75
127.29,8.37,-0.38,8.37,-0.37,0.41,0.32,0.09,8.78,8.78,8.75
128.57,8.33,-0.41,8.33,-0.41,0.42,0.34,0.11,8.75,8.75,8.75
129.85,8.31,-0.44,8.31,-0.45,0.42,0.37,0.14,8.73,8.73,8.75
131.15,8.28,-0.47,8.28,-0.47,0.43,0.39,0.16,8.71,8.71,8.75
132.46,8.27,-0.48,8.27,-0.47,0.43,0.41,0.19,8.70,8.70,8.75
133.79,8.25,-0.46,8.25,-0.45,0.44,0.44,0.21,8.70,8.70,8.71
135.12,8.24,-0.41,8.24,-0.43,0.45,0.46,0.24,8.69,8.69,8.65
136.48,8.23,-0.42,8.23,-0.42,0.46,0.49,0.26,8.69,8.69,8.65
137.84,8.22,-0.43,8.22,-0.43,0.46,0.51,0.29,8.68,8.68,8.65
139.22,8.20,-0.45,8.19,-0.46,0.46,0.54,0.32,8.66,8.66,8.65
140.61,8.17,-0.48,8.17,-0.49,0.47,0.56,0.34,8.64,8.64,8.65
142.02,8.14,-0.51,8.14,-0.51,0.48,0.59,0.37,8.61,8.61,8.65
143.44,8.10,-0.52,8.10,-0.51,0.48,0.61,0.40,8.58,8.58,8.63
144.87,8.07,-0.49,8.07,-0.49,0.48,0.64,0.43,8.54,8.54,8.56
146.32,8.03,-0.46,8.03,-0.48,0.47,0.67,0.46,8.49,8.49,8.48
147.78,7.99,-0.46,7.99,-0.46,0.45,0.69,0.50,8.44,8.44,8.45
149.26,7.95,-0.48,7.95,-0.46,0.45,0.72,0.53,8.40,8.40,8.44
150.75,7.91,-0.45,7.91,-0.45,0.45,0.75,0.56,8.37,8.37,8.36
152.26,7.87,-0.44,7.87,-0.44,0.48,0.78,0.59,8.35,8.35,8.31
153.78,7.82,-0.43,7.82,-0.46,0.54,0.80,0.63,8.36,8.36,8.26
155.32,7.77,-0.54,7.77,-0.54,0.60,0.83,0.66,8.37,8.37,8.31
156.88,7.72,-0.67,7.72,-0.67,0.68,0.86,0.70,8.40,8.40,8.39
158.44,7.66,-0.81,7.66,-0.81,0.77,0.89,0.74,8.43,8.43,8.47
160.03,7.61,-0.94,7.61,-0.92,0.86,0.92,0.77,8.48,8.48,8.55
161.63,7.56,-0.99,7.56,-1.00,0.96,0.95,0.81,8.51,8.51,8.55
163.24,7.50,-1.05,7.50,-1.05,1.04,0.99,0.85,8.54,8.54,8.55
164.88,7.45,-1.10,7.45,-1.10,1.10,1.02,0.89,8.55,8.55,8.55
166.53,7.39,-1.16,7.39,-1.17,1.15,1.05,0.93,8.54,8.54,8.55
168.19,7.34,-1.21,7.34,-1.21,1.19,1.08,0.98,8.53,8.53,8.55
169.87,7.29,-1.26,7.29,-1.24,1.23,1.12,1.02,8.52,8.52,8.55
171.57,7.24,-1.23,7.24,-1.24,1.28,1.15,1.06,8.51,8.51,8.47
173.29,7.19,-1.26,7.19,-1.27,1.32,1.19,1.11,8.51,8.51,8.45
175.02,7.14,-1.31,7.14,-1.33,1.37,1.23,1.15,8.51,8.51,8.45
176.77,7.10,-1.44,7.10,-1.42,1.41,1.26,1.20,8.51,8.51,8.54
178.54,7.05,-1.50,7.05,-1.49,1.45,1.30,1.25,8.50,8.50,8.55
180.32,7.00,-1.54,7.00,-1.53,1.49,1.34,1.29,8.49,8.49,8.54
182.13,6.94,-1.53,6.94,-1.55,1.53,1.38,1.34,8.48,8.48,8.48
183.95,6.89,-1.56,6.89,-1.57,1.56,1.42,1.39,8.45,8.45,8.45
185.79,6.83,-1.59,6.83,-1.58,1.59,1.46,1.44,8.41,8.41,8.42
187.65,6.77,-1.59,6.77,-1.59,1.60,1.50,1.50,8.37,8.37,8.36
189.52,6.71,-1.59,6.71,-1.60,1.60,1.55,1.55,8.31,8.31,8.30
191.42,6.65,-1.60,6.65,-1.62,1.61,1.59,1.60,8.26,8.26,8.25
193.33,6.59,-1.66,6.59,-1.64,1.62,1.63,1.66,8.21,8.21,8.25
195.27,6.53,-1.66,6.53,-1.64,1.65,1.68,1.71,8.18,8.18,8.19
197.22,6.47,-1.64,6.47,-1.65,1.69,1.72,1.77,8.15,8.15,8.11
199.19,6.40,-1.65,6.40,-1.69,1.74,1.77,1.82,8.14,8.14,8.06
201.18,6.34,-1.78,6.34,-1.76,1.80,1.81,1.88,8.14,8.14,8.12
203.19,6.28,-1.87,6.28,-1.85,1.85,1.86,1.94,8.13,8.13,8.15
205.23,6.22,-1.93,6.22,-1.93,1.90,1.91,1.99,8.12,8.12,8.15
207.28,6.16,-1.99,6.16,-2.00,1.94,1.95,2.05,8.10,8.10,8.15
209.35,6.10,-2.05,6.10,-2.04,1.98,2.00,2.11,8.08,8.08,8.15
211.44,6.04,-2.08,6.04,-2.05,2.01,2.04,2.16,8.04,8.04,8.12
213.56,5.97,-2.01,5.97,-2.02,2.03,2.09,2.22,8.00,8.00,7.98
215.69,5.91,-1.99,5.91,-2.00,2.05,2.13,2.27,7.96,7.96,7.89
217.85,5.84,-2.01,5.84,-2.01,2.07,2.17,2.33,7.91,7.91,7.85
220.03,5.78,-2.07,5.78,-2.07,2.10,2.21,2.38,7.88,7.88,7.85
222.23,5.71,-2.14,5.71,-2.13,2.15,2.25,2.43,7.86,7.86,7.85
224.45,5.65,-2.20,5.65,-2.20,2.20,2.29,2.48,7.85,7.85,7.85
226.70,5.58,-2.26,5.58,-2.26,2.25,2.33,2.53,7.84,7.84,7.85
228.96,5.52,-2.33,5.52,-2.34,2.31,2.36,2.57,7.83,7.83,7.85
231.25,5.45,-2.40,5.45,-2.40,2.36,2.40,2.61,7.82,7.82,7.85
233.57,5.39,-2.46,5.39,-2.44,2.41,2.43,2.65,7.80,7.80,7.85
235.90,5.32,-2.47,5.32,-2.46,2.46,2.46,2.69,7.77,7.78,7.79
238.26,5.25,-2.46,5.25,-2.47,2.50,2.48,2.72,7.75,7.75,7.71
240.64,5.18,-2.47,5.18,-2.49,2.54,2.51,2.75,7.71,7.71,7.65
243.05,5.11,-2.54,5.11,-2.54,2.57,2.53,2.78,7.67,7.68,7.65
245.48,5.04,-2.61,5.04,-2.60,2.59,2.55,2.80,7.63,7.63,7.65
247.93,4.98,-2.65,4.98,-2.64,2.60,2.57,2.83,7.58,7.58,7.63
250.41,4.91,-2.65,4.91,-2.66,2.62,2.58,2.84,7.53,7.53,7.56
252.92,4.85,-2.65,4.85,-2.65,2.62,2.60,2.86,7.48,7.48,7.50
255.45,4.80,-2.63,4.80,-2.62,2.62,2.61,2.86,7.42,7.42,7.43
258.00,4.75,-2.60,4.75,-2.60,2.61,2.62,2.87,7.36,7.36,7.35
260.58,4.71,-2.57,4.71,-2.58,2.60,2.63,2.87,7.31,7.31,7.28
263.19,4.68,-2.57,4.68,-2.58,2.59,2.64,2.87,7.27,7.27,7.25
265.82,4.65,-2.60,4.65,-2.58,2.59,2.65,2.87,7.23,7.23,7.25
268.48,4.61,-2.58,4.61,-2.58,2.60,2.66,2.87,7.21,7.21,7.19
271.16,4.57,-2.58,4.57,-2.60,2.63,2.67,2.86,7.19,7.19,7.15
273.87,4.51,-2.63,4.52,-2.63,2.66,2.68,2.85,7.18,7.18,7.15
276.61,4.46,-2.69,4.46,-2.69,2.70,2.68,2.83,7.16,7.16,7.15
279.38,4.40,-2.75,4.40,-2.75,2.73,2.69,2.82,7.13,7.13,7.15
282.17,4.34,-2.81,4.34,-2.79,2.75,2.70,2.80,7.09,7.09,7.14
284.99,4.28,-2.80,4.28,-2.80,2.77,2.71,2.78,7.04,7.04,7.07
287.84,4.22,-2.79,4.22,-2.80,2.77,2.71,2.77,6.98,6.98,7.00
290.72,4.15,-2.78,4.15,-2.78,2.76,2.72,2.75,6.91,6.91,6.93
293.63,4.09,-2.77,4.09,-2.74,2.74,2.73,2.73,6.83,6.83,6.86
296.57,4.03,-2.69,4.03,-2.70,2.71,2.74,2.71,6.74,6.74,6.72
299.53,3.96,-2.66,3.96,-2.67,2.69,2.74,2.69,6.65,6.65,6.62
302.53,3.89,-2.67,3.89,-2.66,2.68,2.75,2.67,6.57,6.57,6.56
305.55,3.82,-2.67,3.82,-2.66,2.68,2.76,2.65,6.49,6.49,6.48
308.61,3.74,-2.68,3.74,-2.68,2.69,2.77,2.63,6.43,6.43,6.42
311.69,3.67,-2.69,3.67,-2.70,2.73,2.78,2.62,6.40,6.40,6.35
314.81,3.60,-2.75,3.60,-2.75,2.78,2.79,2.60,6.38,6.38,6.35
317.96,3.53,-2.82,3.53,-2.81,2.84,2.80,2.59,6.37,6.37,6.35
321.14,3.46,-2.88,3.46,-2.89,2.89,2.81,2.57,6.35,6.35,6.35
324.35,3.40,-2.95,3.40,-2.96,2.92,2.82,2.56,6.32,6.32,6.35
327.59,3.33,-3.02,3.33,-3.01,2.94,2.83,2.55,6.27,6.27,6.35
330.87,3.27,-3.05,3.27,-3.02,2.94,2.83,2.54,6.21,6.21,6.31
334.18,3.20,-2.98,3.20,-2.99,2.94,2.84,2.54,6.14,6.14,6.18
337.52,3.13,-2.91,3.13,-2.91,2.94,2.85,2.53,6.07,6.07,6.05
340.90,3.07,-2.85,3.07,-2.84,2.92,2.86,2.53,5.99,5.99,5.91
344.30,3.00,-2.78,3.00,-2.81,2.90,2.87,2.53,5.89,5.89,5.78
347.75,2.93,-2.82,2.93,-2.84,2.87,2.88,2.53,5.80,5.80,5.75
351.23,2.85,-2.89,2.85,-2.89,2.85,2.89,2.53,5.70,5.70,5.75
354.74,2.78,-2.96,2.78,-2.92,2.84,2.89,2.54,5.62,5.62,5.75
358.28,2.72,-2.90,2.72,-2.89,2.84,2.90,2.55,5.56,5.56,5.62
361.87,2.65,-2.82,2.65,-2.84,2.86,2.91,2.55,5.51,5.51,5.47
365.49,2.58,-2.77,2.58,-2.80,2.88,2.91,2.57,5.46,5.46,5.35
369.14,2.52,-2.83,2.52,-2.83,2.89,2.92,2.58,5.41,5.41,5.35
372.83,2.45,-2.90,2.45,-2.89,2.90,2.93,2.59,5.35,5.35,5.35
376.56,2.39,-2.95,2.39,-2.94,2.90,2.93,2.61,5.29,5.29,5.34
380.33,2.32,-2.96,2.32,-2.96,2.91,2.93,2.63,5.22,5.22,5.28
384.13,2.25,-2.96,2.25,-2.97,2.92,2.94,2.65,5.17,5.17,5.21
387.97,2.18,-2.95,2.18,-2.95,2.93,2.94,2.67,5.11,5.11,5.13
391.85,2.11,-2.95,2.11,-2.93,2.94,2.94,2.70,5.06,5.06,5.07
395.77,2.04,-2.89,2.04,-2.90,2.95,2.94,2.72,5.00,5.00,4.94
399.73,1.98,-2.87,1.98,-2.91,2.96,2.94,2.75,4.94,4.94,4.85
403.72,1.91,-2.94,1.91,-2.94,2.97,2.94,2.77,4.88,4.88,4.85
407.76,1.84,-3.01,1.84,-2.99,2.99,2.93,2.80,4.83,4.83,4.85
411.84,1.77,-3.05,1.77,-3.04,3.00,2.93,2.83,4.77,4.77,4.82
415.96,1.71,-3.04,1.71,-3.05,3.01,2.93,2.86,4.72,4.72,4.75
420.12,1.64,-3.04,1.64,-3.05,3.02,2.92,2.89,4.66,4.66,4.68
424.32,1.57,-3.04,1.57,-3.03,3.02,2.91,2.92,4.60,4.60,4.61
428.56,1.51,-3.02,1.51,-3.00,3.01,2.91,2.94,4.52,4.52,4.53
432.85,1.44,-2.94,1.44,-2.97,2.99,2.90,2.97,4.43,4.43,4.39
437.18,1.38,-2.93,1.38,-2.94,2.95,2.89,3.00,4.33,4.33,4.30
441.55,1.31,-2.93,1.31,-2.92,2.91,2.88,3.02,4.23,4.23,4.24
445.96,1.25,-2.92,1.25,-2.91,2.87,2.86,3.05,4.12,4.12,4.17
450.42,1.18,-2.87,1.18,-2.86,2.84,2.85,3.07,4.02,4.02,4.05
454.93,1.12,-2.80,1.12,-2.80,2.81,2.84,3.08,3.92,3.92,3.92
459.48,1.05,-2.71,1.05,-2.74,2.78,2.82,3.10,3.83,3.83,3.77
464.07,0.99,-2.70,0.99,-2.71,2.75,2.80,3.11,3.74,3.74,3.69
468.71,0.92,-2.70,0.92,-2.70,2.72,2.79,3.12,3.64,3.64,3.62
473.40,0.86,-2.70,0.86,-2.71,2.68,2.77,3.13,3.54,3.54,3.56
478.13,0.79,-2.70,0.79,-2.69,2.65,2.75,3.13,3.44,3.44,3.49
482.91,0.73,-2.67,0.73,-2.65,2.62,2.72,3.12,3.34,3.34,3.39
487.74,0.66,-2.59,0.66,-2.59,2.59,2.70,3.11,3.25,3.25,3.26
492.62,0.60,-2.52,0.60,-2.53,2.56,2.68,3.10,3.16,3.16,3.12
497.55,0.53,-2.48,0.53,-2.49,2.53,2.65,3.08,3.06,3.06,3.01
502.52,0.47,-2.47,0.47,-2.46,2.49,2.63,3.06,2.96,2.96,2.94
507.55,0.41,-2.46,0.41,-2.47,2.46,2.60,3.03,2.87,2.87,2.87
512.62,0.35,-2.46,0.35,-2.45,2.42,2.57,3.00,2.77,2.77,2.80
517.75,0.29,-2.44,0.29,-2.42,2.40,2.55,2.96,2.68,2.68,2.73
522.93,0.22,-2.36,0.22,-2.38,2.37,2.52,2.92,2.60,2.60,2.58
528.16,0.16,-2.34,0.16,-2.35,2.35,2.49,2.88,2.51,2.51,2.50
533.44,0.10,-2.33,0.10,-2.32,2.33,2.45,2.82,2.43,2.43,2.43
538.77,0.04,-2.32,0.04,-2.29,2.31,2.42,2.77,2.35,2.35,2.36
