frequency,raw,error,smoothed,error_smoothed,equalization,parametric_eq,fixed_band_eq,equalized_raw,equalized_smoothed,target
20.00,8.97,2.17,8.97,2.17,-2.18,-2.10,-0.48,6.79,6.79,6.80
20.20,8.90,2.10,8.89,2.09,-2.09,-2.09,-0.50,6.81,6.80,6.80
20.40,8.83,2.02,8.82,2.02,-2.01,-2.08,-0.52,6.82,6.81,6.80
20.61,8.76,1.95,8.76,1.95,-1.94,-2.04,-0.53,6.82,6.82,6.81
20.81,8.70,1.89,8.70,1.89,-1.88,-2.00,-0.55,6.82,6.82,6.81
21.02,8.65,1.83,8.65,1.83,-1.83,-1.95,-0.57,6.81,6.81,6.81
21.23,8.60,1.79,8.61,1.79,-1.80,-1.90,-0.58,6.81,6.81,6.82
21.44,8.58,1.76,8.58,1.76,-1.77,-1.85,-0.60,6.81,6.81,6.82
21.66,8.57,1.74,8.57,1.74,-1.75,-1.80,-0.62,6.82,6.82,6.83
21.87,8.57,1.74,8.57,1.74,-1.75,-1.76,-0.64,6.82,6.82,6.83
22.09,8.58,1.75,8.58,1.75,-1.75,-1.72,-0.66,6.83,6.83,6.84
22.31,8.60,1.76,8.60,1.76,-1.77,-1.69,-0.68,6.83,6.83,6.84
22.54,8.63,1.79,8.63,1.79,-1.79,-1.66,-0.70,6.84,6.84,6.84
22.76,8.66,1.82,8.67,1.82,-1.82,-1.63,-0.73,6.85,6.85,6.85
22.99,8.70,1.85,8.70,1.85,-1.84,-1.60,-0.75,6.86,6.85,6.85
23.22,8.72,1.87,8.72,1.87,-1.86,-1.58,-0.77,6.86,6.86,6.85
23.45,8.74,1.89,8.74,1.89,-1.88,-1.56,-0.80,6.87,6.87,6.86
23.69,8.75,1.89,8.75,1.89,-1.88,-1.54,-0.82,6.87,6.87,6.86
23.92,8.74,1.88,8.74,1.88,-1.87,-1.52,-0.84,6.87,6.87,6.86
24.16,8.72,1.85,8.72,1.85,-1.84,-1.51,-0.87,6.87,6.87,6.86
24.40,8.68,1.81,8.68,1.81,-1.80,-1.49,-0.89,6.87,6.87,6.86
24.65,8.63,1.76,8.63,1.76,-1.76,-1.48,-0.92,6.87,6.87,6.86
24.89,8.57,1.70,8.57,1.70,-1.70,-1.46,-0.94,6.87,6.87,6.86
25.14,8.50,1.64,8.50,1.64,-1.64,-1.45,-0.97,6.86,6.86,6.86
25.39,8.43,1.57,8.43,1.57,-1.57,-1.43,-0.99,6.86,6.86,6.86
25.65,8.37,1.50,8.37,1.50,-1.51,-1.41,-1.02,6.86,6.86,6.86
25.91,8.30,1.44,8.30,1.44,-1.45,-1.40,-1.05,6.85,6.85,6.86
26.16,8.24,1.38,8.25,1.38,-1.39,-1.38,-1.07,6.85,6.85,6.86
26.43,8.19,1.33,8.19,1.33,-1.34,-1.37,-1.09,6.85,6.85,6.86
26.69,8.15,1.29,8.15,1.29,-1.30,-1.35,-1.12,6.85,6.85,6.86
26.96,8.11,1.25,8.11,1.25,-1.25,-1.34,-1.14,6.85,6.85,6.86
27.23,8.07,1.22,8.07,1.22,-1.21,-1.32,-1.16,6.86,6.86,6.85
27.50,8.03,1.18,8.03,1.18,-1.17,-1.30,-1.18,6.86,6.86,6.85
27.77,7.99,1.14,7.99,1.14,-1.13,-1.29,-1.20,6.86,6.86,6.85
28.05,7.95,1.10,7.95,1.10,-1.09,-1.27,-1.22,6.86,6.86,6.85
28.33,7.90,1.06,7.90,1.06,-1.05,-1.25,-1.24,6.85,6.85,6.84
28.62,7.85,1.01,7.85,1.01,-1.01,-1.23,-1.25,6.84,6.84,6.84
28.90,7.81,0.97,7.81,0.97,-0.98,-1.21,-1.27,6.83,6.83,6.84
29.19,7.78,0.94,7.78,0.94,-0.96,-1.19,-1.28,6.82,6.82,6.84
29.48,7.76,0.92,7.76,0.93,-0.95,-1.17,-1.29,6.81,6.81,6.83
29.78,7.75,0.92,7.75,0.92,-0.94,-1.15,-1.29,6.81,6.81,6.83
30.08,7.76,0.93,7.76,0.93,-0.95,-1.13,-1.30,6.81,6.81,6.83
30.38,7.78,0.95,7.78,0.95,-0.96,-1.11,-1.30,6.82,6.82,6.83
30.68,7.80,0.98,7.80,0.98,-0.97,-1.09,-1.30,6.83,6.83,6.82
30.99,7.82,1.00,7.82,1.00,-0.98,-1.07,-1.29,6.84,6.83,6.82
31.30,7.82,1.01,7.82,1.00,-0.99,-1.04,-1.29,6.84,6.84,6.82
31.61,7.82,1.00,7.81,1.00,-0.98,-1.02,-1.28,6.83,6.83,6.81
31.93,7.79,0.98,7.79,0.98,-0.97,-1.00,-1.26,6.83,6.83,6.81
32.24,7.76,0.95,7.76,0.95,-0.94,-0.97,-1.25,6.82,6.82,6.81
32.57,7.72,0.91,7.72,0.91,-0.91,-0.95,-1.23,6.81,6.81,6.81
32.89,7.67,0.87,7.67,0.87,-0.87,-0.92,-1.21,6.80,6.80,6.80
33.22,7.63,0.82,7.63,0.82,-0.83,-0.90,-1.19,6.79,6.79,6.80
33.55,7.58,0.78,7.58,0.78,-0.79,-0.87,-1.17,6.79,6.79,6.80
33.89,7.54,0.75,7.54,0.75,-0.75,-0.85,-1.14,6.79,6.79,6.80
34.23,7.51,0.72,7.51,0.72,-0.72,-0.82,-1.11,6.79,6.79,6.79
34.57,7.47,0.69,7.47,0.69,-0.68,-0.79,-1.08,6.79,6.79,6.79
34.92,7.44,0.66,7.44,0.66,-0.65,-0.77,-1.04,6.79,6.79,6.79
35.27,7.41,0.63,7.41,0.63,-0.63,-0.74,-1.01,6.78,6.78,6.78
35.62,7.38,0.60,7.38,0.60,-0.61,-0.71,-0.97,6.77,6.77,6.78
35.97,7.36,0.58,7.36,0.58,-0.59,-0.68,-0.94,6.77,6.77,6.77
36.33,7.34,0.57,7.34,0.57,-0.58,-0.65,-0.90,6.76,6.76,6.77
36.70,7.32,0.56,7.32,0.56,-0.57,-0.62,-0.86,6.75,6.75,6.76
37.06,7.31,0.56,7.31,0.56,-0.56,-0.60,-0.82,6.75,6.75,6.76
37.43,7.31,0.56,7.31,0.56,-0.56,-0.57,-0.77,6.75,6.75,6.75
37.81,7.30,0.56,7.30,0.56,-0.55,-0.54,-0.73,6.75,6.75,6.75
38.19,7.29,0.56,7.29,0.55,-0.54,-0.51,-0.69,6.75,6.75,6.74
38.57,7.28,0.55,7.28,0.54,-0.53,-0.48,-0.65,6.75,6.74,6.73
38.95,7.25,0.53,7.25,0.53,-0.52,-0.45,-0.60,6.73,6.73,6.72
39.34,7.22,0.50,7.22,0.50,-0.50,-0.42,-0.56,6.72,6.72,6.72
39.74,7.18,0.47,7.18,0.47,-0.48,-0.39,-0.51,6.70,6.70,6.71
40.14,7.14,0.44,7.14,0.44,-0.45,-0.36,-0.47,6.69,6.69,6.70
40.54,7.11,0.42,7.11,0.42,-0.43,-0.33,-0.42,6.68,6.68,6.69
40.94,7.08,0.40,7.08,0.40,-0.40,-0.30,-0.38,6.68,6.68,6.68
41.35,7.05,0.37,7.05,0.37,-0.37,-0.26,-0.33,6.67,6.67,6.67
41.76,7.02,0.35,7.01,0.35,-0.35,-0.23,-0.29,6.67,6.67,6.66
42.18,6.98,0.32,6.98,0.32,-0.32,-0.20,-0.24,6.66,6.66,6.66
42.60,6.93,0.29,6.93,0.29,-0.28,-0.17,-0.20,6.65,6.65,6.65
43.03,6.89,0.25,6.89,0.25,-0.25,-0.14,-0.15,6.64,6.64,6.64
43.46,6.84,0.21,6.84,0.21,-0.20,-0.11,-0.11,6.63,6.63,6.63
43.90,6.78,0.16,6.78,0.16,-0.16,-0.07,-0.06,6.62,6.62,6.62
44.33,6.72,0.11,6.72,0.11,-0.11,-0.04,-0.02,6.61,6.61,6.61
44.78,6.66,0.06,6.66,0.06,-0.06,-0.01,0.03,6.60,6.60,6.60
45.23,6.59,0.00,6.60,0.00,-0.01,0.02,0.07,6.59,6.59,6.59
45.68,6.54,-0.05,6.54,-0.04,0.04,0.05,0.12,6.58,6.58,6.58
46.13,6.48,-0.09,6.48,-0.09,0.09,0.09,0.16,6.57,6.57,6.57
46.60,6.43,-0.13,6.43,-0.13,0.13,0.12,0.21,6.56,6.56,6.57
47.06,6.38,-0.17,6.38,-0.17,0.17,0.15,0.25,6.56,6.56,6.56
47.53,6.34,-0.21,6.34,-0.21,0.21,0.18,0.29,6.55,6.55,6.55
48.01,6.30,-0.25,6.30,-0.24,0.24,0.22,0.34,6.54,6.54,6.54
48.49,6.26,-0.28,6.26,-0.28,0.27,0.25,0.38,6.53,6.53,6.53
48.97,6.22,-0.30,6.22,-0.30,0.30,0.28,0.43,6.52,6.52,6.52
49.46,6.18,-0.33,6.18,-0.33,0.33,0.32,0.47,6.52,6.52,6.52
49.96,6.14,-0.36,6.14,-0.36,0.36,0.35,0.51,6.51,6.51,6.51
50.46,6.10,-0.39,6.10,-0.39,0.40,0.38,0.56,6.50,6.50,6.50
50.96,6.06,-0.42,6.06,-0.42,0.43,0.41,0.60,6.49,6.49,6.49
51.47,6.02,-0.46,6.02,-0.46,0.46,0.45,0.64,6.48,6.48,6.47
51.99,5.97,-0.49,5.97,-0.49,0.49,0.48,0.69,6.46,6.46,6.46
52.51,5.93,-0.52,5.93,-0.52,0.52,0.51,0.73,6.45,6.45,6.45
53.03,5.88,-0.56,5.88,-0.56,0.55,0.55,0.77,6.43,6.43,6.44
53.56,5.84,-0.59,5.84,-0.59,0.58,0.58,0.81,6.42,6.42,6.43
54.10,5.79,-0.62,5.80,-0.62,0.61,0.61,0.85,6.41,6.41,6.41
54.64,5.75,-0.64,5.75,-0.64,0.64,0.65,0.89,6.40,6.40,6.40
55.18,5.71,-0.67,5.71,-0.67,0.68,0.68,0.93,6.39,6.39,6.38
55.74,5.66,-0.70,5.66,-0.70,0.71,0.71,0.97,6.37,6.37,6.36
56.29,5.61,-0.74,5.61,-0.74,0.74,0.75,1.00,6.35,6.35,6.35
56.86,5.55,-0.77,5.56,-0.77,0.77,0.78,1.04,6.33,6.33,6.33
57.42,5.50,-0.81,5.50,-0.81,0.81,0.81,1.07,6.31,6.31,6.31
58.00,5.44,-0.85,5.45,-0.84,0.84,0.84,1.11,6.29,6.29,6.29
58.58,5.39,-0.88,5.39,-0.88,0.87,0.88,1.14,6.27,6.27,6.27
59.16,5.34,-0.91,5.34,-0.91,0.91,0.91,1.17,6.25,6.25,6.25
59.76,5.29,-0.94,5.29,-0.94,0.94,0.94,1.20,6.23,6.23,6.23
60.35,5.24,-0.97,5.24,-0.97,0.97,0.98,1.22,6.21,6.21,6.21
60.96,5.19,-1.00,5.19,-1.00,1.00,1.01,1.25,6.19,6.19,6.19
61.57,5.14,-1.02,5.14,-1.02,1.02,1.04,1.27,6.17,6.17,6.17
62.18,5.09,-1.05,5.09,-1.05,1.05,1.07,1.29,6.15,6.15,6.15
62.80,5.04,-1.08,5.04,-1.08,1.08,1.11,1.31,6.12,6.12,6.12
63.43,4.99,-1.11,4.99,-1.11,1.11,1.14,1.33,6.10,6.10,6.10
64.07,4.94,-1.14,4.94,-1.14,1.14,1.17,1.35,6.08,6.08,6.08
64.71,4.90,-1.17,4.90,-1.17,1.17,1.20,1.37,6.06,6.06,6.06
65.35,4.85,-1.20,4.85,-1.20,1.20,1.24,1.38,6.04,6.04,6.04
66.01,4.80,-1.23,4.80,-1.23,1.23,1.27,1.39,6.02,6.02,6.02
66.67,4.75,-1.26,4.75,-1.26,1.26,1.30,1.41,6.00,6.00,6.00
67.33,4.70,-1.29,4.70,-1.29,1.29,1.33,1.42,5.98,5.98,5.98
68.01,4.65,-1.32,4.65,-1.32,1.32,1.36,1.43,5.96,5.96,5.96
68.69,4.60,-1.35,4.60,-1.35,1.35,1.39,1.43,5.94,5.94,5.94
69.37,4.55,-1.38,4.55,-1.38,1.38,1.43,1.44,5.93,5.93,5.93
70.07,4.50,-1.41,4.50,-1.41,1.41,1.46,1.45,5.91,5.91,5.91
70.77,4.45,-1.44,4.45,-1.44,1.44,1.49,1.46,5.89,5.89,5.89
71.48,4.40,-1.47,4.40,-1.47,1.47,1.52,1.46,5.87,5.87,5.87
72.19,4.35,-1.50,4.35,-1.50,1.50,1.55,1.47,5.85,5.85,5.85
72.91,4.30,-1.53,4.30,-1.53,1.53,1.58,1.47,5.83,5.83,5.84
73.64,4.26,-1.56,4.26,-1.56,1.56,1.61,1.48,5.82,5.82,5.82
74.38,4.21,-1.59,4.21,-1.59,1.59,1.64,1.49,5.80,5.80,5.80
75.12,4.16,-1.63,4.16,-1.63,1.63,1.67,1.49,5.79,5.79,5.79
75.87,4.11,-1.66,4.11,-1.66,1.66,1.70,1.50,5.78,5.77,5.77
76.63,4.06,-1.69,4.06,-1.69,1.70,1.73,1.51,5.76,5.76,5.76
77.40,4.01,-1.73,4.01,-1.73,1.73,1.76,1.52,5.74,5.74,5.74
78.17,3.96,-1.77,3.96,-1.77,1.77,1.79,1.52,5.73,5.73,5.73
78.95,3.91,-1.81,3.91,-1.81,1.80,1.82,1.53,5.71,5.71,5.71
79.74,3.86,-1.84,3.86,-1.84,1.84,1.85,1.54,5.70,5.70,5.70
80.54,3.81,-1.88,3.81,-1.88,1.88,1.87,1.56,5.69,5.69,5.69
81.35,3.76,-1.92,3.76,-1.92,1.92,1.90,1.57,5.68,5.68,5.67
82.16,3.71,-1.95,3.71,-1.95,1.96,1.93,1.58,5.66,5.66,5.66
82.98,3.66,-1.99,3.66,-1.99,1.99,1.96,1.60,5.65,5.65,5.65
83.81,3.60,-2.03,3.60,-2.03,2.03,1.98,1.61,5.64,5.64,5.63
84.65,3.55,-2.07,3.55,-2.07,2.07,2.01,1.63,5.62,5.62,5.62
85.50,3.49,-2.11,3.49,-2.11,2.12,2.04,1.65,5.61,5.61,5.60
86.35,3.43,-2.16,3.43,-2.15,2.16,2.06,1.67,5.59,5.59,5.58
87.22,3.37,-2.19,3.37,-2.20,2.20,2.09,1.69,5.57,5.57,5.56
88.09,3.31,-2.23,3.31,-2.24,2.24,2.11,1.71,5.55,5.54,5.54
88.97,3.25,-2.27,3.24,-2.28,2.27,2.14,1.74,5.51,5.51,5.52
89.86,3.18,-2.31,3.19,-2.31,2.29,2.16,1.76,5.47,5.48,5.49
90.76,3.13,-2.33,3.14,-2.33,2.31,2.18,1.79,5.44,5.44,5.47
91.66,3.10,-2.34,3.10,-2.34,2.32,2.21,1.82,5.42,5.42,5.44
92.58,3.07,-2.34,3.07,-2.33,2.33,2.23,1.84,5.40,5.40,5.40
93.51,3.04,-2.33,3.04,-2.33,2.35,2.25,1.87,5.39,5.39,5.37
94.44,2.99,-2.34,2.99,-2.34,2.37,2.27,1.91,5.36,5.36,5.33
95.39,2.93,-2.36,2.93,-2.36,2.39,2.29,1.94,5.33,5.32,5.29
96.34,2.86,-2.39,2.85,-2.40,2.42,2.31,1.97,5.28,5.27,5.25
97.30,2.76,-2.45,2.76,-2.45,2.45,2.33,2.01,5.21,5.21,5.21
98.28,2.67,-2.50,2.67,-2.49,2.47,2.35,2.04,5.14,5.15,5.17
99.26,2.59,-2.53,2.60,-2.53,2.50,2.37,2.08,5.09,5.09,5.12
100.25,2.54,-2.54,2.54,-2.54,2.51,2.39,2.12,5.05,5.05,5.08
101.25,2.50,-2.53,2.50,-2.54,2.52,2.41,2.16,5.02,5.02,5.03
102.27,2.47,-2.52,2.47,-2.52,2.52,2.43,2.20,4.99,4.99,4.99
103.29,2.44,-2.51,2.44,-2.51,2.52,2.44,2.23,4.95,4.95,4.94
104.32,2.41,-2.49,2.41,-2.49,2.50,2.46,2.27,4.91,4.91,4.90
105.37,2.38,-2.48,2.38,-2.48,2.49,2.47,2.31,4.87,4.87,4.86
106.42,2.35,-2.47,2.34,-2.47,2.47,2.49,2.35,4.82,4.81,4.81
107.48,2.31,-2.46,2.31,-2.46,2.45,2.50,2.39,4.76,4.76,4.77
108.56,2.27,-2.46,2.27,-2.45,2.44,2.52,2.43,4.70,4.71,4.72
109.64,2.23,-2.45,2.23,-2.44,2.43,2.53,2.47,4.66,4.66,4.68
110.74,2.20,-2.43,2.21,-2.43,2.42,2.54,2.50,4.63,4.63,4.63
111.85,2.18,-2.41,2.18,-2.41,2.42,2.55,2.54,4.61,4.60,4.59
112.97,2.14,-2.41,2.14,-2.41,2.43,2.56,2.57,4.58,4.58,4.55
114.10,2.10,-2.41,2.09,-2.42,2.45,2.57,2.60,4.55,4.55,4.51
115.24,2.02,-2.45,2.02,-2.46,2.48,2.58,2.63,4.50,4.50,4.47
116.39,1.93,-2.51,1.93,-2.51,2.51,2.59,2.66,4.44,4.44,4.43
117.55,1.83,-2.56,1.84,-2.56,2.55,2.60,2.68,4.38,4.38,4.40
118.73,1.76,-2.60,1.76,-2.60,2.58,2.61,2.70,4.33,4.33,4.36
119.92,1.69,-2.63,1.69,-2.63,2.60,2.61,2.72,4.29,4.29,4.33
121.12,1.65,-2.64,1.65,-2.64,2.61,2.62,2.74,4.26,4.27,4.29
122.33,1.63,-2.63,1.63,-2.63,2.62,2.62,2.75,4.24,4.25,4.26
123.55,1.62,-2.61,1.62,-2.61,2.61,2.63,2.76,4.23,4.23,4.23
124.79,1.61,-2.59,1.61,-2.59,2.60,2.63,2.76,4.21,4.21,4.20
126.03,1.60,-2.57,1.60,-2.57,2.58,2.64,2.77,4.18,4.18,4.17
127.29,1.58,-2.56,1.58,-2.56,2.58,2.64,2.77,4.16,4.15,4.14
128.57,1.55,-2.56,1.55,-2.56,2.58,2.64,2.76,4.13,4.13,4.11
129.85,1.51,-2.57,1.52,-2.57,2.59,2.64,2.76,4.11,4.11,4.09
131.15,1.48,-2.58,1.47,-2.59,2.62,2.64,2.75,4.09,4.09,4.06
132.46,1.42,-2.62,1.41,-2.62,2.64,2.64,2.73,4.06,4.05,4.03
133.79,1.34,-2.66,1.34,-2.66,2.67,2.64,2.72,4.01,4.01,4.00
135.12,1.27,-2.70,1.27,-2.70,2.67,2.64,2.70,3.95,3.95,3.98
136.48,1.23,-2.72,1.23,-2.72,2.67,2.63,2.68,3.89,3.90,3.95
137.84,1.21,-2.71,1.22,-2.70,2.64,2.63,2.66,3.85,3.86,3.92
139.22,1.25,-2.64,1.25,-2.64,2.60,2.63,2.63,3.85,3.85,3.89
140.61,1.31,-2.55,1.31,-2.55,2.54,2.62,2.61,3.85,3.85,3.86
142.02,1.38,-2.45,1.38,-2.45,2.47,2.62,2.58,3.85,3.85,3.83
143.44,1.44,-2.36,1.44,-2.37,2.40,2.61,2.55,3.84,3.84,3.80
144.87,1.48,-2.29,1.47,-2.30,2.34,2.60,2.52,3.81,3.81,3.77
146.32,1.48,-2.26,1.48,-2.25,2.28,2.60,2.49,3.76,3.77,3.74
147.78,1.47,-2.23,1.47,-2.23,2.25,2.59,2.46,3.72,3.72,3.70
149.26,1.44,-2.23,1.44,-2.22,2.23,2.58,2.43,3.67,3.67,3.67
150.75,1.41,-2.23,1.41,-2.23,2.22,2.57,2.40,3.63,3.63,3.63
152.26,1.36,-2.24,1.36,-2.24,2.23,2.56,2.37,3.60,3.59,3.60
153.78,1.31,-2.25,1.31,-2.25,2.25,2.55,2.34,3.56,3.56,3.56
155.32,1.26,-2.27,1.26,-2.27,2.27,2.54,2.31,3.52,3.52,3.53
156.88,1.20,-2.29,1.20,-2.29,2.28,2.53,2.29,3.48,3.48,3.49
158.44,1.14,-2.31,1.14,-2.31,2.30,2.52,2.26,3.44,3.44,3.45
160.03,1.09,-2.32,1.09,-2.32,2.31,2.51,2.23,3.40,3.40,3.41
161.63,1.04,-2.33,1.04,-2.33,2.33,2.49,2.21,3.37,3.37,3.37
163.24,1.00,-2.34,1.00,-2.34,2.33,2.48,2.18,3.33,3.33,3.33
164.88,0.95,-2.34,0.95,-2.34,2.34,2.47,2.16,3.30,3.29,3.29
166.53,0.91,-2.34,0.91,-2.34,2.35,2.45,2.14,3.26,3.26,3.25
168.19,0.87,-2.35,0.87,-2.35,2.35,2.44,2.12,3.22,3.22,3.21
169.87,0.83,-2.35,0.83,-2.35,2.35,2.42,2.10,3.18,3.18,3.17
171.57,0.79,-2.35,0.78,-2.35,2.35,2.41,2.09,3.13,3.13,3.13
173.29,0.74,-2.35,0.74,-2.35,2.35,2.39,2.07,3.09,3.09,3.09
175.02,0.70,-2.35,0.70,-2.35,2.35,2.38,2.06,3.05,3.05,3.05
176.77,0.66,-2.35,0.66,-2.35,2.35,2.36,2.04,3.01,3.01,3.01
178.54,0.63,-2.34,0.63,-2.34,2.34,2.34,2.03,2.97,2.97,2.97
180.32,0.59,-2.34,0.59,-2.34,2.34,2.33,2.02,2.93,2.93,2.93
182.13,0.55,-2.33,0.55,-2.33,2.34,2.31,2.02,2.89,2.89,2.89
183.95,0.51,-2.33,0.51,-2.33,2.33,2.29,2.01,2.84,2.84,2.84
185.79,0.48,-2.32,0.48,-2.32,2.32,2.27,2.01,2.80,2.80,2.80
187.65,0.44,-2.32,0.44,-2.32,2.32,2.25,2.01,2.75,2.75,2.76
189.52,0.40,-2.31,0.40,-2.31,2.31,2.23,2.01,2.71,2.71,2.71
191.42,0.37,-2.30,0.37,-2.30,2.30,2.22,2.01,2.67,2.67,2.67
193.33,0.33,-2.29,0.33,-2.29,2.29,2.20,2.01,2.63,2.63,2.62
195.27,0.30,-2.28,0.30,-2.28,2.28,2.18,2.01,2.58,2.58,2.58
197.22,0.26,-2.27,0.26,-2.27,2.27,2.16,2.01,2.53,2.53,2.53
199.19,0.22,-2.26,0.22,-2.26,2.26,2.14,2.02,2.48,2.48,2.49
201.18,0.19,-2.25,0.19,-2.25,2.24,2.12,2.03,2.43,2.43,2.44
203.19,0.16,-2.23,0.16,-2.23,2.23,2.10,2.03,2.39,2.39,2.39
205.23,0.14,-2.21,0.14,-2.21,2.21,2.08,2.04,2.35,2.35,2.35
207.28,0.11,-2.19,0.11,-2.19,2.19,2.06,2.05,2.30,2.30,2.30
209.35,0.09,-2.16,0.09,-2.16,2.17,2.03,2.06,2.26,2.25,2.25
211.44,0.06,-2.14,0.06,-2.14,2.15,2.01,2.07,2.21,2.21,2.20
213.56,0.03,-2.12,0.03,-2.12,2.12,1.99,2.07,2.16,2.16,2.16
215.69,0.00,-2.10,0.00,-2.10,2.10,1.97,2.08,2.11,2.11,2.11
217.85,-0.03,-2.09,-0.03,-2.09,2.08,1.95,2.09,2.06,2.06,2.06
220.03,-0.06,-2.07,-0.06,-2.07,2.07,1.93,2.10,2.01,2.01,2.01
222.23,-0.09,-2.05,-0.09,-2.05,2.05,1.91,2.11,1.97,1.97,1.97
224.45,-0.12,-2.04,-0.12,-2.04,2.04,1.89,2.12,1.92,1.92,1.92
226.70,-0.15,-2.02,-0.15,-2.02,2.02,1.87,2.12,1.88,1.88,1.88
228.96,-0.18,-2.01,-0.18,-2.01,2.01,1.84,2.13,1.84,1.84,1.84
231.25,-0.21,-2.00,-0.21,-2.00,2.00,1.82,2.13,1.79,1.80,1.80
233.57,-0.24,-2.00,-0.24,-2.00,2.00,1.80,2.13,1.76,1.76,1.76
235.90,-0.27,-1.99,-0.27,-1.99,1.99,1.78,2.13,1.72,1.72,1.72
238.26,-0.30,-1.99,-0.30,-1.99,1.99,1.76,2.13,1.69,1.69,1.69
240.64,-0.33,-1.99,-0.33,-1.99,1.99,1.74,2.13,1.66,1.66,1.66
243.05,-0.36,-1.99,-0.36,-1.99,2.00,1.72,2.12,1.63,1.63,1.63
245.48,-0.40,-2.00,-0.40,-2.00,2.00,1.70,2.11,1.61,1.61,1.60
247.93,-0.43,-2.01,-0.43,-2.01,2.01,1.67,2.10,1.58,1.58,1.58
250.41,-0.47,-2.02,-0.47,-2.02,2.03,1.65,2.09,1.56,1.55,1.55
252.92,-0.51,-2.03,-0.51,-2.03,2.04,1.63,2.07,1.53,1.53,1.52
255.45,-0.55,-2.05,-0.55,-2.05,2.05,1.61,2.06,1.50,1.50,1.50
258.00,-0.59,-2.06,-0.59,-2.06,2.06,1.59,2.04,1.48,1.48,1.47
260.58,-0.62,-2.06,-0.62,-2.07,2.07,1.57,2.01,1.45,1.45,1.44
263.19,-0.65,-2.07,-0.65,-2.07,2.06,1.55,1.99,1.41,1.41,1.42
265.82,-0.67,-2.06,-0.67,-2.06,2.04,1.53,1.96,1.38,1.38,1.39
268.48,-0.68,-2.03,-0.67,-2.03,2.01,1.51,1.93,1.33,1.33,1.35
271.16,-0.66,-1.98,-0.66,-1.98,1.95,1.49,1.90,1.29,1.29,1.32
273.87,-0.62,-1.91,-0.62,-1.91,1.88,1.47,1.87,1.26,1.26,1.29
276.61,-0.57,-1.82,-0.57,-1.82,1.80,1.45,1.84,1.23,1.23,1.25
279.38,-0.50,-1.71,-0.50,-1.71,1.70,1.43,1.80,1.21,1.21,1.21
282.17,-0.42,-1.60,-0.42,-1.60,1.61,1.41,1.77,1.18,1.18,1.17
284.99,-0.35,-1.48,-0.35,-1.49,1.51,1.39,1.73,1.16,1.16,1.14
287.84,-0.30,-1.40,-0.30,-1.40,1.42,1.37,1.69,1.12,1.12,1.10
290.72,-0.27,-1.32,-0.27,-1.32,1.35,1.35,1.65,1.08,1.08,1.06
293.63,-0.26,-1.27,-0.26,-1.27,1.29,1.33,1.61,1.03,1.03,1.01
296.57,-0.26,-1.24,-0.26,-1.24,1.24,1.31,1.57,0.98,0.98,0.97
299.53,-0.28,-1.21,-0.28,-1.21,1.21,1.29,1.53,0.93,0.93,0.93
302.53,-0.31,-1.20,-0.31,-1.20,1.19,1.27,1.49,0.88,0.89,0.89
305.55,-0.34,-1.19,-0.34,-1.19,1.18,1.26,1.45,0.84,0.84,0.85
308.61,-0.37,-1.18,-0.37,-1.18,1.17,1.24,1.40,0.80,0.80,0.81
311.69,-0.40,-1.17,-0.40,-1.17,1.16,1.22,1.36,0.76,0.76,0.77
314.81,-0.43,-1.16,-0.43,-1.16,1.15,1.20,1.32,0.72,0.72,0.73
317.96,-0.46,-1.15,-0.46,-1.15,1.14,1.18,1.28,0.68,0.68,0.69
321.14,-0.49,-1.13,-0.49,-1.13,1.13,1.17,1.24,0.64,0.64,0.65
324.35,-0.51,-1.12,-0.51,-1.12,1.12,1.15,1.20,0.60,0.60,0.61
327.59,-0.54,-1.10,-0.54,-1.10,1.10,1.13,1.16,0.56,0.56,0.57
330.87,-0.56,-1.09,-0.56,-1.09,1.09,1.11,1.12,0.53,0.53,0.53
334.18,-0.58,-1.07,-0.58,-1.07,1.07,1.10,1.08,0.49,0.49,0.49
337.52,-0.61,-1.05,-0.61,-1.05,1.05,1.08,1.05,0.45,0.45,0.45
340.90,-0.63,-1.03,-0.63,-1.03,1.03,1.06,1.01,0.41,0.41,0.41
344.30,-0.65,-1.01,-0.65,-1.01,1.01,1.05,0.97,0.37,0.37,0.37
347.75,-0.67,-0.99,-0.67,-0.99,0.99,1.03,0.94,0.33,0.33,0.33
351.23,-0.69,-0.97,-0.69,-0.97,0.97,1.02,0.90,0.29,0.29,0.29
354.74,-0.70,-0.95,-0.70,-0.95,0.95,1.00,0.87,0.25,0.25,0.25
358.28,-0.72,-0.93,-0.72,-0.93,0.93,0.98,0.83,0.21,0.21,0.21
361.87,-0.74,-0.91,-0.74,-0.91,0.90,0.97,0.80,0.17,0.17,0.17
365.49,-0.75,-0.88,-0.75,-0.88,0.88,0.95,0.77,0.13,0.13,0.13
369.14,-0.77,-0.86,-0.77,-0.86,0.86,0.94,0.73,0.09,0.09,0.09
372.83,-0.78,-0.83,-0.78,-0.83,0.83,0.92,0.70,0.05,0.05,0.05
376.56,-0.80,-0.80,-0.80,-0.80,0.81,0.91,0.67,0.01,0.01,0.01
380.33,-0.81,-0.78,-0.81,-0.78,0.78,0.89,0.64,-0.03,-0.03,-0.03
384.13,-0.83,-0.75,-0.83,-0.75,0.75,0.88,0.61,-0.07,-0.07,-0.07
387.97,-0.84,-0.73,-0.84,-0.73,0.73,0.87,0.58,-0.11,-0.11,-0.11
391.85,-0.86,-0.70,-0.86,-0.70,0.70,0.85,0.55,-0.15,-0.15,-0.15
395.77,-0.87,-0.68,-0.87,-0.68,0.67,0.84,0.53,-0.19,-0.19,-0.19
399.73,-0.88,-0.65,-0.88,-0.65,0.65,0.83,0.50,-0.23,-0.23,-0.23
403.72,-0.90,-0.62,-0.90,-0.62,0.62,0.81,0.47,-0.27,-0.27,-0.27
407.76,-0.91,-0.60,-0.91,-0.60,0.60,0.80,0.45,-0.31,-0.31,-0.31
411.84,-0.92,-0.57,-0.92,-0.58,0.58,0.79,0.42,-0.35,-0.35,-0.35
415.96,-0.94,-0.55,-0.94,-0.55,0.55,0.77,0.40,-0.38,-0.38,-0.38
420.12,-0.95,-0.53,-0.95,-0.53,0.53,0.76,0.37,-0.41,-0.41,-0.41
424.32,-0.96,-0.52,-0.96,-0.52,0.52,0.75,0.35,-0.44,-0.44,-0.44
428.56,-0.97,-0.50,-0.97,-0.50,0.50,0.74,0.33,-0.47,-0.47,-0.47
432.85,-0.99,-0.49,-0.99,-0.49,0.49,0.73,0.31,-0.49,-0.49,-0.50
437.18,-1.00,-0.48,-1.00,-0.48,0.48,0.71,0.29,-0.51,-0.51,-0.52
441.55,-1.01,-0.48,-1.01,-0.48,0.48,0.70,0.27,-0.53,-0.53,-0.53
445.96,-1.02,-0.47,-1.02,-0.47,0.47,0.69,0.25,-0.55,-0.55,-0.55
450.42,-1.03,-0.47,-1.03,-0.47,0.47,0.68,0.23,-0.56,-0.56,-0.56
454.93,-1.04,-0.47,-1.04,-0.47,0.47,0.67,0.21,-0.58,-0.58,-0.58
459.48,-1.06,-0.47,-1.06,-0.47,0.47,0.66,0.20,-0.59,-0.59,-0.59
464.07,-1.07,-0.47,-1.07,-0.47,0.47,0.65,0.18,-0.60,-0.60,-0.60
468.71,-1.08,-0.47,-1.08,-0.47,0.47,0.64,0.17,-0.61,-0.61,-0.61
473.40,-1.09,-0.47,-1.09,-0.47,0.46,0.63,0.15,-0.62,-0.62,-0.62
478.13,-1.10,-0.46,-1.10,-0.46,0.46,0.62,0.14,-0.63,-0.63,-0.63
482.91,-1.11,-0.46,-1.11,-0.46,0.46,0.61,0.13,-0.65,-0.65,-0.65
487.74,-1.11,-0.45,-1.11,-0.45,0.45,0.60,0.12,-0.66,-0.66,-0.66
492.62,-1.12,-0.45,-1.12,-0.45,0.45,0.59,0.11,-0.68,-0.68,-0.68
497.55,-1.13,-0.44,-1.13,-0.44,0.44,0.58,0.10,-0.69,-0.69,-0.69
502.52,-1.14,-0.43,-1.14,-0.43,0.43,0.57,0.10,-0.71,-0.71,-0.71
507.55,-1.15,-0.43,-1.15,-0.42,0.43,0.56,0.09,-0.73,-0.73,-0.73
512.62,-1.16,-0.42,-1.16,-0.42,0.42,0.55,0.09,-0.75,-0.75,-0.75
517.75,-1.17,-0.41,-1.17,-0.41,0.41,0.55,0.08,-0.76,-0.76,-0.76
522.93,-1.18,-0.40,-1.18,-0.40,0.40,0.54,0.08,-0.78,-0.78,-0.78
528.16,-1.18,-0.38,-1.18,-0.38,0.38,0.53,0.08,-0.80,-0.80,-0.80
533.44,-1.19,-0.37,-1.19,-0.37,0.37,0.52,0.08,-0.82,-0.82,-0.82
538.77,-1.19,-0.35,-1.19,-0.35,0.35,0.51,0.08,-0.84,-0.84,-0.84
544.16,-1.18,-0.33,-1.18,-0.33,0.33,0.51,0.08,-0.86,-0.86,-0.85
