frequency,raw,error,smoothed,error_smoothed,equalization,parametric_eq,fixed_band_eq,equalized_raw,equalized_smoothed,target
20.00,9.51,4.41,9.51,4.41,-4.41,-4.26,-1.23,5.09,5.09,5.09
20.20,9.48,4.38,9.48,4.38,-4.38,-4.27,-1.27,5.10,5.10,5.09
20.40,9.45,4.36,9.45,4.35,-4.35,-4.29,-1.31,5.10,5.10,5.09
20.61,9.42,4.32,9.42,4.32,-4.32,-4.29,-1.35,5.10,5.10,5.09
20.81,9.39,4.29,9.39,4.29,-4.29,-4.29,-1.39,5.09,5.09,5.09
21.02,9.36,4.26,9.36,4.26,-4.26,-4.27,-1.44,5.09,5.09,5.09
21.23,9.33,4.23,9.33,4.23,-4.24,-4.25,-1.48,5.09,5.09,5.09
21.44,9.30,4.21,9.30,4.21,-4.21,-4.21,-1.53,5.09,5.09,5.09
21.66,9.28,4.18,9.28,4.18,-4.19,-4.18,-1.57,5.09,5.09,5.09
21.87,9.26,4.16,9.26,4.16,-4.17,-4.14,-1.62,5.09,5.09,5.09
22.09,9.24,4.14,9.24,4.14,-4.15,-4.09,-1.67,5.08,5.08,5.09
22.31,9.22,4.12,9.22,4.12,-4.13,-4.05,-1.73,5.09,5.08,5.09
22.54,9.19,4.10,9.19,4.10,-4.10,-4.00,-1.78,5.09,5.09,5.09
22.76,9.17,4.08,9.17,4.08,-4.07,-3.95,-1.83,5.10,5.10,5.09
22.99,9.14,4.05,9.14,4.05,-4.02,-3.90,-1.89,5.12,5.12,5.09
23.22,9.12,4.02,9.12,4.00,-3.97,-3.85,-1.94,5.15,5.15,5.10
23.45,9.09,3.92,9.09,3.92,-3.91,-3.80,-2.00,5.19,5.19,5.18
23.69,9.08,3.82,9.08,3.83,-3.84,-3.75,-2.06,5.24,5.24,5.26
23.92,9.06,3.74,9.06,3.74,-3.76,-3.70,-2.12,5.30,5.30,5.32
24.16,9.05,3.67,9.05,3.66,-3.68,-3.65,-2.18,5.37,5.37,5.38
24.40,9.05,3.58,9.05,3.59,-3.60,-3.60,-2.24,5.45,5.45,5.46
24.65,9.04,3.51,9.04,3.51,-3.51,-3.55,-2.30,5.53,5.53,5.53
24.89,9.03,3.44,9.03,3.44,-3.42,-3.50,-2.37,5.61,5.61,5.59
25.14,9.02,3.36,9.02,3.36,-3.34,-3.45,-2.43,5.68,5.68,5.65
25.39,9.00,3.27,9.00,3.26,-3.25,-3.40,-2.49,5.75,5.75,5.73
25.65,8.97,3.16,8.97,3.17,-3.17,-3.35,-2.56,5.80,5.80,5.81
25.91,8.94,3.07,8.94,3.09,-3.09,-3.30,-2.62,5.85,5.85,5.87
26.16,8.91,3.02,8.91,3.02,-3.03,-3.26,-2.68,5.88,5.88,5.89
26.43,8.89,2.99,8.89,2.96,-2.98,-3.21,-2.74,5.91,5.91,5.90
26.69,8.86,2.90,8.86,2.92,-2.94,-3.16,-2.80,5.92,5.92,5.97
26.96,8.84,2.89,8.85,2.90,-2.93,-3.11,-2.86,5.92,5.92,5.95
27.23,8.83,2.93,8.83,2.90,-2.92,-3.06,-2.92,5.90,5.90,5.89
27.50,8.81,2.91,8.81,2.92,-2.93,-3.01,-2.97,5.88,5.88,5.89
27.77,8.78,2.94,8.78,2.95,-2.94,-2.96,-3.02,5.84,5.84,5.84
28.05,8.75,2.97,8.75,2.97,-2.95,-2.91,-3.07,5.79,5.79,5.78
28.33,8.71,3.00,8.71,2.98,-2.96,-2.86,-3.11,5.75,5.75,5.71
28.62,8.67,2.97,8.67,2.97,-2.95,-2.81,-3.16,5.71,5.71,5.69
28.90,8.62,2.93,8.63,2.94,-2.93,-2.76,-3.19,5.69,5.69,5.69
29.19,8.59,2.89,8.59,2.90,-2.89,-2.70,-3.23,5.70,5.70,5.69
29.48,8.56,2.86,8.56,2.85,-2.84,-2.65,-3.25,5.72,5.72,5.69
29.78,8.53,2.79,8.53,2.78,-2.76,-2.60,-3.27,5.76,5.76,5.74
30.08,8.49,2.69,8.49,2.69,-2.68,-2.55,-3.29,5.81,5.81,5.81
30.38,8.46,2.59,8.46,2.58,-2.59,-2.49,-3.30,5.87,5.87,5.87
30.68,8.42,2.48,8.42,2.49,-2.50,-2.44,-3.30,5.92,5.92,5.94
30.99,8.37,2.38,8.37,2.40,-2.40,-2.39,-3.30,5.97,5.97,5.99
31.30,8.33,2.33,8.33,2.31,-2.32,-2.33,-3.29,6.01,6.01,5.99
31.61,8.28,2.23,8.28,2.23,-2.24,-2.28,-3.28,6.04,6.04,6.05
31.93,8.24,2.14,8.24,2.16,-2.17,-2.22,-3.25,6.06,6.06,6.09
32.24,8.20,2.11,8.20,2.10,-2.12,-2.17,-3.23,6.08,6.08,6.09
32.57,8.17,2.07,8.17,2.07,-2.08,-2.11,-3.19,6.09,6.09,6.09
32.89,8.13,2.04,8.13,2.04,-2.04,-2.06,-3.15,6.09,6.09,6.09
33.22,8.11,2.01,8.11,2.01,-2.01,-2.00,-3.10,6.09,6.09,6.09
33.55,8.08,1.99,8.08,1.99,-1.99,-1.95,-3.05,6.09,6.09,6.09
33.89,8.06,1.96,8.06,1.97,-1.95,-1.89,-3.00,6.10,6.10,6.09
34.23,8.03,1.94,8.03,1.94,-1.92,-1.84,-2.94,6.11,6.11,6.09
34.57,8.00,1.91,8.00,1.89,-1.87,-1.78,-2.87,6.13,6.13,6.09
34.92,7.97,1.84,7.97,1.84,-1.82,-1.72,-2.80,6.15,6.15,6.14
35.27,7.94,1.74,7.94,1.77,-1.77,-1.67,-2.73,6.17,6.17,6.19
35.62,7.90,1.71,7.90,1.69,-1.71,-1.61,-2.65,6.20,6.20,6.19
35.97,7.87,1.62,7.87,1.63,-1.64,-1.56,-2.57,6.23,6.23,6.25
36.33,7.84,1.55,7.85,1.57,-1.58,-1.50,-2.49,6.27,6.27,6.29
36.70,7.82,1.53,7.82,1.51,-1.51,-1.44,-2.40,6.31,6.31,6.29
37.06,7.80,1.45,7.80,1.46,-1.44,-1.39,-2.32,6.36,6.36,6.35
37.43,7.78,1.38,7.77,1.40,-1.37,-1.33,-2.23,6.41,6.40,6.39
37.81,7.74,1.34,7.74,1.32,-1.30,-1.28,-2.14,6.43,6.43,6.39
38.19,7.70,1.24,7.70,1.24,-1.24,-1.22,-2.05,6.45,6.45,6.45
38.57,7.65,1.15,7.65,1.17,-1.18,-1.17,-1.96,6.46,6.46,6.49
38.95,7.60,1.11,7.60,1.10,-1.13,-1.11,-1.87,6.47,6.47,6.49
39.34,7.55,1.06,7.55,1.07,-1.09,-1.05,-1.78,6.46,6.46,6.49
39.74,7.50,1.05,7.50,1.05,-1.07,-1.00,-1.69,6.44,6.44,6.45
40.14,7.46,1.06,7.46,1.04,-1.06,-0.94,-1.60,6.40,6.40,6.39
40.54,7.41,1.02,7.41,1.04,-1.06,-0.89,-1.51,6.36,6.36,6.39
40.94,7.37,1.02,7.37,1.03,-1.05,-0.83,-1.41,6.32,6.32,6.35
41.35,7.34,1.04,7.34,1.02,-1.03,-0.78,-1.32,6.31,6.31,6.29
41.76,7.31,1.01,7.31,1.03,-0.98,-0.72,-1.23,6.33,6.33,6.29
42.18,7.28,0.99,7.28,0.99,-0.91,-0.67,-1.14,6.38,6.38,6.29
42.60,7.26,0.93,7.25,0.89,-0.81,-0.62,-1.05,6.44,6.44,6.33
43.03,7.23,0.76,7.23,0.74,-0.70,-0.56,-0.97,6.53,6.53,6.47
43.46,7.20,0.52,7.20,0.55,-0.57,-0.51,-0.88,6.63,6.63,6.67
43.90,7.17,0.35,7.17,0.37,-0.44,-0.45,-0.79,6.73,6.73,6.82
44.33,7.14,0.25,7.13,0.23,-0.30,-0.40,-0.70,6.84,6.83,6.88
44.78,7.09,0.14,7.09,0.14,-0.17,-0.35,-0.62,6.93,6.92,6.96
45.23,7.05,0.05,7.05,0.06,-0.05,-0.29,-0.53,6.99,6.99,6.99
45.68,7.00,0.00,7.00,-0.03,0.04,-0.24,-0.45,7.04,7.04,6.99
46.13,6.95,-0.12,6.95,-0.11,0.11,-0.19,-0.36,7.06,7.06,7.07
46.60,6.91,-0.19,6.91,-0.17,0.17,-0.13,-0.28,7.07,7.07,7.09
47.06,6.87,-0.22,6.87,-0.23,0.21,-0.08,-0.20,7.08,7.08,7.09
47.53,6.84,-0.26,6.84,-0.27,0.25,-0.03,-0.11,7.08,7.08,7.09
48.01,6.80,-0.30,6.80,-0.29,0.28,0.02,-0.03,7.08,7.08,7.09
48.49,6.75,-0.33,6.75,-0.31,0.32,0.07,0.05,7.07,7.07,7.08
48.97,6.70,-0.31,6.70,-0.33,0.36,0.13,0.13,7.06,7.06,7.01
49.46,6.65,-0.35,6.65,-0.36,0.40,0.18,0.21,7.05,7.05,6.99
49.96,6.60,-0.42,6.60,-0.42,0.46,0.23,0.29,7.05,7.06,7.02
50.46,6.56,-0.53,6.56,-0.50,0.52,0.28,0.36,7.08,7.08,7.09
50.96,6.53,-0.57,6.53,-0.57,0.58,0.33,0.44,7.11,7.11,7.09
51.47,6.50,-0.62,6.50,-0.65,0.64,0.38,0.52,7.14,7.13,7.12
51.99,6.47,-0.73,6.46,-0.71,0.69,0.43,0.59,7.15,7.15,7.19
52.51,6.43,-0.77,6.43,-0.76,0.72,0.49,0.67,7.14,7.14,7.19
53.03,6.38,-0.78,6.38,-0.78,0.72,0.54,0.74,7.11,7.11,7.16
53.56,6.33,-0.75,6.33,-0.76,0.71,0.59,0.81,7.05,7.05,7.09
54.10,6.28,-0.74,6.28,-0.72,0.69,0.64,0.89,6.97,6.97,7.02
54.64,6.23,-0.68,6.23,-0.67,0.67,0.69,0.96,6.90,6.90,6.91
55.18,6.17,-0.61,6.17,-0.62,0.66,0.74,1.02,6.84,6.84,6.78
55.74,6.12,-0.60,6.12,-0.60,0.68,0.79,1.09,6.80,6.80,6.71
56.29,6.06,-0.63,6.06,-0.63,0.72,0.84,1.15,6.78,6.78,6.69
56.86,6.00,-0.71,6.00,-0.72,0.79,0.88,1.22,6.79,6.79,6.71
57.42,5.95,-0.83,5.95,-0.85,0.87,0.93,1.28,6.83,6.82,6.78
58.00,5.90,-1.00,5.91,-1.00,0.97,0.98,1.34,6.88,6.88,6.91
58.58,5.87,-1.14,5.87,-1.13,1.08,1.03,1.40,6.95,6.95,7.02
59.16,5.84,-1.25,5.84,-1.23,1.17,1.08,1.45,7.01,7.01,7.09
59.76,5.82,-1.28,5.82,-1.29,1.23,1.13,1.50,7.05,7.05,7.09
60.35,5.79,-1.30,5.79,-1.31,1.27,1.18,1.55,7.07,7.07,7.09
60.96,5.77,-1.33,5.77,-1.31,1.29,1.23,1.60,7.05,7.05,7.09
61.57,5.74,-1.29,5.74,-1.29,1.27,1.27,1.64,7.01,7.01,7.02
62.18,5.71,-1.24,5.71,-1.25,1.25,1.32,1.69,6.96,6.96,6.95
62.80,5.68,-1.20,5.68,-1.20,1.22,1.37,1.73,6.90,6.90,6.88
63.43,5.65,-1.17,5.65,-1.18,1.21,1.42,1.77,6.86,6.86,6.82
64.07,5.61,-1.18,5.61,-1.18,1.22,1.47,1.80,6.83,6.83,6.79
64.71,5.57,-1.22,5.58,-1.21,1.24,1.51,1.83,6.82,6.82,6.79
65.35,5.54,-1.26,5.54,-1.27,1.30,1.56,1.87,6.83,6.83,6.79
66.01,5.50,-1.35,5.50,-1.35,1.37,1.61,1.89,6.87,6.87,6.84
66.67,5.45,-1.46,5.45,-1.45,1.47,1.65,1.92,6.92,6.92,6.91
67.33,5.41,-1.58,5.41,-1.57,1.57,1.70,1.95,6.98,6.98,6.99
68.01,5.36,-1.69,5.36,-1.70,1.68,1.75,1.97,7.04,7.04,7.05
68.69,5.31,-1.81,5.31,-1.81,1.79,1.79,1.99,7.10,7.10,7.12
69.37,5.26,-1.93,5.26,-1.91,1.89,1.84,2.02,7.15,7.15,7.19
70.07,5.20,-1.99,5.20,-1.99,1.98,1.89,2.04,7.18,7.18,7.19
70.77,5.15,-2.05,5.15,-2.06,2.05,1.93,2.06,7.19,7.19,7.19
71.48,5.09,-2.11,5.09,-2.11,2.10,1.98,2.08,7.19,7.19,7.19
72.19,5.02,-2.17,5.02,-2.16,2.14,2.02,2.10,7.17,7.16,7.19
72.91,4.96,-2.20,4.96,-2.19,2.18,2.07,2.11,7.13,7.13,7.15
73.64,4.89,-2.19,4.89,-2.20,2.21,2.12,2.13,7.10,7.10,7.08
74.38,4.82,-2.19,4.82,-2.21,2.25,2.16,2.15,7.07,7.07,7.01
75.12,4.75,-2.24,4.76,-2.24,2.28,2.21,2.17,7.04,7.04,6.99
75.87,4.70,-2.30,4.70,-2.29,2.32,2.25,2.19,7.01,7.01,6.99
76.63,4.64,-2.35,4.64,-2.35,2.34,2.30,2.21,6.99,6.99,6.99
77.40,4.60,-2.39,4.60,-2.40,2.36,2.34,2.24,6.96,6.96,6.99
78.17,4.57,-2.42,4.57,-2.42,2.36,2.38,2.26,6.94,6.94,6.99
78.95,4.55,-2.44,4.55,-2.42,2.36,2.43,2.28,6.91,6.92,6.99
79.74,4.54,-2.39,4.54,-2.39,2.36,2.47,2.31,6.90,6.90,6.94
80.54,4.53,-2.34,4.53,-2.34,2.36,2.52,2.34,6.88,6.88,6.87
81.35,4.51,-2.29,4.51,-2.31,2.36,2.56,2.37,6.87,6.87,6.80
82.16,4.48,-2.31,4.48,-2.32,2.38,2.60,2.40,6.86,6.86,6.79
82.98,4.44,-2.38,4.44,-2.38,2.43,2.65,2.43,6.87,6.87,6.83
83.81,4.39,-2.50,4.39,-2.48,2.50,2.69,2.46,6.90,6.90,6.89
84.65,4.32,-2.58,4.32,-2.59,2.61,2.73,2.50,6.93,6.93,6.89
85.50,4.23,-2.71,4.23,-2.72,2.74,2.78,2.54,6.96,6.96,6.94
86.35,4.12,-2.88,4.11,-2.86,2.87,2.82,2.58,6.99,6.98,6.99
87.22,3.99,-3.00,3.99,-3.01,2.99,2.86,2.62,6.98,6.98,6.99
88.09,3.85,-3.14,3.85,-3.15,3.10,2.90,2.66,6.95,6.95,6.99
88.97,3.74,-3.26,3.74,-3.26,3.19,2.94,2.71,6.93,6.93,6.99
89.86,3.64,-3.35,3.66,-3.31,3.26,2.98,2.76,6.90,6.92,6.99
90.76,3.62,-3.31,3.63,-3.32,3.30,3.03,2.81,6.93,6.93,6.94
91.66,3.65,-3.27,3.65,-3.30,3.32,3.07,2.86,6.97,6.97,6.92
92.58,3.69,-3.29,3.69,-3.29,3.33,3.11,2.91,7.02,7.02,6.99
93.51,3.73,-3.32,3.73,-3.32,3.32,3.15,2.97,7.05,7.05,7.06
94.44,3.76,-3.33,3.76,-3.32,3.30,3.19,3.03,7.07,7.06,7.09
95.39,3.78,-3.32,3.78,-3.30,3.29,3.23,3.09,7.07,7.07,7.09
96.34,3.78,-3.25,3.78,-3.28,3.30,3.27,3.15,7.07,7.07,7.03
97.30,3.77,-3.26,3.77,-3.28,3.31,3.31,3.21,7.08,7.08,7.03
98.28,3.75,-3.34,3.76,-3.31,3.33,3.34,3.28,7.08,7.09,7.09
99.26,3.73,-3.36,3.73,-3.36,3.36,3.38,3.34,7.09,7.09,7.09
100.25,3.70,-3.40,3.69,-3.41,3.40,3.42,3.41,7.10,7.10,7.09
101.25,3.64,-3.45,3.64,-3.45,3.47,3.46,3.48,7.11,7.10,7.09
102.27,3.57,-3.52,3.57,-3.52,3.54,3.50,3.55,7.11,7.11,7.09
103.29,3.49,-3.60,3.49,-3.60,3.61,3.53,3.62,7.11,7.11,7.09
104.32,3.42,-3.68,3.42,-3.67,3.69,3.57,3.69,7.11,7.11,7.09
105.37,3.35,-3.74,3.35,-3.76,3.75,3.61,3.76,7.11,7.11,7.09
106.42,3.30,-3.84,3.30,-3.84,3.81,3.64,3.83,7.10,7.10,7.14
107.48,3.24,-3.93,3.25,-3.89,3.85,3.68,3.90,7.09,7.10,7.17
108.56,3.20,-3.91,3.20,-3.90,3.88,3.71,3.97,7.08,7.08,7.12
109.64,3.16,-3.87,3.16,-3.90,3.88,3.75,4.04,7.05,7.05,7.03
110.74,3.13,-3.87,3.13,-3.88,3.88,3.78,4.11,7.00,7.00,6.99
111.85,3.10,-3.90,3.09,-3.86,3.86,3.82,4.17,6.95,6.95,6.99
112.97,3.06,-3.84,3.06,-3.85,3.84,3.85,4.23,6.90,6.90,6.90
114.10,3.02,-3.82,3.02,-3.82,3.83,3.88,4.29,6.85,6.85,6.84
115.24,2.98,-3.80,2.98,-3.79,3.84,3.92,4.35,6.82,6.82,6.78
116.39,2.94,-3.78,2.94,-3.81,3.86,3.95,4.40,6.80,6.80,6.72
117.55,2.90,-3.85,2.90,-3.85,3.90,3.98,4.45,6.80,6.80,6.75
118.73,2.85,-3.94,2.85,-3.92,3.94,4.01,4.50,6.79,6.79,6.79
119.92,2.81,-3.99,2.81,-4.01,3.98,4.04,4.54,6.79,6.79,6.79
121.12,2.76,-4.09,2.76,-4.09,4.03,4.07,4.57,6.79,6.79,6.85
122.33,2.71,-4.17,2.71,-4.13,4.07,4.10,4.60,6.78,6.78,6.88
123.55,2.66,-4.15,2.66,-4.14,4.12,4.13,4.63,6.78,6.78,6.82
124.79,2.61,-4.10,2.61,-4.13,4.15,4.16,4.65,6.76,6.76,6.72
126.03,2.57,-4.12,2.57,-4.13,4.17,4.19,4.67,6.74,6.74,6.69
127.29,2.53,-4.16,2.53,-4.15,4.19,4.22,4.67,6.72,6.72,6.69
128.57,2.50,-4.20,2.50,-4.20,4.20,4.24,4.68,6.70,6.70,6.69
129.85,2.46,-4.23,2.46,-4.23,4.21,4.27,4.68,6.68,6.68,6.69
131.15,2.43,-4.26,2.43,-4.26,4.23,4.30,4.68,6.67,6.67,6.69
132.46,2.40,-4.29,2.40,-4.28,4.26,4.32,4.67,6.66,6.66,6.69
133.79,2.36,-4.29,2.36,-4.29,4.29,4.35,4.66,6.66,6.65,6.65
135.12,2.32,-4.28,2.32,-4.30,4.33,4.37,4.64,6.64,6.64,6.59
136.48,2.27,-4.33,2.27,-4.33,4.36,4.39,4.62,6.63,6.63,6.59
137.84,2.21,-4.38,2.21,-4.37,4.40,4.42,4.59,6.61,6.61,6.59
139.22,2.16,-4.43,2.16,-4.43,4.43,4.44,4.57,6.59,6.59,6.59
140.61,2.11,-4.48,2.11,-4.49,4.46,4.46,4.54,6.57,6.57,6.59
142.02,2.06,-4.53,2.06,-4.53,4.49,4.48,4.51,6.55,6.55,6.59
143.44,2.01,-4.56,2.01,-4.54,4.51,4.50,4.48,6.53,6.53,6.57
144.87,1.97,-4.53,1.97,-4.53,4.52,4.52,4.45,6.49,6.49,6.50
146.32,1.92,-4.51,1.92,-4.53,4.52,4.54,4.42,6.44,6.44,6.43
147.78,1.87,-4.52,1.87,-4.52,4.51,4.55,4.39,6.39,6.39,6.39
149.26,1.83,-4.55,1.83,-4.53,4.52,4.57,4.36,6.35,6.35,6.38
150.75,1.78,-4.52,1.78,-4.52,4.53,4.58,4.32,6.32,6.32,6.31
152.26,1.73,-4.52,1.73,-4.52,4.57,4.60,4.30,6.31,6.31,6.25
153.78,1.67,-4.53,1.67,-4.55,4.64,4.61,4.27,6.31,6.31,6.20
155.32,1.62,-4.65,1.62,-4.64,4.71,4.62,4.24,6.33,6.33,6.26
156.88,1.55,-4.78,1.55,-4.78,4.80,4.64,4.21,6.36,6.36,6.34
158.44,1.50,-4.92,1.50,-4.92,4.89,4.65,4.19,6.39,6.39,6.42
160.03,1.44,-5.05,1.44,-5.03,4.97,4.66,4.17,6.42,6.42,6.49
161.63,1.41,-5.09,1.41,-5.09,5.03,4.67,4.15,6.44,6.44,6.49
163.24,1.39,-5.10,1.39,-5.11,5.06,4.67,4.13,6.45,6.45,6.49
164.88,1.40,-5.10,1.41,-5.09,5.05,4.68,4.12,6.45,6.46,6.49
166.53,1.45,-5.04,1.45,-5.05,5.01,4.68,4.11,6.46,6.46,6.49
168.19,1.52,-4.97,1.52,-4.97,4.93,4.69,4.10,6.46,6.46,6.49
169.87,1.61,-4.88,1.61,-4.85,4.85,4.69,4.09,6.47,6.47,6.49
171.57,1.71,-4.71,1.71,-4.72,4.77,4.69,4.09,6.48,6.48,6.42
173.29,1.79,-4.60,1.79,-4.61,4.69,4.69,4.09,6.49,6.49,6.39
175.02,1.87,-4.53,1.86,-4.56,4.63,4.69,4.10,6.49,6.49,6.40
176.77,1.90,-4.58,1.90,-4.56,4.58,4.69,4.10,6.48,6.48,6.48
178.54,1.92,-4.57,1.92,-4.56,4.54,4.69,4.12,6.46,6.46,6.49
180.32,1.92,-4.56,1.92,-4.56,4.52,4.69,4.13,6.44,6.44,6.48
182.13,1.90,-4.52,1.90,-4.54,4.51,4.69,4.15,6.41,6.41,6.42
183.95,1.87,-4.52,1.87,-4.53,4.51,4.68,4.16,6.38,6.39,6.39
185.79,1.84,-4.53,1.84,-4.51,4.51,4.68,4.19,6.35,6.35,6.37
187.65,1.80,-4.50,1.80,-4.50,4.51,4.67,4.21,6.31,6.31,6.31
189.52,1.76,-4.48,1.76,-4.49,4.50,4.67,4.24,6.26,6.26,6.24
191.42,1.71,-4.48,1.71,-4.50,4.50,4.67,4.28,6.21,6.21,6.19
193.33,1.66,-4.54,1.65,-4.52,4.51,4.67,4.31,6.17,6.17,6.19
195.27,1.59,-4.54,1.59,-4.52,4.53,4.66,4.35,6.13,6.12,6.13
197.22,1.53,-4.53,1.53,-4.54,4.56,4.66,4.39,6.09,6.09,6.05
199.19,1.47,-4.53,1.47,-4.57,4.59,4.66,4.43,6.06,6.07,6.00
201.18,1.43,-4.63,1.44,-4.61,4.63,4.66,4.47,6.06,6.06,6.07
203.19,1.41,-4.68,1.41,-4.66,4.65,4.66,4.52,6.07,6.07,6.09
205.23,1.40,-4.69,1.40,-4.70,4.67,4.67,4.56,6.07,6.07,6.09
207.28,1.39,-4.70,1.39,-4.72,4.67,4.67,4.61,6.06,6.06,6.09
209.35,1.37,-4.72,1.37,-4.72,4.67,4.67,4.66,6.04,6.04,6.09
211.44,1.35,-4.72,1.35,-4.68,4.65,4.67,4.71,6.00,6.00,6.06
213.56,1.32,-4.61,1.32,-4.62,4.63,4.67,4.76,5.95,5.95,5.92
215.69,1.29,-4.55,1.29,-4.57,4.61,4.68,4.80,5.90,5.90,5.84
217.85,1.26,-4.54,1.26,-4.54,4.60,4.68,4.85,5.86,5.86,5.79
220.03,1.23,-4.57,1.23,-4.56,4.60,4.68,4.90,5.82,5.82,5.79
222.23,1.20,-4.60,1.20,-4.59,4.61,4.68,4.94,5.80,5.80,5.79
224.45,1.17,-4.62,1.17,-4.62,4.62,4.67,4.98,5.79,5.79,5.79
226.70,1.14,-4.65,1.14,-4.65,4.64,4.67,5.02,5.78,5.78,5.79
228.96,1.11,-4.68,1.11,-4.69,4.66,4.67,5.06,5.77,5.77,5.79
231.25,1.09,-4.71,1.09,-4.71,4.67,4.66,5.09,5.76,5.76,5.79
233.57,1.06,-4.73,1.06,-4.71,4.68,4.66,5.12,5.74,5.74,5.79
235.90,1.04,-4.69,1.04,-4.69,4.68,4.65,5.14,5.72,5.72,5.73
238.26,1.01,-4.64,1.01,-4.65,4.68,4.64,5.16,5.69,5.69,5.65
240.64,0.98,-4.61,0.99,-4.63,4.67,4.63,5.17,5.66,5.66,5.59
243.05,0.96,-4.63,0.96,-4.63,4.66,4.62,5.18,5.62,5.62,5.59
245.48,0.94,-4.66,0.94,-4.65,4.63,4.60,5.18,5.57,5.57,5.59
247.93,0.92,-4.65,0.92,-4.64,4.61,4.59,5.17,5.53,5.53,5.57
250.41,0.90,-4.61,0.90,-4.62,4.58,4.57,5.16,5.48,5.48,5.51
252.92,0.87,-4.57,0.87,-4.57,4.56,4.56,5.14,5.43,5.43,5.45
255.45,0.85,-4.53,0.85,-4.52,4.53,4.54,5.12,5.38,5.38,5.38
258.00,0.83,-4.47,0.83,-4.47,4.49,4.52,5.09,5.32,5.32,5.29
260.58,0.80,-4.43,0.80,-4.44,4.46,4.50,5.05,5.26,5.26,5.23
263.19,0.78,-4.41,0.78,-4.42,4.43,4.48,5.01,5.21,5.21,5.19
265.82,0.76,-4.44,0.76,-4.41,4.42,4.46,4.96,5.17,5.17,5.19
268.48,0.73,-4.40,0.73,-4.40,4.41,4.44,4.91,5.15,5.15,5.13
271.16,0.71,-4.39,0.71,-4.40,4.42,4.41,4.85,5.13,5.13,5.09
273.87,0.68,-4.41,0.68,-4.41,4.43,4.39,4.78,5.11,5.11,5.09
276.61,0.66,-4.43,0.66,-4.44,4.44,4.36,4.72,5.10,5.10,5.09
279.38,0.64,-4.46,0.64,-4.46,4.44,4.34,4.65,5.08,5.08,5.09
282.17,0.61,-4.48,0.61,-4.46,4.43,4.31,4.58,5.04,5.04,5.09
284.99,0.59,-4.43,0.59,-4.44,4.41,4.28,4.50,4.99,4.99,5.02
287.84,0.56,-4.39,0.56,-4.40,4.37,4.25,4.42,4.93,4.93,4.95
290.72,0.53,-4.34,0.53,-4.34,4.33,4.22,4.34,4.86,4.86,4.88
293.63,0.51,-4.30,0.51,-4.27,4.27,4.19,4.26,4.78,4.78,4.80
296.57,0.48,-4.19,0.48,-4.20,4.20,4.16,4.18,4.68,4.68,4.67
299.53,0.45,-4.11,0.45,-4.13,4.14,4.13,4.10,4.59,4.59,4.56
302.53,0.43,-4.08,0.43,-4.07,4.08,4.09,4.02,4.51,4.51,4.50
305.55,0.40,-4.03,0.40,-4.02,4.04,4.06,3.94,4.44,4.44,4.43
308.61,0.37,-3.99,0.37,-3.99,4.01,4.02,3.86,4.38,4.38,4.36
311.69,0.34,-3.96,0.34,-3.97,4.00,3.98,3.78,4.35,4.35,4.30
314.81,0.32,-3.98,0.32,-3.98,4.01,3.95,3.70,4.33,4.33,4.29
317.96,0.29,-4.01,0.29,-4.00,4.03,3.91,3.63,4.32,4.32,4.29
321.14,0.26,-4.04,0.26,-4.04,4.04,3.87,3.55,4.30,4.30,4.29
324.35,0.23,-4.06,0.23,-4.07,4.04,3.83,3.48,4.27,4.27,4.29
327.59,0.20,-4.09,0.20,-4.09,4.02,3.79,3.41,4.22,4.22,4.29
330.87,0.17,-4.09,0.17,-4.06,3.99,3.75,3.34,4.16,4.16,4.26
334.18,0.14,-3.99,0.14,-3.99,3.95,3.71,3.27,4.09,4.09,4.13
337.52,0.11,-3.88,0.11,-3.88,3.90,3.66,3.21,4.01,4.01,3.99
340.90,0.08,-3.77,0.08,-3.77,3.84,3.62,3.14,3.92,3.92,3.86
344.30,0.07,-3.66,0.07,-3.69,3.76,3.58,3.08,3.83,3.83,3.72
347.75,0.06,-3.64,0.06,-3.65,3.67,3.53,3.02,3.73,3.73,3.69
351.23,0.06,-3.64,0.06,-3.63,3.58,3.48,2.97,3.64,3.64,3.69
354.74,0.07,-3.63,0.07,-3.58,3.49,3.44,2.91,3.56,3.56,3.69
358.28,0.09,-3.48,0.09,-3.47,3.42,3.39,2.86,3.50,3.50,3.56
361.87,0.11,-3.31,0.11,-3.32,3.35,3.34,2.81,3.46,3.46,3.42
365.49,0.13,-3.16,0.13,-3.20,3.28,3.29,2.76,3.41,3.41,3.29
369.14,0.15,-3.15,0.15,-3.15,3.22,3.24,2.72,3.36,3.36,3.29
372.83,0.16,-3.14,0.16,-3.13,3.15,3.19,2.68,3.30,3.30,3.29
376.56,0.16,-3.13,0.16,-3.11,3.08,3.14,2.64,3.24,3.24,3.28
380.33,0.15,-3.07,0.15,-3.07,3.02,3.09,2.60,3.17,3.17,3.22
384.13,0.14,-3.01,0.14,-3.02,2.97,3.04,2.56,3.11,3.11,3.15
387.97,0.13,-2.95,0.13,-2.95,2.93,2.98,2.52,3.06,3.06,3.08
391.85,0.11,-2.90,0.11,-2.87,2.89,2.93,2.49,3.00,3.00,3.01
395.77,0.10,-2.79,0.10,-2.80,2.85,2.87,2.46,2.94,2.94,2.88
399.73,0.08,-2.72,0.08,-2.75,2.81,2.82,2.43,2.88,2.88,2.79
403.72,0.05,-2.74,0.05,-2.74,2.77,2.76,2.40,2.83,2.83,2.79
407.76,0.03,-2.76,0.03,-2.75,2.74,2.71,2.37,2.77,2.77,2.79
411.84,0.01,-2.75,0.01,-2.74,2.71,2.65,2.35,2.72,2.72,2.76
415.96,-0.01,-2.71,-0.01,-2.71,2.68,2.59,2.32,2.66,2.66,2.69
420.12,-0.04,-2.66,-0.04,-2.67,2.64,2.53,2.30,2.61,2.61,2.63
424.32,-0.06,-2.61,-0.06,-2.61,2.60,2.47,2.27,2.54,2.54,2.56
428.56,-0.08,-2.56,-0.08,-2.54,2.55,2.41,2.25,2.47,2.47,2.48
432.85,-0.11,-2.44,-0.11,-2.46,2.48,2.35,2.22,2.38,2.38,2.33
437.18,-0.13,-2.38,-0.13,-2.39,2.40,2.29,2.20,2.28,2.28,2.25
441.55,-0.15,-2.33,-0.15,-2.33,2.32,2.23,2.17,2.17,2.17,2.18
445.96,-0.17,-2.28,-0.17,-2.27,2.24,2.17,2.15,2.07,2.07,2.11
450.42,-0.19,-2.19,-0.19,-2.18,2.15,2.10,2.12,1.96,1.96,2.00
454.93,-0.21,-2.07,-0.21,-2.07,2.08,2.04,2.10,1.87,1.87,1.86
459.48,-0.23,-1.94,-0.23,-1.96,2.00,1.98,2.07,1.78,1.78,1.71
464.07,-0.25,-1.88,-0.25,-1.88,1.93,1.91,2.04,1.68,1.68,1.64
468.71,-0.27,-1.84,-0.27,-1.83,1.85,1.84,2.01,1.58,1.58,1.57
473.40,-0.29,-1.79,-0.29,-1.79,1.77,1.78,1.97,1.48,1.48,1.50
478.13,-0.30,-1.74,-0.31,-1.73,1.69,1.71,1.94,1.38,1.38,1.43
482.91,-0.32,-1.66,-0.32,-1.65,1.61,1.64,1.90,1.29,1.29,1.34
487.74,-0.34,-1.54,-0.34,-1.54,1.54,1.58,1.86,1.20,1.20,1.20
492.62,-0.36,-1.42,-0.36,-1.43,1.46,1.51,1.82,1.10,1.10,1.06
497.55,-0.38,-1.33,-0.38,-1.34,1.38,1.44,1.77,1.01,1.01,0.96
502.52,-0.39,-1.28,-0.39,-1.28,1.30,1.37,1.73,0.91,0.91,0.89
507.55,-0.41,-1.23,-0.41,-1.23,1.22,1.30,1.68,0.81,0.81,0.81
512.62,-0.43,-1.18,-0.43,-1.17,1.15,1.23,1.62,0.72,0.72,0.75
517.75,-0.45,-1.12,-0.45,-1.09,1.07,1.16,1.57,0.63,0.63,0.67
522.93,-0.46,-0.99,-0.46,-1.01,1.01,1.09,1.51,0.54,0.54,0.52
528.16,-0.48,-0.92,-0.48,-0.94,0.94,1.01,1.45,0.46,0.46,0.44
533.44,-0.50,-0.87,-0.50,-0.86,0.87,0.94,1.38,0.38,0.38,0.38
538.77,-0.51,-0.82,-0.52,-0.79,0.81,0.87,1.32,0.29,0.29,0.31
544.16,-0.53,-0.71,-0.53,-0.73,0.74,0.80,1.25,0.21,0.21,0.17
549.60,-0.55,-0.64,-0.55,-0.68,0.68,0.72,1.18,0.13,0.13,0.09
555.10,-0.57,-0.66,-0.57,-0.63,0.62,0.65,1.11,0.06,0.06,0.09
560.65,-0.58,-0.60,-0.58,-0.58,0.57,0.57,1.03,-0.01,-0.01,0.02
