frequency,raw,error,smoothed,error_smoothed,equalization,parametric_eq,fixed_band_eq,equalized_raw,equalized_smoothed,target
20.00,5.52,-3.85,5.52,-3.84,3.84,-0.01,1.18,9.36,9.37,9.37
20.20,5.56,-3.81,5.56,-3.81,3.81,-0.01,1.21,9.37,9.37,9.37
20.40,5.61,-3.77,5.61,-3.77,3.77,-0.01,1.25,9.38,9.38,9.37
20.61,5.65,-3.73,5.65,-3.73,3.73,-0.01,1.29,9.38,9.38,9.38
20.81,5.69,-3.70,5.69,-3.70,3.70,-0.01,1.33,9.39,9.39,9.39
21.02,5.73,-3.67,5.73,-3.67,3.66,-0.01,1.37,9.39,9.39,9.39
21.23,5.77,-3.63,5.77,-3.63,3.63,-0.01,1.41,9.39,9.39,9.40
21.44,5.81,-3.60,5.81,-3.60,3.59,-0.01,1.45,9.40,9.40,9.40
21.66,5.85,-3.56,5.85,-3.56,3.56,-0.01,1.49,9.41,9.41,9.41
21.87,5.89,-3.52,5.89,-3.52,3.52,-0.01,1.54,9.41,9.41,9.41
22.09,5.93,-3.48,5.93,-3.48,3.49,-0.01,1.58,9.42,9.42,9.42
22.31,5.97,-3.45,5.97,-3.45,3.45,-0.01,1.63,9.42,9.42,9.42
22.54,6.01,-3.41,6.01,-3.41,3.42,-0.01,1.68,9.43,9.43,9.43
22.76,6.05,-3.38,6.05,-3.38,3.39,-0.01,1.73,9.43,9.43,9.43
22.99,6.08,-3.35,6.08,-3.35,3.36,-0.01,1.78,9.44,9.44,9.44
23.22,6.12,-3.32,6.12,-3.32,3.33,-0.01,1.84,9.44,9.44,9.44
23.45,6.15,-3.30,6.15,-3.30,3.30,-0.01,1.89,9.45,9.45,9.45
23.69,6.18,-3.27,6.18,-3.27,3.27,-0.01,1.94,9.45,9.45,9.45
23.92,6.21,-3.24,6.21,-3.24,3.24,-0.01,2.00,9.45,9.45,9.45
24.16,6.24,-3.21,6.24,-3.21,3.21,-0.01,2.05,9.45,9.45,9.46
24.40,6.28,-3.18,6.28,-3.18,3.17,-0.01,2.11,9.45,9.45,9.46
24.65,6.31,-3.14,6.31,-3.14,3.14,-0.01,2.17,9.45,9.45,9.46
24.89,6.35,-3.11,6.35,-3.11,3.11,-0.01,2.23,9.46,9.46,9.46
25.14,6.38,-3.07,6.38,-3.07,3.07,-0.01,2.29,9.46,9.46,9.46
25.39,6.42,-3.04,6.42,-3.04,3.04,-0.01,2.35,9.46,9.46,9.46
25.65,6.45,-3.01,6.45,-3.01,3.01,-0.01,2.41,9.46,9.46,9.46
25.91,6.48,-2.98,6.48,-2.98,2.98,-0.01,2.46,9.46,9.46,9.46
26.16,6.51,-2.95,6.51,-2.95,2.96,-0.01,2.52,9.46,9.46,9.46
26.43,6.53,-2.93,6.53,-2.93,2.93,-0.01,2.58,9.46,9.46,9.46
26.69,6.55,-2.91,6.55,-2.91,2.91,-0.01,2.64,9.46,9.46,9.46
26.96,6.58,-2.89,6.58,-2.89,2.88,-0.01,2.69,9.46,9.46,9.46
27.23,6.60,-2.86,6.60,-2.86,2.86,-0.01,2.75,9.46,9.46,9.46
27.50,6.62,-2.84,6.62,-2.84,2.84,-0.01,2.80,9.46,9.46,9.46
27.77,6.64,-2.81,6.64,-2.81,2.81,-0.01,2.85,9.45,9.45,9.46
28.05,6.67,-2.79,6.66,-2.79,2.78,-0.01,2.90,9.45,9.45,9.45
28.33,6.69,-2.76,6.69,-2.76,2.76,-0.01,2.94,9.45,9.45,9.44
28.62,6.71,-2.73,6.71,-2.73,2.73,-0.01,2.99,9.44,9.44,9.44
28.90,6.73,-2.70,6.73,-2.70,2.70,-0.01,3.02,9.44,9.44,9.43
29.19,6.75,-2.68,6.75,-2.68,2.68,-0.01,3.06,9.43,9.43,9.43
29.48,6.78,-2.65,6.78,-2.65,2.65,-0.01,3.09,9.43,9.43,9.43
29.78,6.80,-2.62,6.80,-2.62,2.62,-0.01,3.11,9.42,9.42,9.42
30.08,6.82,-2.60,6.82,-2.60,2.59,-0.01,3.13,9.42,9.42,9.42
30.38,6.84,-2.57,6.84,-2.57,2.57,-0.01,3.15,9.41,9.41,9.41
30.68,6.87,-2.54,6.87,-2.54,2.53,-0.01,3.16,9.40,9.40,9.40
30.99,6.89,-2.50,6.89,-2.50,2.50,-0.02,3.17,9.40,9.40,9.39
31.30,6.91,-2.47,6.91,-2.47,2.47,-0.02,3.17,9.39,9.39,9.38
31.61,6.94,-2.44,6.94,-2.44,2.44,-0.02,3.17,9.37,9.37,9.37
31.93,6.96,-2.40,6.96,-2.40,2.40,-0.02,3.16,9.36,9.36,9.36
32.24,6.98,-2.37,6.98,-2.37,2.37,-0.02,3.15,9.35,9.35,9.35
32.57,7.00,-2.33,7.00,-2.33,2.33,-0.02,3.13,9.33,9.33,9.33
32.89,7.02,-2.30,7.02,-2.30,2.30,-0.02,3.10,9.32,9.32,9.32
33.22,7.04,-2.26,7.04,-2.26,2.26,-0.02,3.07,9.31,9.31,9.31
33.55,7.07,-2.23,7.07,-2.23,2.23,-0.02,3.04,9.30,9.30,9.29
33.89,7.08,-2.20,7.08,-2.20,2.20,-0.02,3.00,9.29,9.29,9.28
34.23,7.10,-2.17,7.10,-2.17,2.18,-0.02,2.97,9.28,9.28,9.27
34.57,7.11,-2.15,7.11,-2.15,2.15,-0.02,2.92,9.26,9.26,9.26
34.92,7.12,-2.13,7.12,-2.13,2.13,-0.02,2.87,9.25,9.25,9.25
35.27,7.13,-2.11,7.13,-2.11,2.11,-0.02,2.82,9.23,9.23,9.24
35.62,7.13,-2.09,7.13,-2.09,2.09,-0.02,2.77,9.22,9.22,9.22
35.97,7.14,-2.07,7.14,-2.07,2.06,-0.02,2.72,9.20,9.20,9.20
36.33,7.14,-2.04,7.14,-2.04,2.04,-0.02,2.66,9.18,9.18,9.19
36.70,7.15,-2.02,7.15,-2.02,2.02,-0.02,2.61,9.17,9.17,9.17
37.06,7.16,-1.99,7.16,-1.99,1.99,-0.02,2.55,9.15,9.15,9.15
37.43,7.17,-1.96,7.17,-1.96,1.96,-0.02,2.49,9.13,9.13,9.13
37.81,7.17,-1.94,7.17,-1.94,1.94,-0.02,2.43,9.11,9.11,9.11
38.19,7.18,-1.91,7.18,-1.91,1.91,-0.02,2.37,9.09,9.09,9.09
38.57,7.19,-1.88,7.19,-1.88,1.88,-0.02,2.31,9.07,9.07,9.07
38.95,7.20,-1.85,7.20,-1.85,1.85,-0.03,2.25,9.05,9.05,9.05
39.34,7.21,-1.82,7.21,-1.82,1.82,-0.03,2.19,9.03,9.03,9.03
39.74,7.21,-1.80,7.21,-1.80,1.79,-0.03,2.13,9.01,9.01,9.01
40.14,7.22,-1.77,7.22,-1.77,1.77,-0.03,2.07,8.99,8.99,8.99
40.54,7.23,-1.74,7.23,-1.74,1.74,-0.03,2.02,8.97,8.97,8.97
40.94,7.24,-1.71,7.24,-1.71,1.71,-0.03,1.96,8.95,8.95,8.95
41.35,7.25,-1.67,7.25,-1.67,1.68,-0.03,1.90,8.93,8.93,8.93
41.76,7.26,-1.64,7.26,-1.64,1.65,-0.03,1.85,8.91,8.91,8.90
42.18,7.27,-1.62,7.27,-1.62,1.62,-0.03,1.79,8.89,8.89,8.88
42.60,7.27,-1.59,7.27,-1.59,1.60,-0.03,1.74,8.87,8.87,8.86
43.03,7.27,-1.57,7.27,-1.57,1.57,-0.03,1.69,8.84,8.84,8.84
43.46,7.27,-1.55,7.27,-1.55,1.54,-0.03,1.64,8.82,8.82,8.83
43.90,7.28,-1.53,7.28,-1.53,1.52,-0.03,1.59,8.80,8.80,8.80
44.33,7.28,-1.50,7.28,-1.50,1.49,-0.03,1.54,8.78,8.78,8.78
44.78,7.29,-1.47,7.29,-1.47,1.47,-0.03,1.50,8.76,8.76,8.75
45.23,7.29,-1.44,7.29,-1.44,1.44,-0.04,1.45,8.73,8.73,8.73
45.68,7.29,-1.41,7.29,-1.41,1.42,-0.04,1.41,8.71,8.71,8.70
46.13,7.29,-1.39,7.29,-1.39,1.39,-0.04,1.36,8.68,8.68,8.67
46.60,7.28,-1.37,7.29,-1.37,1.36,-0.04,1.32,8.65,8.65,8.65
47.06,7.29,-1.34,7.29,-1.34,1.33,-0.04,1.28,8.62,8.62,8.63
47.53,7.29,-1.31,7.29,-1.31,1.30,-0.04,1.24,8.59,8.59,8.60
48.01,7.30,-1.28,7.30,-1.28,1.27,-0.04,1.20,8.57,8.57,8.58
48.49,7.30,-1.24,7.30,-1.24,1.25,-0.04,1.16,8.55,8.55,8.55
48.97,7.30,-1.21,7.30,-1.21,1.22,-0.04,1.13,8.52,8.52,8.51
49.46,7.30,-1.18,7.30,-1.18,1.19,-0.04,1.09,8.49,8.49,8.48
49.96,7.28,-1.16,7.28,-1.16,1.17,-0.04,1.06,8.45,8.45,8.45
50.46,7.27,-1.15,7.27,-1.15,1.15,-0.05,1.02,8.42,8.42,8.42
50.96,7.25,-1.13,7.25,-1.13,1.13,-0.05,0.99,8.39,8.39,8.39
51.47,7.24,-1.12,7.24,-1.12,1.12,-0.05,0.96,8.36,8.36,8.35
51.99,7.22,-1.10,7.22,-1.10,1.11,-0.05,0.93,8.33,8.33,8.32
52.51,7.20,-1.09,7.20,-1.09,1.09,-0.05,0.90,8.29,8.29,8.29
53.03,7.17,-1.08,7.17,-1.08,1.07,-0.05,0.87,8.25,8.25,8.25
53.56,7.15,-1.06,7.15,-1.06,1.05,-0.05,0.84,8.20,8.20,8.21
54.10,7.14,-1.04,7.14,-1.04,1.02,-0.05,0.81,8.16,8.16,8.18
54.64,7.14,-1.00,7.14,-1.00,0.99,-0.06,0.79,8.13,8.13,8.14
55.18,7.15,-0.96,7.15,-0.96,0.95,-0.06,0.76,8.10,8.10,8.11
55.74,7.17,-0.90,7.17,-0.90,0.91,-0.06,0.74,8.08,8.07,8.07
56.29,7.18,-0.85,7.18,-0.85,0.87,-0.06,0.71,8.05,8.05,8.03
56.86,7.19,-0.81,7.18,-0.81,0.83,-0.06,0.69,8.01,8.01,8.00
57.42,7.18,-0.78,7.18,-0.78,0.79,-0.06,0.66,7.97,7.97,7.96
58.00,7.17,-0.75,7.17,-0.75,0.75,-0.06,0.64,7.92,7.92,7.92
58.58,7.15,-0.72,7.15,-0.72,0.72,-0.07,0.61,7.87,7.88,7.88
59.16,7.14,-0.70,7.14,-0.70,0.69,-0.07,0.59,7.83,7.83,7.84
59.76,7.12,-0.68,7.12,-0.68,0.67,-0.07,0.57,7.79,7.79,7.80
60.35,7.11,-0.65,7.11,-0.65,0.65,-0.07,0.54,7.76,7.76,7.76
60.96,7.10,-0.62,7.10,-0.62,0.62,-0.07,0.52,7.72,7.72,7.72
61.57,7.09,-0.59,7.09,-0.59,0.59,-0.08,0.50,7.69,7.69,7.68
62.18,7.08,-0.57,7.08,-0.57,0.57,-0.08,0.48,7.65,7.65,7.65
62.80,7.07,-0.54,7.07,-0.54,0.54,-0.08,0.45,7.61,7.61,7.61
63.43,7.06,-0.51,7.06,-0.51,0.51,-0.08,0.43,7.57,7.57,7.57
64.07,7.05,-0.48,7.05,-0.48,0.48,-0.08,0.41,7.53,7.53,7.53
64.71,7.04,-0.45,7.04,-0.45,0.45,-0.09,0.39,7.48,7.48,7.48
65.35,7.02,-0.42,7.02,-0.42,0.42,-0.09,0.37,7.44,7.44,7.44
66.01,7.00,-0.39,7.00,-0.39,0.38,-0.09,0.34,7.39,7.39,7.39
66.67,6.99,-0.35,6.99,-0.35,0.35,-0.09,0.32,7.34,7.34,7.34
67.33,6.97,-0.32,6.97,-0.32,0.32,-0.10,0.30,7.29,7.29,7.29
68.01,6.95,-0.29,6.95,-0.29,0.30,-0.10,0.28,7.24,7.24,7.24
68.69,6.92,-0.27,6.92,-0.27,0.27,-0.10,0.26,7.19,7.19,7.18
69.37,6.89,-0.24,6.89,-0.24,0.25,-0.10,0.23,7.14,7.14,7.13
70.07,6.86,-0.22,6.86,-0.22,0.22,-0.11,0.21,7.08,7.08,7.08
70.77,6.83,-0.21,6.83,-0.20,0.20,-0.11,0.19,7.03,7.03,7.03
71.48,6.80,-0.18,6.80,-0.18,0.18,-0.11,0.17,6.98,6.98,6.98
72.19,6.78,-0.16,6.78,-0.16,0.15,-0.12,0.15,6.93,6.93,6.94
72.91,6.76,-0.13,6.76,-0.13,0.13,-0.12,0.12,6.89,6.89,6.90
73.64,6.75,-0.10,6.75,-0.10,0.10,-0.12,0.10,6.85,6.85,6.86
74.38,6.74,-0.07,6.74,-0.07,0.07,-0.13,0.08,6.82,6.82,6.82
75.12,6.73,-0.04,6.73,-0.04,0.04,-0.13,0.05,6.78,6.78,6.77
75.87,6.72,-0.01,6.72,-0.01,0.02,-0.13,0.03,6.73,6.73,6.73
76.63,6.70,0.01,6.70,0.01,-0.01,-0.14,0.01,6.69,6.69,6.69
77.40,6.68,0.04,6.67,0.04,-0.03,-0.14,-0.01,6.64,6.64,6.64
78.17,6.65,0.06,6.65,0.06,-0.05,-0.15,-0.04,6.59,6.59,6.59
78.95,6.61,0.08,6.61,0.08,-0.07,-0.15,-0.06,6.54,6.54,6.53
79.74,6.58,0.10,6.58,0.10,-0.09,-0.15,-0.09,6.48,6.48,6.48
80.54,6.54,0.12,6.54,0.12,-0.11,-0.16,-0.11,6.43,6.43,6.42
81.35,6.51,0.14,6.51,0.14,-0.14,-0.16,-0.13,6.37,6.37,6.37
82.16,6.48,0.16,6.48,0.16,-0.16,-0.17,-0.16,6.31,6.31,6.31
82.98,6.45,0.20,6.45,0.20,-0.20,-0.17,-0.18,6.25,6.25,6.25
83.81,6.43,0.24,6.43,0.24,-0.25,-0.18,-0.21,6.17,6.18,6.19
84.65,6.42,0.29,6.42,0.29,-0.32,-0.18,-0.23,6.10,6.10,6.13
85.50,6.42,0.36,6.42,0.36,-0.39,-0.19,-0.26,6.03,6.03,6.06
86.35,6.44,0.44,6.44,0.44,-0.47,-0.20,-0.28,5.96,5.97,6.00
87.22,6.48,0.54,6.48,0.54,-0.55,-0.20,-0.31,5.92,5.92,5.94
88.09,6.52,0.64,6.52,0.64,-0.62,-0.21,-0.34,5.90,5.90,5.88
88.97,6.55,0.72,6.55,0.73,-0.68,-0.21,-0.36,5.87,5.88,5.83
89.86,6.56,0.79,6.55,0.78,-0.71,-0.22,-0.39,5.85,5.84,5.77
90.76,6.51,0.79,6.50,0.78,-0.72,-0.23,-0.42,5.79,5.79,5.72
91.66,6.42,0.74,6.42,0.74,-0.71,-0.24,-0.45,5.71,5.71,5.68
92.58,6.31,0.67,6.31,0.68,-0.69,-0.24,-0.47,5.62,5.62,5.63
93.51,6.20,0.61,6.20,0.62,-0.66,-0.25,-0.50,5.54,5.55,5.59
94.44,6.11,0.57,6.11,0.57,-0.63,-0.26,-0.53,5.48,5.49,5.54
95.39,6.04,0.56,6.05,0.56,-0.61,-0.27,-0.56,5.44,5.44,5.49
96.34,6.00,0.57,6.00,0.57,-0.60,-0.28,-0.59,5.40,5.40,5.43
97.30,5.98,0.60,5.98,0.60,-0.61,-0.29,-0.62,5.37,5.37,5.38
98.28,5.97,0.64,5.96,0.64,-0.64,-0.30,-0.65,5.33,5.33,5.32
99.26,5.95,0.69,5.95,0.69,-0.66,-0.31,-0.68,5.29,5.28,5.26
100.25,5.93,0.72,5.92,0.72,-0.69,-0.32,-0.71,5.23,5.23,5.20
101.25,5.89,0.74,5.89,0.74,-0.72,-0.33,-0.74,5.17,5.17,5.14
102.27,5.84,0.75,5.84,0.75,-0.74,-0.34,-0.77,5.10,5.10,5.08
103.29,5.78,0.75,5.78,0.75,-0.75,-0.35,-0.80,5.03,5.03,5.03
104.32,5.72,0.75,5.72,0.75,-0.76,-0.36,-0.82,4.96,4.96,4.97
105.37,5.66,0.75,5.66,0.75,-0.76,-0.37,-0.85,4.90,4.90,4.91
106.42,5.61,0.76,5.61,0.76,-0.77,-0.39,-0.88,4.83,4.83,4.85
107.48,5.56,0.77,5.56,0.77,-0.78,-0.40,-0.91,4.78,4.78,4.79
108.56,5.52,0.79,5.52,0.79,-0.80,-0.41,-0.94,4.73,4.73,4.73
109.64,5.49,0.82,5.49,0.82,-0.82,-0.43,-0.96,4.68,4.68,4.67
110.74,5.46,0.84,5.47,0.84,-0.84,-0.44,-0.99,4.62,4.62,4.62
111.85,5.44,0.87,5.44,0.87,-0.87,-0.46,-1.01,4.57,4.57,4.57
112.97,5.41,0.90,5.41,0.90,-0.90,-0.47,-1.04,4.51,4.51,4.51
114.10,5.38,0.92,5.38,0.92,-0.93,-0.49,-1.06,4.45,4.45,4.45
115.24,5.34,0.95,5.34,0.95,-0.95,-0.51,-1.08,4.39,4.39,4.39
116.39,5.31,0.98,5.31,0.98,-0.98,-0.53,-1.10,4.33,4.33,4.33
117.55,5.27,1.01,5.27,1.01,-1.01,-0.55,-1.12,4.26,4.26,4.26
118.73,5.24,1.04,5.24,1.04,-1.03,-0.57,-1.13,4.20,4.20,4.20
119.92,5.20,1.07,5.20,1.06,-1.06,-0.59,-1.15,4.14,4.14,4.13
121.12,5.16,1.08,5.16,1.08,-1.08,-0.61,-1.16,4.08,4.08,4.08
122.33,5.12,1.10,5.12,1.10,-1.10,-0.63,-1.17,4.02,4.02,4.02
123.55,5.08,1.11,5.08,1.11,-1.11,-0.65,-1.18,3.97,3.97,3.97
124.79,5.04,1.12,5.04,1.12,-1.12,-0.67,-1.18,3.92,3.92,3.92
126.03,5.01,1.13,5.01,1.13,-1.13,-0.70,-1.19,3.88,3.88,3.87
127.29,4.97,1.14,4.97,1.14,-1.14,-0.72,-1.19,3.83,3.83,3.83
128.57,4.93,1.14,4.93,1.14,-1.14,-0.75,-1.19,3.79,3.79,3.78
129.85,4.88,1.15,4.88,1.15,-1.15,-0.77,-1.19,3.74,3.74,3.74
131.15,4.84,1.15,4.84,1.15,-1.15,-0.80,-1.19,3.69,3.69,3.69
132.46,4.80,1.15,4.80,1.15,-1.16,-0.83,-1.18,3.64,3.64,3.64
133.79,4.75,1.16,4.75,1.16,-1.16,-0.86,-1.18,3.59,3.59,3.59
135.12,4.71,1.17,4.71,1.17,-1.17,-0.89,-1.17,3.53,3.53,3.54
136.48,4.66,1.18,4.66,1.18,-1.18,-0.91,-1.16,3.48,3.48,3.48
137.84,4.62,1.20,4.62,1.20,-1.19,-0.95,-1.15,3.43,3.42,3.42
139.22,4.57,1.21,4.57,1.21,-1.20,-0.98,-1.14,3.37,3.37,3.36
140.61,4.52,1.22,4.52,1.21,-1.21,-1.01,-1.13,3.31,3.31,3.31
142.02,4.48,1.22,4.48,1.22,-1.22,-1.04,-1.11,3.26,3.26,3.26
143.44,4.43,1.22,4.43,1.22,-1.22,-1.07,-1.10,3.21,3.21,3.21
144.87,4.39,1.22,4.39,1.22,-1.23,-1.10,-1.08,3.16,3.16,3.17
146.32,4.35,1.22,4.35,1.22,-1.23,-1.13,-1.07,3.12,3.12,3.12
147.78,4.31,1.23,4.30,1.23,-1.23,-1.16,-1.05,3.08,3.08,3.08
149.26,4.26,1.23,4.26,1.23,-1.23,-1.19,-1.04,3.04,3.04,3.03
150.75,4.22,1.23,4.21,1.22,-1.22,-1.23,-1.02,2.99,2.99,2.99
152.26,4.17,1.22,4.17,1.22,-1.22,-1.25,-1.00,2.95,2.95,2.95
153.78,4.12,1.21,4.12,1.21,-1.21,-1.28,-0.99,2.91,2.91,2.91
155.32,4.07,1.20,4.07,1.20,-1.20,-1.31,-0.97,2.87,2.87,2.87
156.88,4.02,1.18,4.02,1.18,-1.19,-1.34,-0.95,2.84,2.84,2.84
158.44,3.98,1.17,3.98,1.17,-1.17,-1.36,-0.94,2.81,2.81,2.81
160.03,3.93,1.15,3.93,1.15,-1.15,-1.39,-0.92,2.78,2.78,2.78
161.63,3.88,1.13,3.88,1.13,-1.12,-1.41,-0.91,2.76,2.76,2.75
163.24,3.84,1.10,3.84,1.10,-1.09,-1.42,-0.89,2.75,2.75,2.73
164.88,3.79,1.07,3.79,1.07,-1.06,-1.44,-0.88,2.73,2.73,2.72
166.53,3.74,1.04,3.74,1.04,-1.03,-1.45,-0.87,2.71,2.71,2.71
168.19,3.69,1.00,3.69,1.00,-1.01,-1.46,-0.85,2.68,2.68,2.69
169.87,3.65,0.97,3.65,0.98,-0.99,-1.47,-0.84,2.65,2.65,2.67
171.57,3.60,0.96,3.60,0.96,-0.98,-1.47,-0.83,2.61,2.61,2.64
173.29,3.55,0.97,3.55,0.97,-0.98,-1.48,-0.82,2.57,2.57,2.59
175.02,3.50,0.98,3.50,0.98,-0.99,-1.47,-0.81,2.51,2.51,2.52
176.77,3.45,1.00,3.45,1.00,-1.00,-1.47,-0.80,2.45,2.45,2.45
178.54,3.40,1.03,3.40,1.03,-1.01,-1.46,-0.79,2.38,2.38,2.37
180.32,3.34,1.05,3.34,1.04,-1.03,-1.45,-0.78,2.32,2.32,2.30
182.13,3.29,1.06,3.29,1.05,-1.04,-1.43,-0.78,2.25,2.25,2.23
183.95,3.23,1.06,3.23,1.06,-1.05,-1.41,-0.77,2.19,2.19,2.18
185.79,3.18,1.05,3.18,1.05,-1.05,-1.39,-0.76,2.13,2.13,2.13
187.65,3.13,1.04,3.13,1.04,-1.04,-1.37,-0.76,2.08,2.08,2.08
189.52,3.08,1.03,3.08,1.03,-1.04,-1.34,-0.75,2.04,2.04,2.04
191.42,3.03,1.02,3.03,1.02,-1.03,-1.31,-0.75,2.00,2.00,2.01
193.33,2.98,1.02,2.98,1.02,-1.02,-1.27,-0.74,1.96,1.96,1.97
195.27,2.94,1.01,2.94,1.01,-1.02,-1.24,-0.74,1.92,1.92,1.93
197.22,2.90,1.01,2.90,1.01,-1.02,-1.20,-0.74,1.88,1.88,1.89
199.19,2.86,1.01,2.86,1.01,-1.01,-1.17,-0.74,1.85,1.85,1.85
201.18,2.82,1.01,2.82,1.01,-1.01,-1.13,-0.73,1.81,1.81,1.81
203.19,2.79,1.01,2.79,1.01,-1.01,-1.09,-0.73,1.78,1.78,1.77
205.23,2.75,1.00,2.75,1.00,-1.00,-1.05,-0.73,1.75,1.75,1.74
207.28,2.71,0.99,2.71,0.99,-0.99,-1.00,-0.73,1.71,1.71,1.71
209.35,2.67,0.98,2.67,0.98,-0.98,-0.96,-0.73,1.69,1.69,1.69
211.44,2.63,0.96,2.63,0.97,-0.97,-0.92,-0.73,1.66,1.66,1.66
213.56,2.58,0.95,2.58,0.95,-0.95,-0.87,-0.72,1.64,1.64,1.64
215.69,2.54,0.93,2.54,0.93,-0.93,-0.83,-0.72,1.61,1.61,1.61
217.85,2.49,0.91,2.49,0.90,-0.90,-0.79,-0.72,1.59,1.59,1.59
220.03,2.44,0.88,2.44,0.88,-0.88,-0.74,-0.72,1.56,1.56,1.56
222.23,2.39,0.85,2.39,0.85,-0.85,-0.70,-0.72,1.54,1.54,1.54
224.45,2.33,0.82,2.33,0.82,-0.82,-0.66,-0.71,1.51,1.51,1.52
226.70,2.28,0.79,2.28,0.79,-0.79,-0.62,-0.71,1.49,1.49,1.49
228.96,2.23,0.76,2.23,0.76,-0.76,-0.58,-0.70,1.47,1.47,1.47
231.25,2.19,0.73,2.19,0.73,-0.73,-0.53,-0.70,1.46,1.46,1.46
233.57,2.14,0.70,2.14,0.70,-0.70,-0.49,-0.69,1.44,1.44,1.44
235.90,2.10,0.67,2.10,0.67,-0.67,-0.45,-0.68,1.43,1.43,1.43
238.26,2.06,0.64,2.06,0.64,-0.64,-0.41,-0.67,1.41,1.41,1.41
240.64,2.01,0.61,2.01,0.61,-0.62,-0.38,-0.66,1.40,1.40,1.40
243.05,1.97,0.58,1.97,0.58,-0.59,-0.34,-0.65,1.38,1.38,1.39
245.48,1.93,0.56,1.93,0.56,-0.56,-0.30,-0.64,1.37,1.37,1.37
247.93,1.88,0.53,1.88,0.53,-0.52,-0.26,-0.63,1.36,1.36,1.36
250.41,1.84,0.50,1.84,0.50,-0.49,-0.23,-0.61,1.35,1.35,1.34
252.92,1.80,0.46,1.80,0.46,-0.46,-0.19,-0.60,1.34,1.34,1.33
255.45,1.75,0.43,1.75,0.43,-0.42,-0.16,-0.58,1.33,1.33,1.32
258.00,1.70,0.39,1.70,0.39,-0.39,-0.12,-0.56,1.31,1.31,1.31
260.58,1.65,0.35,1.65,0.35,-0.35,-0.09,-0.54,1.30,1.30,1.30
263.19,1.60,0.31,1.60,0.31,-0.32,-0.05,-0.51,1.28,1.28,1.29
265.82,1.55,0.28,1.55,0.28,-0.28,-0.02,-0.49,1.27,1.27,1.27
268.48,1.51,0.25,1.51,0.25,-0.25,0.01,-0.47,1.25,1.25,1.26
271.16,1.46,0.22,1.46,0.22,-0.22,0.04,-0.44,1.25,1.24,1.24
273.87,1.42,0.19,1.42,0.19,-0.19,0.07,-0.41,1.24,1.24,1.23
276.61,1.38,0.16,1.38,0.16,-0.15,0.10,-0.38,1.22,1.22,1.22
279.38,1.33,0.12,1.33,0.12,-0.12,0.13,-0.35,1.21,1.21,1.21
282.17,1.29,0.09,1.29,0.09,-0.09,0.16,-0.32,1.20,1.20,1.20
284.99,1.25,0.05,1.25,0.05,-0.05,0.19,-0.29,1.19,1.20,1.20
287.84,1.20,0.01,1.20,0.01,-0.02,0.22,-0.26,1.19,1.19,1.19
290.72,1.16,-0.02,1.16,-0.02,0.02,0.25,-0.23,1.18,1.18,1.18
293.63,1.12,-0.06,1.12,-0.06,0.06,0.28,-0.19,1.17,1.17,1.17
296.57,1.07,-0.10,1.07,-0.09,0.10,0.31,-0.16,1.17,1.17,1.17
299.53,1.03,-0.13,1.03,-0.13,0.13,0.34,-0.12,1.16,1.16,1.16
302.53,0.98,-0.17,0.98,-0.17,0.17,0.37,-0.09,1.15,1.15,1.15
305.55,0.94,-0.21,0.94,-0.21,0.21,0.39,-0.05,1.15,1.15,1.15
308.61,0.89,-0.25,0.89,-0.25,0.25,0.42,-0.01,1.15,1.15,1.15
311.69,0.85,-0.29,0.85,-0.30,0.30,0.45,0.03,1.15,1.15,1.14
314.81,0.80,-0.34,0.80,-0.34,0.34,0.47,0.06,1.14,1.14,1.14
317.96,0.76,-0.38,0.76,-0.38,0.38,0.50,0.10,1.14,1.14,1.14
321.14,0.72,-0.43,0.72,-0.43,0.43,0.53,0.14,1.14,1.14,1.14
324.35,0.67,-0.47,0.67,-0.47,0.47,0.56,0.18,1.14,1.14,1.14
327.59,0.63,-0.51,0.63,-0.51,0.51,0.58,0.22,1.14,1.14,1.14
330.87,0.59,-0.55,0.59,-0.55,0.55,0.61,0.26,1.14,1.14,1.14
334.18,0.55,-0.59,0.55,-0.59,0.59,0.64,0.30,1.14,1.14,1.14
337.52,0.51,-0.63,0.51,-0.63,0.63,0.66,0.34,1.14,1.14,1.14
340.90,0.47,-0.67,0.47,-0.66,0.67,0.69,0.39,1.14,1.14,1.13
344.30,0.43,-0.70,0.43,-0.70,0.70,0.72,0.43,1.13,1.13,1.13
347.75,0.39,-0.74,0.39,-0.74,0.74,0.74,0.47,1.13,1.13,1.13
351.23,0.35,-0.77,0.35,-0.77,0.78,0.77,0.51,1.13,1.13,1.13
354.74,0.31,-0.81,0.31,-0.81,0.81,0.80,0.56,1.12,1.12,1.12
358.28,0.27,-0.85,0.27,-0.85,0.85,0.82,0.60,1.12,1.12,1.12
361.87,0.23,-0.89,0.23,-0.89,0.88,0.85,0.65,1.12,1.12,1.12
365.49,0.19,-0.92,0.19,-0.92,0.92,0.88,0.69,1.11,1.11,1.11
369.14,0.15,-0.96,0.15,-0.96,0.96,0.90,0.74,1.11,1.11,1.11
372.83,0.12,-0.99,0.12,-0.99,0.99,0.93,0.78,1.11,1.11,1.11
376.56,0.08,-1.03,0.08,-1.03,1.03,0.96,0.83,1.11,1.11,1.10
380.33,0.04,-1.06,0.04,-1.06,1.06,0.99,0.87,1.10,1.10,1.10
384.13,-0.00,-1.10,-0.00,-1.10,1.10,1.02,0.92,1.10,1.10,1.10
387.97,-0.04,-1.13,-0.04,-1.13,1.14,1.04,0.97,1.09,1.09,1.09
391.85,-0.08,-1.17,-0.08,-1.17,1.17,1.07,1.01,1.09,1.09,1.09
395.77,-0.13,-1.21,-0.13,-1.21,1.21,1.10,1.06,1.08,1.08,1.08
399.73,-0.17,-1.24,-0.16,-1.24,1.24,1.13,1.11,1.07,1.07,1.08
403.72,-0.20,-1.27,-0.20,-1.27,1.27,1.16,1.15,1.07,1.07,1.07
407.76,-0.24,-1.30,-0.24,-1.30,1.30,1.19,1.20,1.06,1.06,1.06
411.84,-0.27,-1.33,-0.27,-1.33,1.33,1.22,1.25,1.06,1.06,1.06
415.96,-0.30,-1.35,-0.30,-1.36,1.36,1.25,1.29,1.05,1.05,1.05
420.12,-0.33,-1.38,-0.33,-1.38,1.38,1.28,1.34,1.05,1.05,1.05
424.32,-0.36,-1.41,-0.36,-1.41,1.41,1.31,1.39,1.04,1.04,1.04
428.56,-0.39,-1.43,-0.39,-1.43,1.43,1.34,1.43,1.04,1.04,1.04
432.85,-0.42,-1.45,-0.42,-1.45,1.45,1.37,1.48,1.03,1.03,1.03
437.18,-0.44,-1.47,-0.44,-1.47,1.47,1.40,1.52,1.03,1.03,1.03
441.55,-0.46,-1.49,-0.46,-1.49,1.48,1.43,1.56,1.03,1.03,1.03
445.96,-0.48,-1.50,-0.48,-1.50,1.50,1.46,1.60,1.02,1.02,1.03
450.42,-0.49,-1.52,-0.49,-1.52,1.51,1.49,1.64,1.02,1.02,1.02
454.93,-0.51,-1.53,-0.51,-1.53,1.53,1.52,1.68,1.02,1.02,1.02
459.48,-0.52,-1.54,-0.52,-1.54,1.54,1.55,1.72,1.02,1.02,1.02
464.07,-0.54,-1.55,-0.54,-1.55,1.56,1.58,1.75,1.02,1.02,1.01
468.71,-0.56,-1.57,-0.56,-1.57,1.57,1.61,1.78,1.02,1.01,1.01
473.40,-0.58,-1.59,-0.58,-1.59,1.59,1.63,1.81,1.01,1.01,1.01
478.13,-0.61,-1.61,-0.61,-1.61,1.61,1.66,1.84,1.00,1.00,1.00
482.91,-0.64,-1.63,-0.64,-1.63,1.63,1.69,1.87,1.00,1.00,1.00
487.74,-0.66,-1.66,-0.66,-1.66,1.66,1.72,1.89,0.99,0.99,0.99
492.62,-0.69,-1.68,-0.69,-1.68,1.68,1.74,1.91,0.99,0.99,0.99
497.55,-0.72,-1.70,-0.72,-1.70,1.70,1.77,1.93,0.98,0.98,0.99
502.52,-0.74,-1.73,-0.74,-1.73,1.72,1.80,1.94,0.98,0.98,0.98
507.55,-0.77,-1.75,-0.77,-1.75,1.75,1.82,1.96,0.98,0.98,0.98
512.62,-0.80,-1.77,-0.80,-1.77,1.77,1.84,1.97,0.97,0.97,0.97
517.75,-0.82,-1.79,-0.82,-1.79,1.79,1.86,1.97,0.97,0.97,0.97
522.93,-0.84,-1.81,-0.84,-1.81,1.80,1.89,1.98,0.96,0.96,0.96
528.16,-0.87,-1.82,-0.87,-1.82,1.82,1.90,1.98,0.95,0.96,0.96
533.44,-0.89,-1.84,-0.89,-1.84,1.84,1.92,1.98,0.95,0.95,0.95
538.77,-0.91,-1.86,-0.91,-1.85,1.85,1.94,1.98,0.95,0.95,0.95
544.16,-0.93,-1.87,-0.93,-1.87,1.87,1.96,1.98,0.94,0.94,0.94
