frequency,raw,error,smoothed,error_smoothed,equalization,parametric_eq,fixed_band_eq,equalized_raw,equalized_smoothed,target
20.00,12.21,2.37,12.21,2.37,-2.37,-2.35,-1.06,9.85,9.85,9.84
20.20,12.22,2.37,12.22,2.37,-2.37,-2.38,-1.09,9.85,9.85,9.85
20.40,12.22,2.36,12.22,2.36,-2.36,-2.41,-1.12,9.86,9.85,9.86
20.61,12.22,2.36,12.23,2.36,-2.37,-2.43,-1.16,9.86,9.86,9.86
20.81,12.23,2.36,12.23,2.36,-2.37,-2.45,-1.19,9.87,9.87,9.87
21.02,12.24,2.36,12.24,2.36,-2.37,-2.46,-1.23,9.87,9.87,9.88
21.23,12.25,2.37,12.25,2.37,-2.37,-2.46,-1.26,9.88,9.88,9.88
21.44,12.26,2.37,12.26,2.37,-2.37,-2.46,-1.30,9.89,9.89,9.89
21.66,12.27,2.38,12.27,2.38,-2.38,-2.45,-1.34,9.89,9.89,9.89
21.87,12.28,2.38,12.28,2.38,-2.38,-2.43,-1.38,9.90,9.90,9.90
22.09,12.29,2.39,12.29,2.39,-2.39,-2.40,-1.42,9.91,9.91,9.90
22.31,12.31,2.39,12.31,2.39,-2.39,-2.38,-1.46,9.91,9.91,9.91
22.54,12.32,2.40,12.32,2.40,-2.40,-2.35,-1.50,9.92,9.92,9.92
22.76,12.33,2.40,12.33,2.40,-2.40,-2.33,-1.55,9.93,9.93,9.93
22.99,12.34,2.40,12.34,2.40,-2.40,-2.31,-1.59,9.94,9.94,9.94
23.22,12.35,2.40,12.35,2.40,-2.40,-2.30,-1.64,9.95,9.95,9.95
23.45,12.36,2.40,12.36,2.40,-2.40,-2.30,-1.68,9.96,9.96,9.96
23.69,12.37,2.41,12.37,2.41,-2.41,-2.31,-1.73,9.96,9.96,9.96
23.92,12.38,2.41,12.38,2.41,-2.41,-2.32,-1.78,9.97,9.97,9.97
24.16,12.39,2.41,12.39,2.41,-2.41,-2.35,-1.83,9.97,9.97,9.97
24.40,12.39,2.42,12.39,2.42,-2.42,-2.38,-1.88,9.97,9.98,9.98
24.65,12.40,2.42,12.40,2.42,-2.42,-2.41,-1.93,9.98,9.98,9.98
24.89,12.41,2.43,12.41,2.43,-2.43,-2.44,-1.98,9.98,9.98,9.98
25.14,12.41,2.44,12.41,2.44,-2.44,-2.46,-2.03,9.98,9.98,9.98
25.39,12.42,2.44,12.42,2.44,-2.44,-2.49,-2.09,9.98,9.98,9.98
25.65,12.43,2.45,12.43,2.45,-2.45,-2.51,-2.14,9.98,9.98,9.98
25.91,12.44,2.46,12.44,2.46,-2.45,-2.53,-2.19,9.98,9.98,9.98
26.16,12.44,2.46,12.44,2.46,-2.46,-2.54,-2.24,9.98,9.98,9.98
26.43,12.45,2.46,12.45,2.46,-2.46,-2.55,-2.29,9.99,9.99,9.99
26.69,12.45,2.46,12.45,2.46,-2.46,-2.55,-2.35,9.99,9.99,9.99
26.96,12.46,2.46,12.46,2.46,-2.46,-2.55,-2.40,10.00,10.00,10.00
27.23,12.46,2.46,12.46,2.46,-2.46,-2.55,-2.44,10.00,10.00,10.01
27.50,12.47,2.46,12.47,2.46,-2.46,-2.54,-2.49,10.01,10.01,10.01
27.77,12.47,2.46,12.47,2.46,-2.46,-2.54,-2.54,10.01,10.01,10.01
28.05,12.47,2.46,12.47,2.46,-2.46,-2.53,-2.58,10.01,10.01,10.02
28.33,12.48,2.46,12.48,2.46,-2.46,-2.52,-2.63,10.01,10.01,10.01
28.62,12.48,2.46,12.48,2.46,-2.47,-2.51,-2.67,10.01,10.01,10.01
28.90,12.48,2.47,12.48,2.47,-2.47,-2.50,-2.70,10.01,10.01,10.01
29.19,12.48,2.47,12.48,2.47,-2.47,-2.49,-2.74,10.01,10.01,10.01
29.48,12.48,2.47,12.48,2.47,-2.47,-2.48,-2.77,10.02,10.02,10.01
29.78,12.49,2.47,12.49,2.47,-2.46,-2.47,-2.80,10.02,10.02,10.02
30.08,12.49,2.47,12.49,2.46,-2.46,-2.47,-2.82,10.03,10.03,10.03
30.38,12.49,2.46,12.49,2.46,-2.46,-2.46,-2.85,10.03,10.03,10.03
30.68,12.49,2.45,12.49,2.45,-2.46,-2.45,-2.86,10.03,10.03,10.04
30.99,12.49,2.45,12.49,2.45,-2.46,-2.44,-2.88,10.04,10.04,10.04
31.30,12.49,2.45,12.49,2.45,-2.46,-2.43,-2.89,10.04,10.04,10.04
31.61,12.49,2.45,12.49,2.45,-2.45,-2.43,-2.89,10.04,10.04,10.04
31.93,12.49,2.46,12.49,2.46,-2.45,-2.42,-2.90,10.04,10.04,10.03
32.24,12.49,2.46,12.49,2.46,-2.45,-2.41,-2.90,10.04,10.04,10.03
32.57,12.50,2.46,12.50,2.46,-2.45,-2.41,-2.89,10.04,10.04,10.04
32.89,12.50,2.45,12.50,2.45,-2.45,-2.40,-2.88,10.04,10.04,10.04
33.22,12.50,2.45,12.50,2.45,-2.45,-2.40,-2.87,10.04,10.04,10.05
33.55,12.50,2.44,12.50,2.45,-2.45,-2.40,-2.86,10.04,10.04,10.05
33.89,12.49,2.45,12.50,2.45,-2.45,-2.39,-2.84,10.04,10.04,10.05
34.23,12.50,2.45,12.50,2.45,-2.45,-2.39,-2.82,10.04,10.04,10.04
34.57,12.50,2.46,12.50,2.46,-2.46,-2.39,-2.80,10.04,10.04,10.04
34.92,12.50,2.46,12.50,2.46,-2.46,-2.39,-2.77,10.04,10.04,10.03
35.27,12.50,2.46,12.50,2.46,-2.46,-2.39,-2.75,10.04,10.04,10.04
35.62,12.50,2.46,12.50,2.46,-2.46,-2.39,-2.72,10.04,10.04,10.04
35.97,12.49,2.45,12.49,2.45,-2.45,-2.38,-2.69,10.04,10.04,10.04
36.33,12.49,2.45,12.49,2.45,-2.45,-2.38,-2.66,10.04,10.04,10.04
36.70,12.48,2.44,12.48,2.44,-2.44,-2.38,-2.63,10.04,10.04,10.04
37.06,12.48,2.44,12.48,2.44,-2.44,-2.38,-2.60,10.04,10.04,10.04
37.43,12.47,2.43,12.47,2.43,-2.43,-2.38,-2.57,10.04,10.04,10.04
37.81,12.47,2.43,12.47,2.43,-2.43,-2.38,-2.54,10.04,10.04,10.04
38.19,12.46,2.42,12.46,2.42,-2.43,-2.38,-2.51,10.03,10.03,10.04
38.57,12.46,2.42,12.46,2.42,-2.43,-2.38,-2.48,10.03,10.03,10.03
38.95,12.45,2.43,12.45,2.43,-2.42,-2.38,-2.45,10.03,10.03,10.02
39.34,12.45,2.43,12.45,2.43,-2.42,-2.38,-2.42,10.03,10.03,10.02
39.74,12.44,2.43,12.44,2.42,-2.42,-2.38,-2.39,10.02,10.02,10.01
40.14,12.43,2.41,12.43,2.41,-2.41,-2.38,-2.37,10.02,10.02,10.02
40.54,12.43,2.40,12.43,2.40,-2.41,-2.38,-2.34,10.02,10.02,10.03
40.94,12.42,2.39,12.42,2.39,-2.40,-2.38,-2.32,10.02,10.02,10.03
41.35,12.41,2.39,12.41,2.39,-2.39,-2.38,-2.29,10.02,10.02,10.03
41.76,12.41,2.39,12.41,2.39,-2.39,-2.38,-2.27,10.02,10.02,10.02
42.18,12.40,2.39,12.40,2.38,-2.38,-2.38,-2.25,10.02,10.02,10.02
42.60,12.40,2.38,12.40,2.38,-2.38,-2.38,-2.23,10.02,10.02,10.02
43.03,12.39,2.37,12.39,2.37,-2.38,-2.38,-2.22,10.01,10.01,10.02
43.46,12.38,2.37,12.38,2.37,-2.38,-2.38,-2.20,10.00,10.00,10.01
43.90,12.37,2.37,12.37,2.37,-2.37,-2.38,-2.19,10.00,10.00,10.00
44.33,12.36,2.38,12.36,2.38,-2.37,-2.37,-2.17,10.00,10.00,9.98
44.78,12.35,2.37,12.35,2.37,-2.36,-2.37,-2.16,9.99,9.99,9.98
45.23,12.34,2.36,12.34,2.36,-2.35,-2.37,-2.16,9.99,9.99,9.99
45.68,12.34,2.34,12.34,2.34,-2.34,-2.37,-2.15,9.99,9.99,10.00
46.13,12.33,2.33,12.33,2.33,-2.34,-2.36,-2.14,9.99,9.99,10.00
46.60,12.32,2.32,12.32,2.32,-2.33,-2.36,-2.14,9.99,9.99,9.99
47.06,12.31,2.32,12.31,2.31,-2.32,-2.36,-2.14,9.99,9.99,9.99
47.53,12.30,2.31,12.30,2.31,-2.31,-2.35,-2.14,9.99,9.99,9.99
48.01,12.29,2.30,12.29,2.30,-2.30,-2.35,-2.14,9.99,9.99,9.99
48.49,12.28,2.30,12.28,2.30,-2.30,-2.34,-2.14,9.98,9.98,9.98
48.97,12.27,2.30,12.27,2.29,-2.29,-2.34,-2.15,9.97,9.98,9.97
49.46,12.25,2.29,12.25,2.29,-2.29,-2.33,-2.15,9.97,9.97,9.96
49.96,12.24,2.28,12.24,2.28,-2.28,-2.33,-2.16,9.96,9.96,9.96
50.46,12.23,2.27,12.23,2.27,-2.28,-2.32,-2.16,9.95,9.95,9.96
50.96,12.22,2.26,12.22,2.27,-2.27,-2.32,-2.17,9.95,9.95,9.95
51.47,12.20,2.26,12.20,2.26,-2.27,-2.31,-2.18,9.94,9.94,9.94
51.99,12.19,2.26,12.19,2.26,-2.26,-2.30,-2.19,9.93,9.93,9.93
52.51,12.18,2.26,12.18,2.26,-2.25,-2.29,-2.20,9.93,9.93,9.92
53.03,12.17,2.25,12.17,2.25,-2.25,-2.29,-2.21,9.92,9.92,9.92
53.56,12.15,2.24,12.15,2.24,-2.24,-2.28,-2.22,9.91,9.91,9.91
54.10,12.14,2.23,12.14,2.23,-2.23,-2.27,-2.23,9.91,9.91,9.91
54.64,12.13,2.22,12.13,2.22,-2.22,-2.26,-2.25,9.90,9.90,9.90
55.18,12.11,2.21,12.11,2.21,-2.21,-2.25,-2.26,9.90,9.90,9.90
55.74,12.10,2.20,12.10,2.20,-2.20,-2.24,-2.27,9.89,9.89,9.89
56.29,12.08,2.19,12.08,2.19,-2.19,-2.23,-2.28,9.89,9.89,9.89
56.86,12.06,2.18,12.06,2.18,-2.18,-2.22,-2.28,9.88,9.88,9.88
57.42,12.05,2.17,12.05,2.17,-2.17,-2.21,-2.29,9.87,9.87,9.88
58.00,12.03,2.16,12.03,2.16,-2.16,-2.20,-2.30,9.87,9.87,9.87
58.58,12.01,2.15,12.01,2.15,-2.15,-2.19,-2.30,9.86,9.86,9.86
59.16,12.00,2.15,12.00,2.15,-2.14,-2.18,-2.31,9.86,9.86,9.85
59.76,11.98,2.14,11.98,2.13,-2.13,-2.17,-2.31,9.85,9.85,9.84
60.35,11.96,2.12,11.96,2.12,-2.12,-2.15,-2.31,9.84,9.84,9.84
60.96,11.94,2.10,11.94,2.11,-2.11,-2.14,-2.31,9.83,9.83,9.84
61.57,11.93,2.09,11.93,2.10,-2.10,-2.13,-2.30,9.82,9.82,9.83
62.18,11.91,2.09,11.91,2.09,-2.09,-2.12,-2.30,9.81,9.81,9.81
62.80,11.89,2.09,11.89,2.09,-2.08,-2.10,-2.29,9.80,9.80,9.80
63.43,11.87,2.08,11.87,2.08,-2.08,-2.09,-2.28,9.79,9.79,9.79
64.07,11.85,2.07,11.85,2.07,-2.07,-2.08,-2.26,9.78,9.78,9.78
64.71,11.83,2.06,11.83,2.06,-2.06,-2.06,-2.25,9.77,9.77,9.77
65.35,11.81,2.05,11.81,2.05,-2.05,-2.05,-2.23,9.76,9.76,9.76
66.01,11.79,2.03,11.79,2.03,-2.03,-2.04,-2.22,9.75,9.75,9.75
66.67,11.76,2.02,11.76,2.02,-2.02,-2.02,-2.20,9.74,9.74,9.74
67.33,11.74,2.01,11.74,2.01,-2.01,-2.01,-2.17,9.73,9.73,9.73
68.01,11.72,2.00,11.72,2.00,-2.00,-2.00,-2.15,9.72,9.72,9.72
68.69,11.69,1.98,11.69,1.98,-1.98,-1.98,-2.13,9.71,9.71,9.71
69.37,11.67,1.97,11.67,1.97,-1.97,-1.97,-2.10,9.70,9.70,9.70
70.07,11.65,1.95,11.65,1.95,-1.96,-1.95,-2.07,9.69,9.69,9.69
70.77,11.62,1.94,11.62,1.94,-1.94,-1.94,-2.05,9.68,9.68,9.68
71.48,11.60,1.93,11.60,1.93,-1.93,-1.92,-2.02,9.67,9.67,9.67
72.19,11.57,1.92,11.57,1.92,-1.92,-1.91,-1.99,9.65,9.65,9.65
72.91,11.55,1.90,11.55,1.90,-1.90,-1.89,-1.96,9.64,9.64,9.64
73.64,11.52,1.89,11.52,1.89,-1.89,-1.88,-1.93,9.63,9.63,9.63
74.38,11.49,1.88,11.49,1.88,-1.88,-1.86,-1.90,9.62,9.62,9.61
75.12,11.47,1.87,11.47,1.86,-1.86,-1.85,-1.87,9.60,9.60,9.60
75.87,11.44,1.85,11.44,1.85,-1.85,-1.84,-1.84,9.59,9.59,9.59
76.63,11.41,1.84,11.41,1.84,-1.83,-1.82,-1.81,9.57,9.57,9.57
77.40,11.38,1.82,11.38,1.82,-1.82,-1.81,-1.78,9.56,9.56,9.56
78.17,11.35,1.81,11.35,1.81,-1.81,-1.79,-1.75,9.54,9.54,9.54
78.95,11.32,1.79,11.32,1.79,-1.79,-1.78,-1.72,9.53,9.53,9.53
79.74,11.30,1.78,11.30,1.78,-1.78,-1.76,-1.70,9.51,9.52,9.52
80.54,11.27,1.77,11.27,1.77,-1.77,-1.75,-1.67,9.50,9.50,9.50
81.35,11.25,1.76,11.25,1.76,-1.76,-1.74,-1.64,9.49,9.49,9.49
82.16,11.22,1.75,11.22,1.75,-1.75,-1.72,-1.62,9.47,9.47,9.47
82.98,11.20,1.74,11.20,1.74,-1.74,-1.71,-1.60,9.45,9.45,9.45
83.81,11.17,1.74,11.17,1.74,-1.74,-1.69,-1.57,9.44,9.44,9.44
84.65,11.15,1.73,11.15,1.73,-1.73,-1.68,-1.55,9.42,9.42,9.42
85.50,11.12,1.73,11.12,1.72,-1.72,-1.67,-1.53,9.40,9.40,9.40
86.35,11.10,1.72,11.10,1.72,-1.72,-1.65,-1.51,9.38,9.38,9.38
87.22,11.07,1.71,11.07,1.71,-1.71,-1.64,-1.49,9.36,9.36,9.37
88.09,11.05,1.70,11.05,1.70,-1.70,-1.63,-1.47,9.35,9.35,9.34
88.97,11.02,1.70,11.02,1.69,-1.69,-1.62,-1.46,9.33,9.33,9.32
89.86,10.99,1.68,10.99,1.68,-1.68,-1.60,-1.44,9.31,9.31,9.31
90.76,10.96,1.67,10.96,1.67,-1.67,-1.59,-1.43,9.29,9.29,9.29
91.66,10.93,1.66,10.93,1.66,-1.66,-1.58,-1.41,9.27,9.27,9.26
92.58,10.89,1.65,10.89,1.65,-1.65,-1.57,-1.40,9.24,9.24,9.24
93.51,10.86,1.64,10.86,1.64,-1.64,-1.56,-1.39,9.22,9.22,9.22
94.44,10.82,1.62,10.82,1.62,-1.62,-1.55,-1.38,9.20,9.20,9.20
95.39,10.79,1.61,10.79,1.61,-1.61,-1.54,-1.37,9.18,9.18,9.18
96.34,10.75,1.60,10.75,1.60,-1.60,-1.53,-1.36,9.15,9.15,9.15
97.30,10.72,1.59,10.72,1.59,-1.59,-1.51,-1.35,9.13,9.13,9.13
98.28,10.68,1.57,10.68,1.57,-1.57,-1.51,-1.35,9.11,9.11,9.10
99.26,10.64,1.56,10.64,1.56,-1.56,-1.50,-1.34,9.08,9.08,9.08
100.25,10.60,1.55,10.60,1.55,-1.55,-1.49,-1.34,9.05,9.05,9.06
101.25,10.56,1.54,10.56,1.53,-1.53,-1.48,-1.33,9.03,9.03,9.02
102.27,10.52,1.52,10.52,1.52,-1.52,-1.47,-1.33,9.00,9.00,9.00
103.29,10.48,1.50,10.48,1.50,-1.50,-1.46,-1.33,8.97,8.97,8.97
104.32,10.43,1.49,10.43,1.49,-1.49,-1.45,-1.33,8.94,8.94,8.94
105.37,10.39,1.48,10.39,1.47,-1.47,-1.45,-1.33,8.91,8.92,8.91
106.42,10.34,1.46,10.34,1.46,-1.46,-1.44,-1.33,8.89,8.89,8.89
107.48,10.30,1.44,10.30,1.44,-1.44,-1.43,-1.33,8.86,8.86,8.86
108.56,10.25,1.42,10.25,1.42,-1.43,-1.43,-1.33,8.83,8.83,8.83
109.64,10.20,1.41,10.20,1.41,-1.41,-1.42,-1.33,8.79,8.80,8.79
110.74,10.15,1.39,10.15,1.39,-1.39,-1.42,-1.33,8.76,8.76,8.76
111.85,10.10,1.37,10.09,1.37,-1.37,-1.41,-1.34,8.73,8.73,8.73
112.97,10.04,1.34,10.04,1.35,-1.34,-1.41,-1.34,8.69,8.69,8.69
114.10,9.98,1.32,9.98,1.32,-1.32,-1.40,-1.34,8.66,8.66,8.66
115.24,9.92,1.30,9.92,1.30,-1.30,-1.40,-1.35,8.62,8.62,8.62
116.39,9.86,1.27,9.86,1.27,-1.27,-1.40,-1.35,8.59,8.59,8.59
117.55,9.80,1.25,9.80,1.25,-1.25,-1.40,-1.35,8.55,8.55,8.55
118.73,9.74,1.23,9.74,1.23,-1.22,-1.39,-1.36,8.51,8.51,8.51
119.92,9.68,1.21,9.68,1.21,-1.21,-1.39,-1.36,8.47,8.47,8.47
121.12,9.63,1.19,9.63,1.19,-1.20,-1.39,-1.37,8.43,8.43,8.44
122.33,9.58,1.18,9.58,1.19,-1.19,-1.39,-1.37,8.39,8.39,8.40
123.55,9.54,1.19,9.54,1.19,-1.20,-1.39,-1.38,8.34,8.34,8.35
124.79,9.51,1.20,9.51,1.20,-1.21,-1.39,-1.38,8.30,8.30,8.31
126.03,9.49,1.23,9.49,1.23,-1.24,-1.40,-1.38,8.26,8.26,8.27
127.29,9.48,1.26,9.48,1.26,-1.26,-1.40,-1.39,8.22,8.22,8.22
128.57,9.48,1.30,9.48,1.30,-1.30,-1.40,-1.39,8.18,8.18,8.18
129.85,9.47,1.34,9.47,1.34,-1.33,-1.40,-1.40,8.14,8.14,8.13
131.15,9.47,1.37,9.46,1.37,-1.36,-1.41,-1.40,8.10,8.10,8.09
132.46,9.45,1.41,9.45,1.40,-1.40,-1.41,-1.41,8.06,8.05,8.05
133.79,9.43,1.42,9.43,1.43,-1.42,-1.42,-1.41,8.01,8.01,8.01
135.12,9.40,1.45,9.40,1.45,-1.44,-1.43,-1.42,7.95,7.95,7.95
136.48,9.36,1.47,9.36,1.46,-1.46,-1.43,-1.42,7.90,7.90,7.90
137.84,9.32,1.48,9.32,1.48,-1.48,-1.44,-1.43,7.85,7.85,7.84
139.22,9.28,1.49,9.28,1.49,-1.49,-1.45,-1.43,7.79,7.79,7.79
140.61,9.23,1.50,9.23,1.49,-1.50,-1.46,-1.44,7.74,7.74,7.74
142.02,9.19,1.50,9.19,1.50,-1.51,-1.47,-1.45,7.68,7.68,7.69
143.44,9.14,1.51,9.14,1.51,-1.52,-1.48,-1.46,7.63,7.63,7.63
144.87,9.10,1.52,9.10,1.52,-1.53,-1.49,-1.46,7.57,7.57,7.57
146.32,9.05,1.54,9.05,1.54,-1.54,-1.51,-1.47,7.51,7.51,7.52
147.78,9.01,1.55,9.01,1.55,-1.56,-1.52,-1.48,7.46,7.46,7.46
149.26,8.97,1.57,8.97,1.57,-1.57,-1.54,-1.49,7.40,7.40,7.40
150.75,8.94,1.60,8.94,1.60,-1.60,-1.55,-1.51,7.34,7.34,7.34
152.26,8.90,1.62,8.90,1.62,-1.62,-1.57,-1.52,7.28,7.28,7.28
153.78,8.86,1.64,8.86,1.64,-1.64,-1.59,-1.53,7.22,7.22,7.22
155.32,8.82,1.66,8.82,1.66,-1.66,-1.61,-1.55,7.15,7.15,7.15
156.88,8.78,1.69,8.78,1.69,-1.69,-1.63,-1.56,7.09,7.09,7.09
158.44,8.73,1.71,8.73,1.71,-1.71,-1.65,-1.58,7.02,7.02,7.02
160.03,8.69,1.74,8.69,1.74,-1.73,-1.67,-1.60,6.96,6.96,6.95
161.63,8.65,1.76,8.65,1.76,-1.76,-1.69,-1.62,6.89,6.89,6.89
163.24,8.60,1.78,8.60,1.78,-1.78,-1.71,-1.64,6.82,6.82,6.82
164.88,8.55,1.80,8.55,1.80,-1.80,-1.74,-1.66,6.75,6.75,6.76
166.53,8.50,1.82,8.50,1.82,-1.82,-1.76,-1.68,6.68,6.69,6.69
168.19,8.45,1.84,8.45,1.84,-1.84,-1.79,-1.71,6.62,6.62,6.62
169.87,8.40,1.86,8.40,1.86,-1.86,-1.82,-1.73,6.54,6.54,6.54
171.57,8.35,1.88,8.35,1.88,-1.88,-1.84,-1.76,6.47,6.47,6.47
173.29,8.30,1.90,8.30,1.90,-1.90,-1.87,-1.79,6.40,6.40,6.40
175.02,8.24,1.92,8.24,1.92,-1.92,-1.90,-1.82,6.32,6.32,6.33
176.77,8.19,1.94,8.19,1.94,-1.94,-1.93,-1.85,6.25,6.25,6.25
178.54,8.13,1.96,8.13,1.96,-1.96,-1.96,-1.89,6.17,6.17,6.17
180.32,8.08,1.99,8.08,1.98,-1.98,-1.98,-1.92,6.10,6.10,6.09
182.13,8.02,2.00,8.02,2.00,-2.00,-2.01,-1.96,6.02,6.02,6.02
183.95,7.96,2.02,7.96,2.02,-2.02,-2.04,-2.00,5.94,5.94,5.94
185.79,7.91,2.04,7.91,2.04,-2.05,-2.07,-2.03,5.86,5.86,5.86
187.65,7.85,2.07,7.85,2.07,-2.07,-2.10,-2.07,5.78,5.78,5.79
189.52,7.79,2.09,7.79,2.09,-2.09,-2.13,-2.12,5.70,5.70,5.70
191.42,7.73,2.11,7.73,2.11,-2.11,-2.15,-2.16,5.62,5.62,5.62
193.33,7.67,2.13,7.67,2.13,-2.13,-2.18,-2.20,5.54,5.54,5.54
195.27,7.62,2.15,7.62,2.15,-2.15,-2.21,-2.25,5.46,5.46,5.46
197.22,7.56,2.17,7.56,2.17,-2.18,-2.23,-2.29,5.38,5.38,5.38
199.19,7.50,2.20,7.50,2.20,-2.20,-2.26,-2.34,5.30,5.30,5.30
201.18,7.44,2.22,7.44,2.22,-2.22,-2.28,-2.39,5.22,5.22,5.22
203.19,7.38,2.25,7.38,2.24,-2.24,-2.30,-2.43,5.13,5.13,5.13
205.23,7.32,2.27,7.32,2.27,-2.27,-2.32,-2.48,5.05,5.05,5.05
207.28,7.26,2.29,7.26,2.29,-2.29,-2.34,-2.53,4.97,4.97,4.97
209.35,7.20,2.32,7.20,2.32,-2.32,-2.36,-2.57,4.88,4.88,4.88
211.44,7.14,2.34,7.14,2.34,-2.34,-2.38,-2.62,4.80,4.80,4.80
213.56,7.08,2.36,7.08,2.37,-2.37,-2.40,-2.67,4.72,4.72,4.72
215.69,7.02,2.39,7.02,2.39,-2.39,-2.42,-2.71,4.63,4.63,4.63
217.85,6.97,2.42,6.97,2.41,-2.41,-2.43,-2.76,4.55,4.55,4.55
220.03,6.91,2.44,6.91,2.44,-2.44,-2.45,-2.80,4.47,4.47,4.47
222.23,6.85,2.46,6.85,2.46,-2.46,-2.47,-2.84,4.39,4.39,4.39
224.45,6.79,2.49,6.79,2.49,-2.49,-2.48,-2.88,4.31,4.31,4.31
226.70,6.73,2.51,6.73,2.51,-2.51,-2.50,-2.91,4.22,4.22,4.22
228.96,6.67,2.53,6.67,2.53,-2.53,-2.51,-2.94,4.14,4.14,4.14
231.25,6.61,2.55,6.61,2.55,-2.55,-2.53,-2.97,4.06,4.06,4.06
233.57,6.55,2.57,6.55,2.57,-2.57,-2.54,-3.00,3.98,3.98,3.98
235.90,6.48,2.59,6.48,2.59,-2.59,-2.55,-3.02,3.90,3.90,3.89
238.26,6.42,2.60,6.42,2.60,-2.60,-2.57,-3.04,3.82,3.82,3.82
240.64,6.35,2.61,6.35,2.61,-2.61,-2.58,-3.05,3.74,3.74,3.74
243.05,6.28,2.62,6.28,2.62,-2.62,-2.60,-3.06,3.66,3.66,3.66
245.48,6.22,2.63,6.22,2.63,-2.63,-2.61,-3.07,3.59,3.59,3.58
247.93,6.15,2.64,6.15,2.64,-2.64,-2.62,-3.07,3.51,3.51,3.51
250.41,6.08,2.64,6.08,2.64,-2.64,-2.63,-3.06,3.44,3.44,3.44
252.92,6.01,2.65,6.01,2.65,-2.65,-2.65,-3.05,3.36,3.36,3.36
255.45,5.95,2.66,5.95,2.66,-2.66,-2.66,-3.04,3.29,3.29,3.29
258.00,5.89,2.67,5.89,2.67,-2.67,-2.67,-3.02,3.22,3.22,3.22
260.58,5.83,2.68,5.83,2.68,-2.68,-2.68,-3.00,3.15,3.15,3.15
263.19,5.78,2.69,5.78,2.69,-2.70,-2.69,-2.97,3.08,3.08,3.08
265.82,5.73,2.71,5.73,2.71,-2.71,-2.70,-2.94,3.02,3.02,3.02
268.48,5.68,2.72,5.68,2.72,-2.73,-2.70,-2.90,2.96,2.96,2.96
271.16,5.64,2.74,5.64,2.74,-2.74,-2.71,-2.86,2.90,2.90,2.90
273.87,5.59,2.76,5.59,2.76,-2.75,-2.71,-2.82,2.84,2.84,2.83
276.61,5.54,2.77,5.54,2.77,-2.76,-2.72,-2.77,2.78,2.78,2.77
279.38,5.49,2.78,5.49,2.77,-2.77,-2.72,-2.72,2.72,2.72,2.71
282.17,5.43,2.77,5.43,2.77,-2.77,-2.72,-2.67,2.66,2.66,2.66
284.99,5.37,2.76,5.37,2.77,-2.77,-2.72,-2.62,2.61,2.61,2.61
287.84,5.31,2.76,5.31,2.76,-2.76,-2.71,-2.56,2.55,2.56,2.56
290.72,5.25,2.75,5.25,2.75,-2.75,-2.71,-2.51,2.50,2.50,2.50
293.63,5.19,2.73,5.19,2.73,-2.73,-2.70,-2.45,2.46,2.46,2.46
296.57,5.12,2.71,5.12,2.71,-2.71,-2.69,-2.39,2.41,2.41,2.41
299.53,5.06,2.69,5.06,2.69,-2.69,-2.68,-2.33,2.36,2.36,2.36
302.53,4.99,2.67,4.99,2.67,-2.67,-2.66,-2.26,2.32,2.32,2.32
305.55,4.93,2.64,4.93,2.65,-2.65,-2.65,-2.20,2.28,2.28,2.28
308.61,4.86,2.62,4.86,2.62,-2.62,-2.63,-2.14,2.24,2.24,2.24
311.69,4.79,2.60,4.79,2.60,-2.60,-2.61,-2.08,2.20,2.20,2.20
314.81,4.73,2.57,4.73,2.57,-2.57,-2.58,-2.02,2.16,2.16,2.16
317.96,4.66,2.54,4.66,2.54,-2.54,-2.55,-1.96,2.13,2.13,2.12
321.14,4.60,2.51,4.60,2.51,-2.51,-2.53,-1.90,2.09,2.09,2.09
324.35,4.53,2.47,4.53,2.47,-2.47,-2.49,-1.84,2.06,2.06,2.06
327.59,4.47,2.44,4.47,2.44,-2.44,-2.46,-1.78,2.03,2.03,2.03
330.87,4.40,2.40,4.40,2.40,-2.40,-2.43,-1.72,2.00,2.00,2.00
334.18,4.34,2.36,4.34,2.36,-2.36,-2.39,-1.66,1.98,1.98,1.97
337.52,4.27,2.32,4.27,2.32,-2.32,-2.35,-1.60,1.95,1.95,1.95
340.90,4.21,2.28,4.21,2.28,-2.28,-2.31,-1.55,1.93,1.93,1.93
344.30,4.14,2.24,4.14,2.23,-2.24,-2.26,-1.49,1.91,1.91,1.91
347.75,4.08,2.19,4.08,2.19,-2.19,-2.22,-1.44,1.89,1.89,1.89
351.23,4.01,2.15,4.01,2.15,-2.14,-2.17,-1.39,1.87,1.87,1.87
354.74,3.95,2.10,3.95,2.09,-2.10,-2.12,-1.34,1.85,1.85,1.85
358.28,3.89,2.04,3.89,2.04,-2.05,-2.07,-1.29,1.84,1.84,1.84
361.87,3.82,1.99,3.82,1.99,-2.00,-2.02,-1.24,1.82,1.82,1.83
365.49,3.76,1.95,3.76,1.95,-1.95,-1.96,-1.19,1.81,1.81,1.81
369.14,3.69,1.90,3.69,1.90,-1.90,-1.91,-1.14,1.80,1.80,1.79
372.83,3.63,1.84,3.63,1.84,-1.84,-1.85,-1.10,1.79,1.79,1.79
376.56,3.57,1.78,3.57,1.79,-1.79,-1.79,-1.05,1.78,1.78,1.78
380.33,3.50,1.73,3.50,1.73,-1.73,-1.74,-1.01,1.77,1.77,1.77
384.13,3.44,1.68,3.44,1.68,-1.68,-1.68,-0.96,1.76,1.76,1.76
387.97,3.38,1.62,3.38,1.62,-1.62,-1.62,-0.92,1.76,1.76,1.75
391.85,3.31,1.56,3.31,1.56,-1.56,-1.56,-0.88,1.75,1.75,1.75
395.77,3.25,1.50,3.25,1.50,-1.50,-1.49,-0.84,1.75,1.75,1.75
399.73,3.19,1.44,3.19,1.44,-1.44,-1.43,-0.80,1.74,1.74,1.75
403.72,3.13,1.38,3.12,1.38,-1.38,-1.37,-0.76,1.74,1.74,1.74
407.76,3.06,1.33,3.06,1.33,-1.32,-1.31,-0.73,1.74,1.74,1.73
411.84,3.00,1.27,3.00,1.26,-1.26,-1.24,-0.69,1.74,1.74,1.73
415.96,2.94,1.20,2.94,1.20,-1.20,-1.18,-0.65,1.74,1.74,1.74
420.12,2.87,1.13,2.87,1.13,-1.14,-1.12,-0.62,1.74,1.74,1.74
424.32,2.81,1.07,2.81,1.07,-1.08,-1.05,-0.58,1.74,1.74,1.74
428.56,2.75,1.01,2.75,1.01,-1.02,-0.99,-0.55,1.73,1.73,1.74
432.85,2.69,0.95,2.69,0.95,-0.96,-0.92,-0.51,1.73,1.73,1.74
437.18,2.63,0.90,2.63,0.90,-0.90,-0.86,-0.48,1.73,1.73,1.73
441.55,2.57,0.84,2.57,0.84,-0.84,-0.80,-0.45,1.73,1.73,1.73
445.96,2.51,0.78,2.51,0.78,-0.78,-0.73,-0.41,1.73,1.73,1.73
450.42,2.44,0.71,2.45,0.71,-0.71,-0.67,-0.38,1.73,1.73,1.73
454.93,2.38,0.65,2.38,0.65,-0.65,-0.60,-0.35,1.74,1.74,1.74
459.48,2.32,0.59,2.32,0.59,-0.58,-0.54,-0.32,1.74,1.74,1.74
464.07,2.26,0.52,2.26,0.52,-0.51,-0.48,-0.29,1.76,1.76,1.75
468.71,2.20,0.44,2.20,0.44,-0.43,-0.41,-0.25,1.77,1.77,1.76
473.40,2.15,0.36,2.15,0.36,-0.36,-0.35,-0.22,1.79,1.79,1.79
478.13,2.09,0.28,2.09,0.28,-0.28,-0.29,-0.19,1.81,1.81,1.81
482.91,2.03,0.20,2.03,0.20,-0.20,-0.22,-0.16,1.83,1.83,1.83
487.74,1.97,0.12,1.97,0.12,-0.13,-0.16,-0.13,1.84,1.84,1.85
492.62,1.91,0.05,1.91,0.04,-0.05,-0.10,-0.10,1.86,1.86,1.86
497.55,1.85,-0.03,1.85,-0.03,0.02,-0.03,-0.07,1.87,1.87,1.88
502.52,1.80,-0.09,1.80,-0.09,0.08,0.03,-0.04,1.88,1.88,1.89
