frequency,raw,error,smoothed,error_smoothed,equalization,parametric_eq,fixed_band_eq,equalized_raw,equalized_smoothed,target
20.00,10.85,0.08,10.85,0.08,-0.07,0.19,0.06,10.79,10.79,10.78
20.20,10.87,0.09,10.87,0.09,-0.09,0.19,0.06,10.78,10.78,10.78
20.40,10.88,0.10,10.88,0.10,-0.11,0.19,0.06,10.78,10.78,10.78
20.61,10.90,0.12,10.90,0.12,-0.12,0.20,0.06,10.77,10.77,10.78
20.81,10.91,0.13,10.91,0.13,-0.14,0.20,0.06,10.77,10.77,10.78
21.02,10.92,0.15,10.92,0.15,-0.15,0.20,0.07,10.77,10.77,10.78
21.23,10.94,0.16,10.94,0.16,-0.17,0.21,0.07,10.77,10.77,10.78
21.44,10.95,0.18,10.95,0.18,-0.18,0.21,0.07,10.77,10.77,10.77
21.66,10.97,0.19,10.97,0.19,-0.19,0.22,0.07,10.77,10.77,10.77
21.87,10.98,0.21,10.98,0.21,-0.21,0.22,0.07,10.77,10.77,10.77
22.09,10.99,0.22,10.99,0.22,-0.22,0.22,0.07,10.77,10.77,10.77
22.31,10.99,0.23,10.99,0.23,-0.22,0.23,0.07,10.77,10.77,10.77
22.54,10.99,0.23,10.99,0.23,-0.23,0.23,0.07,10.77,10.77,10.76
22.76,10.99,0.23,10.99,0.23,-0.22,0.24,0.07,10.76,10.76,10.76
22.99,10.98,0.22,10.98,0.22,-0.22,0.24,0.08,10.76,10.76,10.76
23.22,10.96,0.21,10.96,0.21,-0.21,0.24,0.08,10.76,10.76,10.76
23.45,10.95,0.19,10.95,0.19,-0.19,0.25,0.08,10.76,10.76,10.75
23.69,10.92,0.17,10.92,0.17,-0.17,0.25,0.08,10.75,10.75,10.75
23.92,10.90,0.15,10.90,0.15,-0.15,0.26,0.08,10.75,10.75,10.75
24.16,10.87,0.12,10.87,0.12,-0.12,0.26,0.08,10.75,10.75,10.75
24.40,10.84,0.10,10.84,0.10,-0.10,0.27,0.08,10.74,10.74,10.75
24.65,10.81,0.07,10.81,0.07,-0.07,0.27,0.09,10.74,10.74,10.74
24.89,10.78,0.05,10.78,0.05,-0.05,0.27,0.09,10.74,10.74,10.74
25.14,10.75,0.02,10.75,0.02,-0.02,0.28,0.09,10.73,10.73,10.73
25.39,10.72,-0.01,10.72,-0.01,0.01,0.28,0.09,10.73,10.73,10.72
25.65,10.69,-0.03,10.69,-0.03,0.03,0.29,0.09,10.72,10.72,10.72
25.91,10.66,-0.06,10.66,-0.06,0.06,0.29,0.10,10.72,10.72,10.72
26.16,10.63,-0.09,10.63,-0.09,0.08,0.30,0.10,10.71,10.71,10.71
26.43,10.60,-0.11,10.60,-0.11,0.11,0.30,0.10,10.71,10.71,10.71
26.69,10.57,-0.13,10.57,-0.13,0.13,0.31,0.10,10.70,10.70,10.71
26.96,10.55,-0.15,10.55,-0.15,0.15,0.31,0.11,10.70,10.70,10.70
27.23,10.52,-0.17,10.52,-0.17,0.17,0.32,0.11,10.69,10.69,10.69
27.50,10.50,-0.19,10.50,-0.19,0.19,0.32,0.11,10.69,10.69,10.69
27.77,10.48,-0.20,10.48,-0.20,0.21,0.32,0.11,10.68,10.68,10.68
28.05,10.45,-0.22,10.45,-0.22,0.22,0.33,0.12,10.68,10.68,10.67
28.33,10.43,-0.24,10.43,-0.24,0.24,0.33,0.12,10.67,10.67,10.67
28.62,10.41,-0.26,10.41,-0.26,0.25,0.34,0.13,10.66,10.66,10.66
28.90,10.38,-0.27,10.38,-0.27,0.27,0.34,0.13,10.65,10.65,10.66
29.19,10.37,-0.28,10.37,-0.28,0.28,0.35,0.14,10.65,10.65,10.65
29.48,10.35,-0.29,10.35,-0.29,0.29,0.35,0.14,10.64,10.64,10.64
29.78,10.34,-0.30,10.34,-0.30,0.30,0.35,0.15,10.64,10.64,10.64
30.08,10.33,-0.30,10.33,-0.30,0.30,0.36,0.15,10.63,10.63,10.63
30.38,10.32,-0.30,10.32,-0.30,0.31,0.36,0.16,10.63,10.63,10.62
30.68,10.31,-0.31,10.31,-0.31,0.31,0.36,0.16,10.62,10.62,10.61
30.99,10.29,-0.32,10.29,-0.31,0.32,0.37,0.17,10.61,10.61,10.61
31.30,10.28,-0.32,10.28,-0.32,0.32,0.37,0.18,10.60,10.60,10.60
31.61,10.27,-0.33,10.27,-0.33,0.33,0.37,0.19,10.59,10.59,10.59
31.93,10.25,-0.33,10.25,-0.33,0.33,0.37,0.19,10.58,10.58,10.59
32.24,10.24,-0.34,10.24,-0.34,0.34,0.38,0.20,10.58,10.58,10.58
32.57,10.23,-0.34,10.23,-0.34,0.35,0.38,0.21,10.57,10.57,10.57
32.89,10.21,-0.35,10.21,-0.35,0.35,0.38,0.22,10.56,10.56,10.56
33.22,10.19,-0.36,10.19,-0.36,0.36,0.38,0.23,10.55,10.55,10.55
33.55,10.18,-0.36,10.18,-0.36,0.36,0.38,0.24,10.54,10.54,10.54
33.89,10.16,-0.37,10.16,-0.37,0.36,0.38,0.25,10.52,10.52,10.53
34.23,10.15,-0.37,10.15,-0.37,0.36,0.37,0.26,10.51,10.51,10.52
34.57,10.14,-0.37,10.15,-0.37,0.36,0.37,0.27,10.51,10.51,10.51
34.92,10.14,-0.36,10.14,-0.36,0.36,0.37,0.28,10.50,10.50,10.50
35.27,10.15,-0.35,10.14,-0.35,0.36,0.36,0.30,10.50,10.50,10.49
35.62,10.14,-0.34,10.14,-0.34,0.35,0.36,0.31,10.50,10.50,10.48
35.97,10.13,-0.34,10.13,-0.34,0.35,0.35,0.32,10.49,10.48,10.47
36.33,10.12,-0.34,10.12,-0.34,0.35,0.34,0.34,10.47,10.47,10.46
36.70,10.10,-0.35,10.10,-0.35,0.35,0.33,0.35,10.44,10.45,10.45
37.06,10.08,-0.36,10.09,-0.36,0.34,0.32,0.36,10.43,10.43,10.44
37.43,10.08,-0.36,10.08,-0.35,0.34,0.31,0.38,10.42,10.42,10.43
37.81,10.08,-0.34,10.08,-0.34,0.34,0.30,0.39,10.42,10.42,10.42
38.19,10.08,-0.33,10.08,-0.33,0.34,0.29,0.41,10.42,10.42,10.41
38.57,10.07,-0.33,10.07,-0.33,0.34,0.28,0.42,10.42,10.41,10.40
38.95,10.06,-0.33,10.06,-0.33,0.34,0.27,0.44,10.40,10.40,10.39
39.34,10.04,-0.33,10.04,-0.33,0.34,0.27,0.46,10.38,10.38,10.38
39.74,10.02,-0.34,10.03,-0.34,0.34,0.26,0.47,10.36,10.36,10.37
40.14,10.01,-0.35,10.01,-0.35,0.34,0.26,0.49,10.34,10.35,10.36
40.54,10.00,-0.35,10.00,-0.35,0.33,0.26,0.51,10.33,10.33,10.35
40.94,9.99,-0.34,9.99,-0.34,0.33,0.27,0.53,10.32,10.32,10.33
41.35,9.99,-0.33,9.99,-0.33,0.33,0.28,0.55,10.32,10.31,10.32
41.76,9.98,-0.32,9.98,-0.32,0.32,0.30,0.57,10.30,10.30,10.30
42.18,9.97,-0.32,9.97,-0.32,0.32,0.32,0.59,10.29,10.29,10.29
42.60,9.95,-0.32,9.95,-0.32,0.33,0.34,0.61,10.28,10.28,10.27
43.03,9.93,-0.33,9.93,-0.33,0.34,0.37,0.63,10.26,10.26,10.26
43.46,9.90,-0.35,9.90,-0.35,0.35,0.41,0.65,10.25,10.25,10.25
43.90,9.86,-0.37,9.86,-0.37,0.38,0.44,0.67,10.24,10.24,10.23
44.33,9.81,-0.41,9.80,-0.41,0.42,0.48,0.69,10.22,10.22,10.21
44.78,9.74,-0.46,9.74,-0.46,0.46,0.52,0.71,10.21,10.21,10.20
45.23,9.67,-0.51,9.68,-0.51,0.52,0.56,0.74,10.19,10.19,10.19
45.68,9.60,-0.58,9.60,-0.58,0.58,0.59,0.76,10.18,10.18,10.18
46.13,9.52,-0.64,9.52,-0.64,0.64,0.63,0.79,10.16,10.16,10.16
46.60,9.44,-0.70,9.44,-0.71,0.71,0.67,0.81,10.15,10.15,10.14
47.06,9.35,-0.77,9.35,-0.77,0.78,0.71,0.84,10.13,10.13,10.12
47.53,9.27,-0.84,9.27,-0.84,0.84,0.75,0.86,10.11,10.11,10.11
48.01,9.18,-0.91,9.19,-0.91,0.90,0.78,0.89,10.08,10.09,10.09
48.49,9.11,-0.96,9.11,-0.96,0.95,0.82,0.91,10.06,10.06,10.08
48.97,9.05,-1.01,9.05,-1.01,1.00,0.85,0.94,10.05,10.05,10.06
49.46,9.00,-1.04,9.00,-1.04,1.03,0.88,0.97,10.04,10.04,10.05
49.96,8.97,-1.06,8.97,-1.06,1.06,0.91,0.99,10.03,10.03,10.03
50.46,8.94,-1.07,8.94,-1.07,1.08,0.95,1.02,10.02,10.02,10.01
50.96,8.92,-1.08,8.92,-1.08,1.08,0.98,1.05,10.00,10.00,10.00
51.47,8.90,-1.09,8.90,-1.08,1.08,1.01,1.08,9.98,9.98,9.98
51.99,8.88,-1.08,8.88,-1.08,1.08,1.04,1.11,9.96,9.96,9.97
52.51,8.87,-1.08,8.87,-1.08,1.07,1.06,1.14,9.94,9.94,9.95
53.03,8.86,-1.07,8.86,-1.07,1.06,1.09,1.16,9.92,9.92,9.93
53.56,8.85,-1.05,8.85,-1.05,1.05,1.12,1.19,9.91,9.91,9.91
54.10,8.84,-1.04,8.84,-1.04,1.05,1.15,1.22,9.89,9.89,9.89
54.64,8.83,-1.04,8.83,-1.04,1.05,1.18,1.25,9.88,9.88,9.87
55.18,8.80,-1.04,8.80,-1.05,1.06,1.20,1.27,9.86,9.86,9.85
55.74,8.76,-1.07,8.76,-1.07,1.08,1.23,1.30,9.84,9.84,9.83
56.29,8.71,-1.10,8.71,-1.10,1.10,1.26,1.33,9.81,9.81,9.81
56.86,8.65,-1.14,8.65,-1.14,1.14,1.28,1.35,9.79,9.79,9.79
57.42,8.58,-1.19,8.58,-1.18,1.19,1.31,1.38,9.77,9.77,9.77
58.00,8.51,-1.24,8.51,-1.24,1.24,1.33,1.40,9.75,9.75,9.75
58.58,8.43,-1.30,8.43,-1.30,1.30,1.36,1.43,9.73,9.73,9.73
59.16,8.35,-1.36,8.35,-1.36,1.36,1.39,1.45,9.71,9.71,9.71
59.76,8.27,-1.42,8.27,-1.42,1.42,1.41,1.47,9.69,9.69,9.69
60.35,8.19,-1.48,8.19,-1.47,1.47,1.44,1.49,9.66,9.66,9.67
60.96,8.12,-1.53,8.12,-1.53,1.52,1.46,1.51,9.64,9.64,9.65
61.57,8.05,-1.57,8.05,-1.57,1.56,1.49,1.53,9.61,9.61,9.62
62.18,7.99,-1.61,7.99,-1.61,1.60,1.52,1.54,9.59,9.59,9.60
62.80,7.94,-1.64,7.94,-1.64,1.63,1.54,1.56,9.57,9.57,9.58
63.43,7.89,-1.66,7.89,-1.66,1.66,1.57,1.57,9.55,9.55,9.56
64.07,7.85,-1.68,7.85,-1.68,1.68,1.59,1.59,9.53,9.53,9.53
64.71,7.81,-1.69,7.81,-1.70,1.70,1.62,1.60,9.52,9.52,9.51
65.35,7.77,-1.71,7.77,-1.71,1.72,1.65,1.61,9.50,9.50,9.49
66.01,7.73,-1.74,7.72,-1.74,1.75,1.67,1.62,9.47,9.47,9.46
66.67,7.67,-1.77,7.67,-1.77,1.77,1.70,1.63,9.44,9.44,9.44
67.33,7.61,-1.80,7.61,-1.80,1.80,1.72,1.64,9.42,9.42,9.42
68.01,7.56,-1.84,7.56,-1.84,1.83,1.75,1.65,9.39,9.39,9.39
68.69,7.50,-1.87,7.50,-1.87,1.87,1.78,1.66,9.37,9.37,9.37
69.37,7.44,-1.90,7.44,-1.90,1.90,1.80,1.66,9.34,9.34,9.34
70.07,7.38,-1.94,7.38,-1.94,1.93,1.83,1.67,9.32,9.32,9.32
70.77,7.33,-1.97,7.33,-1.97,1.97,1.85,1.68,9.29,9.29,9.29
71.48,7.27,-2.00,7.27,-2.00,1.99,1.88,1.68,9.27,9.27,9.27
72.19,7.22,-2.02,7.22,-2.02,2.02,1.91,1.69,9.24,9.24,9.24
72.91,7.17,-2.05,7.17,-2.05,2.05,1.93,1.70,9.21,9.21,9.21
73.64,7.12,-2.07,7.12,-2.07,2.07,1.96,1.71,9.19,9.18,9.19
74.38,7.07,-2.09,7.07,-2.09,2.09,1.99,1.71,9.16,9.16,9.16
75.12,7.02,-2.11,7.02,-2.11,2.12,2.01,1.72,9.13,9.13,9.13
75.87,6.97,-2.14,6.97,-2.14,2.14,2.04,1.73,9.11,9.10,9.10
76.63,6.92,-2.16,6.92,-2.16,2.16,2.07,1.74,9.08,9.08,9.08
77.40,6.87,-2.18,6.87,-2.18,2.19,2.09,1.75,9.05,9.05,9.05
78.17,6.81,-2.21,6.81,-2.21,2.21,2.12,1.77,9.02,9.02,9.02
78.95,6.76,-2.24,6.76,-2.24,2.24,2.14,1.78,8.99,8.99,8.99
79.74,6.70,-2.26,6.70,-2.26,2.26,2.17,1.79,8.96,8.96,8.97
80.54,6.65,-2.29,6.65,-2.29,2.29,2.19,1.81,8.93,8.93,8.94
81.35,6.59,-2.32,6.59,-2.32,2.31,2.22,1.82,8.90,8.90,8.91
82.16,6.54,-2.34,6.54,-2.34,2.34,2.25,1.84,8.88,8.88,8.88
82.98,6.49,-2.36,6.49,-2.36,2.36,2.27,1.86,8.85,8.85,8.85
83.81,6.44,-2.38,6.43,-2.38,2.38,2.30,1.88,8.82,8.82,8.82
84.65,6.38,-2.40,6.38,-2.40,2.41,2.32,1.90,8.79,8.79,8.79
85.50,6.33,-2.43,6.33,-2.43,2.43,2.35,1.93,8.76,8.76,8.76
86.35,6.27,-2.45,6.27,-2.45,2.46,2.37,1.95,8.73,8.73,8.72
87.22,6.21,-2.48,6.21,-2.48,2.48,2.40,1.98,8.70,8.69,8.69
88.09,6.15,-2.51,6.15,-2.51,2.51,2.42,2.01,8.66,8.66,8.66
88.97,6.09,-2.54,6.09,-2.54,2.53,2.44,2.04,8.62,8.62,8.63
89.86,6.03,-2.56,6.03,-2.56,2.56,2.47,2.07,8.59,8.59,8.59
90.76,5.98,-2.58,5.98,-2.58,2.58,2.49,2.10,8.55,8.56,8.56
91.66,5.93,-2.60,5.93,-2.60,2.60,2.51,2.14,8.52,8.52,8.53
92.58,5.88,-2.61,5.88,-2.61,2.61,2.54,2.17,8.50,8.50,8.50
93.51,5.84,-2.63,5.84,-2.63,2.63,2.56,2.21,8.47,8.47,8.46
94.44,5.79,-2.64,5.79,-2.64,2.64,2.58,2.25,8.43,8.43,8.43
95.39,5.74,-2.66,5.74,-2.66,2.66,2.60,2.29,8.40,8.40,8.39
96.34,5.68,-2.67,5.68,-2.68,2.67,2.62,2.33,8.36,8.36,8.36
97.30,5.63,-2.70,5.63,-2.70,2.69,2.64,2.37,8.32,8.32,8.32
98.28,5.57,-2.72,5.57,-2.72,2.71,2.66,2.42,8.28,8.28,8.29
99.26,5.52,-2.74,5.52,-2.73,2.74,2.68,2.46,8.25,8.26,8.25
100.25,5.46,-2.75,5.46,-2.76,2.77,2.70,2.51,8.23,8.23,8.22
101.25,5.40,-2.78,5.39,-2.79,2.80,2.72,2.55,8.20,8.20,8.18
102.27,5.32,-2.83,5.32,-2.83,2.84,2.74,2.60,8.16,8.16,8.14
103.29,5.23,-2.87,5.23,-2.87,2.88,2.76,2.65,8.11,8.11,8.11
104.32,5.15,-2.92,5.15,-2.92,2.92,2.77,2.70,8.06,8.07,8.07
105.37,5.07,-2.96,5.07,-2.96,2.95,2.79,2.74,8.02,8.02,8.03
106.42,5.00,-2.99,5.00,-2.99,2.97,2.81,2.79,7.98,7.98,7.99
107.48,4.95,-3.00,4.95,-3.00,2.98,2.82,2.84,7.93,7.94,7.95
108.56,4.92,-3.00,4.92,-3.00,2.98,2.84,2.88,7.90,7.90,7.92
109.64,4.90,-2.97,4.90,-2.98,2.96,2.85,2.93,7.86,7.86,7.88
110.74,4.90,-2.94,4.90,-2.94,2.93,2.86,2.97,7.82,7.83,7.84
111.85,4.90,-2.89,4.91,-2.89,2.89,2.88,3.01,7.80,7.80,7.80
112.97,4.92,-2.84,4.92,-2.84,2.85,2.89,3.05,7.77,7.77,7.76
114.10,4.93,-2.79,4.92,-2.80,2.82,2.90,3.09,7.74,7.74,7.72
115.24,4.92,-2.76,4.92,-2.76,2.78,2.91,3.13,7.70,7.70,7.68
116.39,4.90,-2.74,4.90,-2.74,2.75,2.92,3.16,7.65,7.65,7.64
117.55,4.87,-2.73,4.87,-2.73,2.73,2.93,3.19,7.60,7.60,7.60
118.73,4.83,-2.72,4.83,-2.72,2.72,2.94,3.22,7.55,7.55,7.55
119.92,4.79,-2.72,4.79,-2.72,2.71,2.95,3.24,7.50,7.50,7.51
121.12,4.76,-2.71,4.76,-2.71,2.70,2.95,3.26,7.46,7.46,7.47
122.33,4.72,-2.70,4.72,-2.70,2.70,2.96,3.27,7.42,7.42,7.43
123.55,4.69,-2.70,4.69,-2.70,2.70,2.97,3.29,7.39,7.39,7.38
124.79,4.65,-2.69,4.65,-2.70,2.70,2.97,3.29,7.35,7.35,7.34
126.03,4.60,-2.70,4.60,-2.70,2.71,2.98,3.30,7.31,7.31,7.30
127.29,4.55,-2.71,4.55,-2.71,2.71,2.98,3.30,7.26,7.26,7.26
128.57,4.49,-2.72,4.49,-2.72,2.72,2.98,3.30,7.21,7.21,7.21
129.85,4.43,-2.74,4.43,-2.74,2.73,2.98,3.29,7.16,7.16,7.17
131.15,4.37,-2.75,4.37,-2.75,2.74,2.99,3.28,7.12,7.12,7.12
132.46,4.32,-2.76,4.32,-2.76,2.75,2.99,3.26,7.07,7.07,7.08
133.79,4.27,-2.76,4.27,-2.76,2.76,2.99,3.25,7.03,7.03,7.03
135.12,4.22,-2.77,4.22,-2.77,2.77,2.98,3.22,6.99,6.99,6.99
136.48,4.17,-2.78,4.17,-2.78,2.78,2.98,3.20,6.94,6.94,6.94
137.84,4.11,-2.78,4.11,-2.78,2.78,2.98,3.18,6.89,6.89,6.90
139.22,4.07,-2.79,4.07,-2.78,2.78,2.98,3.15,6.85,6.85,6.85
140.61,4.02,-2.79,4.02,-2.79,2.78,2.97,3.12,6.80,6.80,6.81
142.02,3.98,-2.78,3.98,-2.78,2.79,2.97,3.09,6.76,6.76,6.76
143.44,3.93,-2.78,3.93,-2.78,2.79,2.96,3.05,6.72,6.72,6.71
144.87,3.88,-2.78,3.88,-2.78,2.79,2.96,3.02,6.68,6.67,6.67
146.32,3.83,-2.79,3.83,-2.79,2.79,2.95,2.99,6.62,6.62,6.62
147.78,3.77,-2.80,3.77,-2.80,2.80,2.94,2.95,6.57,6.57,6.57
149.26,3.72,-2.81,3.72,-2.81,2.80,2.94,2.92,6.52,6.52,6.53
150.75,3.67,-2.81,3.67,-2.81,2.80,2.93,2.88,6.47,6.47,6.48
152.26,3.62,-2.81,3.62,-2.81,2.80,2.92,2.85,6.43,6.43,6.43
153.78,3.58,-2.80,3.58,-2.80,2.80,2.91,2.82,6.38,6.38,6.38
155.32,3.54,-2.80,3.54,-2.80,2.80,2.90,2.78,6.34,6.34,6.33
156.88,3.49,-2.80,3.49,-2.80,2.80,2.89,2.75,6.29,6.29,6.29
158.44,3.44,-2.80,3.44,-2.80,2.80,2.88,2.72,6.24,6.24,6.24
160.03,3.38,-2.80,3.38,-2.80,2.80,2.87,2.69,6.19,6.19,6.19
161.63,3.33,-2.80,3.33,-2.80,2.80,2.85,2.66,6.13,6.13,6.14
163.24,3.28,-2.81,3.28,-2.81,2.80,2.84,2.63,6.08,6.08,6.09
164.88,3.23,-2.80,3.24,-2.80,2.80,2.83,2.61,6.03,6.03,6.04
166.53,3.19,-2.80,3.19,-2.80,2.79,2.82,2.59,5.98,5.98,5.99
168.19,3.15,-2.79,3.15,-2.79,2.79,2.80,2.56,5.94,5.94,5.94
169.87,3.11,-2.77,3.11,-2.78,2.78,2.79,2.54,5.89,5.89,5.88
171.57,3.07,-2.77,3.07,-2.77,2.77,2.77,2.53,5.84,5.84,5.83
173.29,3.02,-2.76,3.02,-2.76,2.76,2.76,2.51,5.79,5.78,5.78
175.02,2.98,-2.75,2.98,-2.75,2.75,2.74,2.50,5.73,5.73,5.73
176.77,2.93,-2.75,2.93,-2.75,2.74,2.73,2.48,5.67,5.67,5.68
178.54,2.89,-2.74,2.89,-2.73,2.73,2.71,2.47,5.62,5.62,5.63
180.32,2.86,-2.72,2.86,-2.72,2.72,2.70,2.46,5.57,5.57,5.58
182.13,2.82,-2.70,2.82,-2.70,2.70,2.68,2.46,5.52,5.52,5.52
183.95,2.79,-2.68,2.79,-2.68,2.69,2.66,2.45,5.47,5.47,5.47
185.79,2.75,-2.67,2.75,-2.67,2.67,2.65,2.45,5.42,5.42,5.42
187.65,2.72,-2.65,2.72,-2.65,2.65,2.63,2.45,5.37,5.37,5.37
189.52,2.68,-2.64,2.68,-2.64,2.64,2.61,2.45,5.32,5.32,5.31
191.42,2.64,-2.62,2.64,-2.62,2.63,2.60,2.45,5.26,5.26,5.26
193.33,2.60,-2.61,2.60,-2.61,2.61,2.58,2.46,5.21,5.21,5.21
195.27,2.55,-2.60,2.55,-2.60,2.60,2.56,2.46,5.15,5.15,5.15
197.22,2.51,-2.59,2.51,-2.59,2.59,2.55,2.47,5.09,5.09,5.10
199.19,2.46,-2.58,2.46,-2.58,2.57,2.53,2.48,5.04,5.04,5.04
201.18,2.42,-2.57,2.42,-2.57,2.56,2.51,2.49,4.98,4.98,4.99
203.19,2.38,-2.55,2.38,-2.55,2.55,2.49,2.50,4.93,4.93,4.93
205.23,2.34,-2.53,2.34,-2.53,2.54,2.48,2.51,4.88,4.88,4.88
207.28,2.30,-2.52,2.30,-2.52,2.52,2.46,2.52,4.83,4.83,4.82
209.35,2.26,-2.51,2.26,-2.51,2.51,2.44,2.53,4.77,4.77,4.77
211.44,2.21,-2.50,2.21,-2.50,2.50,2.43,2.55,4.71,4.71,4.71
213.56,2.16,-2.49,2.16,-2.49,2.49,2.41,2.56,4.66,4.66,4.66
215.69,2.11,-2.48,2.11,-2.48,2.48,2.39,2.57,4.60,4.60,4.60
217.85,2.07,-2.48,2.07,-2.48,2.47,2.38,2.59,4.54,4.54,4.54
220.03,2.02,-2.47,2.02,-2.47,2.47,2.36,2.60,4.48,4.48,4.49
222.23,1.97,-2.46,1.97,-2.46,2.46,2.35,2.61,4.43,4.43,4.43
224.45,1.93,-2.45,1.93,-2.45,2.44,2.33,2.62,4.37,4.37,4.37
226.70,1.88,-2.43,1.88,-2.43,2.43,2.31,2.63,4.32,4.32,4.32
228.96,1.84,-2.42,1.84,-2.42,2.42,2.30,2.64,4.26,4.26,4.26
231.25,1.80,-2.40,1.80,-2.41,2.41,2.28,2.65,4.20,4.20,4.20
233.57,1.76,-2.39,1.76,-2.39,2.39,2.27,2.66,4.15,4.15,4.15
235.90,1.71,-2.38,1.71,-2.38,2.38,2.25,2.66,4.09,4.09,4.09
238.26,1.67,-2.36,1.67,-2.36,2.36,2.24,2.66,4.03,4.03,4.03
240.64,1.63,-2.34,1.63,-2.34,2.35,2.22,2.66,3.98,3.98,3.98
243.05,1.59,-2.33,1.59,-2.33,2.33,2.21,2.66,3.92,3.92,3.92
245.48,1.55,-2.32,1.55,-2.32,2.32,2.20,2.65,3.87,3.87,3.87
247.93,1.50,-2.30,1.50,-2.30,2.30,2.18,2.64,3.81,3.81,3.81
250.41,1.46,-2.29,1.46,-2.29,2.29,2.17,2.63,3.75,3.75,3.75
252.92,1.42,-2.28,1.42,-2.28,2.28,2.16,2.62,3.69,3.69,3.70
255.45,1.37,-2.26,1.37,-2.26,2.26,2.14,2.60,3.64,3.64,3.64
258.00,1.33,-2.25,1.33,-2.25,2.25,2.13,2.59,3.58,3.58,3.58
260.58,1.29,-2.23,1.29,-2.23,2.23,2.12,2.56,3.52,3.52,3.52
263.19,1.25,-2.22,1.25,-2.22,2.22,2.10,2.54,3.47,3.47,3.47
265.82,1.21,-2.20,1.21,-2.20,2.20,2.09,2.51,3.41,3.41,3.41
268.48,1.17,-2.18,1.17,-2.18,2.18,2.08,2.49,3.35,3.35,3.35
271.16,1.13,-2.17,1.13,-2.17,2.17,2.07,2.45,3.30,3.30,3.30
273.87,1.09,-2.15,1.09,-2.15,2.15,2.06,2.42,3.24,3.24,3.24
276.61,1.05,-2.13,1.05,-2.13,2.13,2.05,2.39,3.18,3.18,3.18
279.38,1.01,-2.11,1.01,-2.11,2.11,2.03,2.35,3.12,3.12,3.12
282.17,0.97,-2.10,0.97,-2.10,2.10,2.02,2.32,3.06,3.06,3.06
284.99,0.92,-2.08,0.92,-2.08,2.08,2.01,2.28,3.00,3.00,3.00
287.84,0.88,-2.06,0.88,-2.06,2.06,2.00,2.24,2.94,2.94,2.94
290.72,0.84,-2.04,0.84,-2.04,2.04,1.99,2.20,2.88,2.88,2.88
293.63,0.80,-2.02,0.80,-2.02,2.02,1.98,2.16,2.82,2.82,2.83
296.57,0.76,-2.00,0.76,-2.00,2.00,1.97,2.12,2.76,2.76,2.77
299.53,0.72,-1.98,0.73,-1.98,1.98,1.96,2.08,2.70,2.70,2.71
302.53,0.69,-1.96,0.69,-1.96,1.96,1.94,2.04,2.65,2.65,2.65
305.55,0.65,-1.94,0.65,-1.94,1.94,1.93,2.00,2.59,2.59,2.59
308.61,0.61,-1.92,0.61,-1.92,1.92,1.92,1.96,2.53,2.53,2.53
311.69,0.57,-1.90,0.57,-1.90,1.90,1.91,1.92,2.47,2.47,2.47
314.81,0.53,-1.88,0.53,-1.88,1.88,1.90,1.88,2.41,2.41,2.41
317.96,0.49,-1.86,0.49,-1.86,1.86,1.88,1.84,2.36,2.36,2.36
321.14,0.45,-1.85,0.45,-1.85,1.85,1.87,1.80,2.30,2.30,2.30
324.35,0.42,-1.83,0.42,-1.83,1.83,1.86,1.76,2.25,2.25,2.25
327.59,0.38,-1.82,0.38,-1.82,1.82,1.85,1.73,2.20,2.20,2.20
330.87,0.34,-1.81,0.34,-1.81,1.81,1.83,1.69,2.15,2.15,2.15
334.18,0.30,-1.80,0.30,-1.80,1.80,1.82,1.66,2.10,2.10,2.10
337.52,0.26,-1.79,0.26,-1.79,1.79,1.80,1.63,2.06,2.06,2.06
340.90,0.23,-1.78,0.23,-1.78,1.78,1.79,1.59,2.01,2.01,2.01
344.30,0.19,-1.78,0.19,-1.78,1.77,1.78,1.56,1.97,1.97,1.97
347.75,0.16,-1.76,0.16,-1.76,1.76,1.76,1.53,1.92,1.92,1.92
351.23,0.12,-1.75,0.12,-1.75,1.75,1.74,1.51,1.87,1.87,1.87
354.74,0.09,-1.74,0.09,-1.74,1.73,1.73,1.48,1.82,1.82,1.82
358.28,0.05,-1.72,0.05,-1.72,1.72,1.71,1.45,1.77,1.77,1.77
361.87,0.02,-1.70,0.02,-1.70,1.70,1.69,1.43,1.72,1.72,1.72
365.49,-0.01,-1.68,-0.01,-1.68,1.68,1.67,1.40,1.67,1.67,1.67
369.14,-0.04,-1.65,-0.04,-1.65,1.66,1.66,1.38,1.61,1.61,1.61
372.83,-0.07,-1.63,-0.07,-1.63,1.63,1.64,1.36,1.56,1.56,1.56
376.56,-0.11,-1.61,-0.11,-1.61,1.61,1.62,1.34,1.50,1.50,1.50
380.33,-0.14,-1.59,-0.14,-1.59,1.59,1.60,1.32,1.45,1.45,1.45
384.13,-0.17,-1.57,-0.17,-1.57,1.56,1.58,1.30,1.40,1.40,1.40
387.97,-0.20,-1.54,-0.20,-1.54,1.54,1.56,1.28,1.34,1.34,1.34
391.85,-0.23,-1.52,-0.23,-1.52,1.52,1.54,1.27,1.29,1.29,1.29
395.77,-0.26,-1.50,-0.26,-1.50,1.50,1.52,1.25,1.24,1.24,1.24
399.73,-0.29,-1.47,-0.29,-1.47,1.48,1.49,1.23,1.18,1.18,1.18
403.72,-0.32,-1.45,-0.32,-1.45,1.45,1.47,1.22,1.13,1.13,1.13
407.76,-0.36,-1.43,-0.36,-1.43,1.43,1.45,1.21,1.08,1.08,1.08
411.84,-0.39,-1.41,-0.39,-1.41,1.41,1.43,1.19,1.03,1.03,1.03
415.96,-0.42,-1.39,-0.42,-1.39,1.39,1.40,1.18,0.97,0.97,0.97
420.12,-0.45,-1.37,-0.45,-1.37,1.37,1.38,1.17,0.92,0.92,0.92
424.32,-0.48,-1.35,-0.48,-1.35,1.35,1.36,1.16,0.87,0.87,0.87
428.56,-0.51,-1.33,-0.51,-1.33,1.33,1.34,1.15,0.82,0.82,0.82
432.85,-0.53,-1.30,-0.53,-1.30,1.30,1.31,1.14,0.77,0.77,0.77
437.18,-0.56,-1.28,-0.56,-1.28,1.28,1.29,1.13,0.72,0.72,0.72
441.55,-0.58,-1.25,-0.58,-1.25,1.25,1.26,1.12,0.67,0.67,0.67
445.96,-0.61,-1.23,-0.61,-1.23,1.23,1.24,1.11,0.62,0.62,0.62
450.42,-0.63,-1.20,-0.63,-1.21,1.21,1.22,1.10,0.57,0.57,0.57
454.93,-0.66,-1.18,-0.66,-1.18,1.18,1.19,1.09,0.53,0.53,0.52
459.48,-0.68,-1.16,-0.68,-1.16,1.16,1.17,1.08,0.48,0.48,0.48
464.07,-0.71,-1.14,-0.71,-1.14,1.14,1.15,1.07,0.43,0.43,0.43
468.71,-0.73,-1.12,-0.73,-1.12,1.11,1.12,1.06,0.38,0.38,0.38
473.40,-0.76,-1.09,-0.76,-1.09,1.09,1.10,1.05,0.34,0.34,0.34
478.13,-0.78,-1.07,-0.78,-1.07,1.07,1.08,1.04,0.29,0.29,0.29
482.91,-0.80,-1.05,-0.80,-1.05,1.05,1.05,1.03,0.24,0.24,0.24
487.74,-0.83,-1.02,-0.83,-1.02,1.02,1.03,1.02,0.20,0.20,0.20
492.62,-0.85,-1.00,-0.85,-1.00,1.00,1.01,1.00,0.15,0.15,0.15
497.55,-0.87,-0.98,-0.87,-0.98,0.98,0.99,0.99,0.11,0.11,0.11
502.52,-0.89,-0.96,-0.89,-0.96,0.96,0.96,0.98,0.06,0.06,0.06
507.55,-0.91,-0.94,-0.91,-0.94,0.93,0.94,0.96,0.02,0.02,0.02
512.62,-0.93,-0.91,-0.93,-0.91,0.91,0.92,0.95,-0.02,-0.02,-0.02
517.75,-0.95,-0.89,-0.95,-0.89,0.89,0.90,0.93,-0.07,-0.07,-0.06
522.93,-0.97,-0.86,-0.97,-0.86,0.86,0.88,0.92,-0.11,-0.11,-0.11
528.16,-0.99,-0.84,-0.99,-0.84,0.84,0.85,0.90,-0.15,-0.15,-0.15
533.44,-1.01,-0.82,-1.01,-0.82,0.82,0.83,0.89,-0.19,-0.19,-0.19
