frequency,raw,error,smoothed,error_smoothed,equalization,parametric_eq,fixed_band_eq,equalized_raw,equalized_smoothed,target
20.00,5.38,0.69,5.39,0.69,-0.66,-0.06,-0.19,4.72,4.72,4.69
20.20,5.40,0.66,5.40,0.64,-0.64,-0.07,-0.20,4.76,4.75,4.74
20.40,5.42,0.59,5.41,0.60,-0.62,-0.08,-0.20,4.79,4.79,4.83
20.61,5.43,0.54,5.44,0.57,-0.60,-0.09,-0.21,4.83,4.84,4.89
20.81,5.48,0.58,5.48,0.57,-0.59,-0.10,-0.22,4.89,4.89,4.89
21.02,5.52,0.59,5.52,0.57,-0.57,-0.11,-0.22,4.95,4.95,4.93
21.23,5.57,0.57,5.57,0.58,-0.55,-0.12,-0.23,5.02,5.02,5.00
21.44,5.62,0.56,5.62,0.56,-0.54,-0.13,-0.24,5.08,5.08,5.05
21.66,5.66,0.55,5.66,0.55,-0.53,-0.14,-0.24,5.13,5.13,5.11
21.87,5.71,0.52,5.71,0.52,-0.52,-0.16,-0.25,5.19,5.19,5.18
22.09,5.75,0.49,5.75,0.49,-0.50,-0.17,-0.26,5.25,5.25,5.26
22.31,5.79,0.46,5.79,0.47,-0.49,-0.19,-0.27,5.31,5.31,5.33
22.54,5.84,0.44,5.84,0.46,-0.47,-0.21,-0.28,5.37,5.37,5.39
22.76,5.88,0.49,5.88,0.47,-0.46,-0.24,-0.29,5.42,5.42,5.39
22.99,5.92,0.48,5.92,0.47,-0.46,-0.26,-0.29,5.47,5.47,5.44
23.22,5.97,0.47,5.97,0.46,-0.46,-0.30,-0.30,5.50,5.51,5.50
23.45,6.01,0.43,6.01,0.45,-0.47,-0.33,-0.31,5.54,5.54,5.58
23.69,6.05,0.45,6.04,0.45,-0.48,-0.36,-0.32,5.57,5.57,5.59
23.92,6.08,0.49,6.08,0.48,-0.49,-0.40,-0.33,5.59,5.59,5.59
24.16,6.12,0.52,6.12,0.52,-0.51,-0.45,-0.34,5.61,5.61,5.59
24.40,6.15,0.55,6.15,0.54,-0.52,-0.49,-0.35,5.63,5.63,5.59
24.65,6.18,0.55,6.18,0.54,-0.54,-0.55,-0.36,5.64,5.64,5.63
24.89,6.21,0.52,6.21,0.54,-0.55,-0.60,-0.37,5.66,5.66,5.69
25.14,6.24,0.55,6.24,0.55,-0.56,-0.65,-0.38,5.68,5.68,5.69
25.39,6.27,0.58,6.27,0.57,-0.56,-0.70,-0.39,5.71,5.71,5.69
25.65,6.30,0.60,6.30,0.58,-0.56,-0.75,-0.40,5.75,5.75,5.71
25.91,6.33,0.56,6.33,0.56,-0.55,-0.79,-0.41,5.79,5.79,5.77
26.16,6.36,0.53,6.36,0.54,-0.54,-0.81,-0.42,5.83,5.83,5.83
26.43,6.40,0.50,6.39,0.52,-0.53,-0.83,-0.43,5.87,5.87,5.89
26.69,6.43,0.53,6.43,0.51,-0.53,-0.83,-0.44,5.90,5.90,5.89
26.96,6.45,0.52,6.45,0.51,-0.53,-0.82,-0.45,5.93,5.93,5.93
27.23,6.48,0.49,6.48,0.51,-0.53,-0.79,-0.46,5.95,5.95,5.99
27.50,6.51,0.52,6.51,0.52,-0.54,-0.76,-0.47,5.97,5.97,5.99
27.77,6.54,0.55,6.54,0.55,-0.56,-0.71,-0.47,5.99,5.99,5.99
28.05,6.58,0.58,6.58,0.59,-0.57,-0.66,-0.48,6.00,6.00,5.99
28.33,6.61,0.62,6.61,0.60,-0.59,-0.60,-0.49,6.02,6.02,5.99
28.62,6.64,0.60,6.64,0.60,-0.59,-0.54,-0.49,6.05,6.05,6.05
28.90,6.67,0.58,6.67,0.60,-0.59,-0.49,-0.50,6.08,6.08,6.09
29.19,6.71,0.61,6.71,0.59,-0.58,-0.44,-0.51,6.13,6.13,6.09
29.48,6.73,0.57,6.73,0.57,-0.55,-0.39,-0.51,6.18,6.18,6.16
29.78,6.76,0.52,6.76,0.53,-0.52,-0.35,-0.51,6.24,6.24,6.24
30.08,6.79,0.48,6.79,0.48,-0.48,-0.31,-0.52,6.31,6.31,6.31
30.38,6.81,0.44,6.81,0.44,-0.44,-0.27,-0.52,6.38,6.38,6.37
30.68,6.84,0.40,6.84,0.39,-0.40,-0.24,-0.52,6.43,6.43,6.44
30.99,6.86,0.35,6.86,0.35,-0.37,-0.20,-0.52,6.48,6.48,6.51
31.30,6.88,0.31,6.88,0.32,-0.35,-0.18,-0.52,6.53,6.53,6.57
31.61,6.90,0.31,6.90,0.31,-0.34,-0.15,-0.51,6.56,6.56,6.59
31.93,6.93,0.33,6.93,0.33,-0.34,-0.13,-0.51,6.59,6.59,6.59
32.24,6.95,0.35,6.95,0.36,-0.34,-0.11,-0.51,6.61,6.61,6.59
32.57,6.97,0.37,6.97,0.36,-0.34,-0.09,-0.50,6.63,6.63,6.59
32.89,6.99,0.37,6.99,0.36,-0.34,-0.07,-0.50,6.64,6.64,6.62
33.22,7.01,0.31,7.01,0.34,-0.33,-0.06,-0.49,6.67,6.67,6.69
33.55,7.02,0.33,7.02,0.32,-0.32,-0.04,-0.48,6.71,6.71,6.69
33.89,7.04,0.31,7.04,0.30,-0.28,-0.03,-0.47,6.76,6.76,6.73
34.23,7.06,0.26,7.06,0.27,-0.24,-0.02,-0.46,6.82,6.82,6.80
34.57,7.08,0.21,7.08,0.22,-0.20,-0.01,-0.45,6.88,6.88,6.87
34.92,7.10,0.16,7.10,0.16,-0.16,0.00,-0.44,6.94,6.94,6.94
35.27,7.12,0.11,7.12,0.10,-0.13,0.01,-0.43,6.99,6.99,7.01
35.62,7.13,0.06,7.13,0.07,-0.10,0.02,-0.42,7.03,7.03,7.08
35.97,7.15,0.06,7.15,0.06,-0.09,0.03,-0.41,7.06,7.06,7.09
36.33,7.17,0.07,7.17,0.07,-0.08,0.04,-0.40,7.08,7.08,7.09
36.70,7.18,0.09,7.18,0.09,-0.09,0.04,-0.38,7.10,7.10,7.09
37.06,7.20,0.10,7.20,0.10,-0.09,0.05,-0.37,7.10,7.10,7.09
37.43,7.21,0.12,7.21,0.12,-0.10,0.06,-0.36,7.11,7.11,7.09
37.81,7.22,0.13,7.22,0.14,-0.11,0.06,-0.34,7.12,7.12,7.09
38.19,7.24,0.14,7.24,0.13,-0.11,0.07,-0.33,7.13,7.13,7.09
38.57,7.25,0.13,7.25,0.12,-0.11,0.07,-0.32,7.14,7.14,7.12
38.95,7.26,0.08,7.26,0.10,-0.11,0.08,-0.30,7.15,7.15,7.19
39.34,7.27,0.08,7.27,0.08,-0.11,0.08,-0.29,7.16,7.16,7.19
39.74,7.29,0.09,7.29,0.09,-0.11,0.09,-0.28,7.17,7.17,7.19
40.14,7.30,0.10,7.30,0.10,-0.12,0.09,-0.26,7.18,7.18,7.19
40.54,7.31,0.11,7.31,0.11,-0.12,0.09,-0.25,7.18,7.18,7.19
40.94,7.32,0.12,7.32,0.13,-0.12,0.10,-0.23,7.19,7.19,7.19
41.35,7.32,0.13,7.32,0.13,-0.11,0.10,-0.22,7.21,7.21,7.19
41.76,7.33,0.14,7.33,0.13,-0.08,0.10,-0.21,7.25,7.25,7.19
42.18,7.34,0.10,7.34,0.10,-0.04,0.10,-0.19,7.30,7.30,7.24
42.60,7.35,0.04,7.35,0.04,0.01,0.10,-0.18,7.35,7.35,7.31
43.03,7.35,-0.03,7.35,-0.05,0.06,0.10,-0.17,7.41,7.41,7.38
43.46,7.36,-0.15,7.36,-0.14,0.11,0.10,-0.16,7.47,7.47,7.51
43.90,7.37,-0.22,7.37,-0.20,0.14,0.10,-0.14,7.51,7.51,7.59
44.33,7.38,-0.22,7.38,-0.23,0.16,0.10,-0.13,7.53,7.53,7.59
44.78,7.38,-0.21,7.38,-0.21,0.16,0.10,-0.12,7.54,7.54,7.59
45.23,7.39,-0.17,7.39,-0.16,0.15,0.10,-0.11,7.54,7.54,7.56
45.68,7.39,-0.11,7.39,-0.10,0.13,0.10,-0.09,7.52,7.52,7.50
46.13,7.39,-0.03,7.39,-0.04,0.10,0.09,-0.08,7.50,7.50,7.42
46.60,7.39,0.00,7.40,-0.01,0.08,0.09,-0.07,7.47,7.47,7.39
47.06,7.40,-0.01,7.40,-0.02,0.05,0.08,-0.06,7.45,7.45,7.40
47.53,7.40,-0.07,7.40,-0.06,0.03,0.08,-0.04,7.43,7.43,7.47
48.01,7.40,-0.09,7.40,-0.08,0.02,0.07,-0.03,7.43,7.43,7.49
48.49,7.41,-0.08,7.41,-0.06,0.02,0.06,-0.02,7.42,7.42,7.48
48.97,7.41,-0.00,7.41,-0.02,0.02,0.05,-0.01,7.43,7.43,7.41
49.46,7.41,0.02,7.41,0.01,0.02,0.04,0.00,7.43,7.43,7.39
49.96,7.41,0.02,7.41,0.02,0.01,0.03,0.01,7.42,7.42,7.39
50.46,7.41,0.01,7.41,0.02,0.00,0.01,0.02,7.41,7.41,7.39
50.96,7.41,0.01,7.41,0.01,-0.01,-0.01,0.04,7.40,7.40,7.39
51.47,7.41,0.01,7.41,0.01,-0.02,-0.02,0.05,7.39,7.39,7.39
51.99,7.41,0.01,7.41,0.01,-0.02,-0.04,0.06,7.38,7.38,7.39
52.51,7.40,0.01,7.40,0.02,-0.04,-0.07,0.07,7.37,7.37,7.39
53.03,7.40,0.04,7.40,0.05,-0.06,-0.09,0.08,7.34,7.34,7.36
53.56,7.39,0.10,7.39,0.07,-0.08,-0.12,0.09,7.31,7.31,7.29
54.10,7.39,0.09,7.39,0.10,-0.12,-0.14,0.10,7.27,7.27,7.29
54.64,7.38,0.13,7.38,0.15,-0.15,-0.17,0.11,7.23,7.23,7.25
55.18,7.38,0.19,7.38,0.19,-0.19,-0.20,0.12,7.19,7.19,7.18
55.74,7.37,0.26,7.37,0.24,-0.22,-0.22,0.13,7.15,7.15,7.11
56.29,7.37,0.28,7.37,0.27,-0.25,-0.24,0.14,7.12,7.12,7.09
56.86,7.37,0.27,7.37,0.28,-0.26,-0.26,0.15,7.10,7.10,7.09
57.42,7.36,0.27,7.36,0.27,-0.27,-0.28,0.17,7.09,7.09,7.09
58.00,7.35,0.26,7.35,0.27,-0.26,-0.29,0.18,7.10,7.10,7.09
58.58,7.35,0.25,7.35,0.25,-0.24,-0.29,0.19,7.10,7.10,7.09
59.16,7.34,0.25,7.34,0.22,-0.22,-0.28,0.20,7.12,7.12,7.09
59.76,7.33,0.17,7.33,0.18,-0.19,-0.26,0.21,7.14,7.14,7.16
60.35,7.32,0.13,7.32,0.14,-0.17,-0.24,0.22,7.16,7.16,7.19
60.96,7.31,0.12,7.31,0.12,-0.14,-0.21,0.23,7.18,7.18,7.19
61.57,7.30,0.11,7.30,0.11,-0.10,-0.18,0.24,7.20,7.20,7.19
62.18,7.29,0.10,7.29,0.10,-0.07,-0.14,0.25,7.22,7.22,7.19
62.80,7.28,0.08,7.28,0.06,-0.05,-0.10,0.26,7.24,7.24,7.20
63.43,7.28,0.01,7.28,0.02,-0.03,-0.05,0.27,7.25,7.25,7.27
64.07,7.27,-0.03,7.27,-0.02,-0.01,-0.01,0.28,7.26,7.26,7.29
64.71,7.26,-0.04,7.26,-0.04,0.01,0.03,0.30,7.26,7.26,7.29
65.35,7.24,-0.05,7.24,-0.05,0.03,0.07,0.31,7.28,7.28,7.29
66.01,7.23,-0.06,7.23,-0.06,0.07,0.11,0.32,7.30,7.30,7.29
66.67,7.22,-0.07,7.22,-0.07,0.10,0.15,0.33,7.32,7.32,7.29
67.33,7.21,-0.09,7.21,-0.10,0.15,0.18,0.34,7.35,7.35,7.29
68.01,7.19,-0.16,7.19,-0.16,0.20,0.22,0.35,7.39,7.39,7.35
68.69,7.18,-0.24,7.18,-0.24,0.26,0.25,0.36,7.44,7.44,7.42
69.37,7.16,-0.33,7.16,-0.33,0.32,0.28,0.38,7.49,7.49,7.49
70.07,7.15,-0.41,7.15,-0.40,0.39,0.31,0.39,7.53,7.53,7.56
70.77,7.13,-0.46,7.13,-0.46,0.44,0.34,0.40,7.57,7.57,7.59
71.48,7.11,-0.48,7.11,-0.49,0.47,0.36,0.41,7.58,7.58,7.59
72.19,7.10,-0.50,7.10,-0.51,0.47,0.39,0.43,7.57,7.57,7.59
72.91,7.08,-0.52,7.08,-0.51,0.46,0.41,0.44,7.53,7.53,7.59
73.64,7.06,-0.51,7.06,-0.48,0.42,0.44,0.46,7.48,7.48,7.57
74.38,7.04,-0.39,7.04,-0.39,0.38,0.46,0.47,7.42,7.42,7.43
75.12,7.02,-0.28,7.02,-0.29,0.34,0.48,0.48,7.36,7.36,7.30
75.87,7.00,-0.19,7.00,-0.22,0.30,0.50,0.50,7.30,7.30,7.19
76.63,6.98,-0.21,6.98,-0.20,0.27,0.52,0.51,7.25,7.25,7.19
77.40,6.96,-0.23,6.96,-0.23,0.24,0.54,0.53,7.20,7.20,7.19
78.17,6.94,-0.25,6.94,-0.26,0.22,0.55,0.55,7.16,7.16,7.19
78.95,6.92,-0.28,6.92,-0.25,0.21,0.57,0.56,7.13,7.13,7.19
79.74,6.90,-0.24,6.90,-0.25,0.20,0.59,0.58,7.10,7.10,7.13
80.54,6.87,-0.22,6.87,-0.24,0.20,0.61,0.60,7.08,7.08,7.09
81.35,6.85,-0.24,6.85,-0.21,0.21,0.62,0.62,7.06,7.06,7.09
82.16,6.83,-0.20,6.83,-0.20,0.23,0.64,0.64,7.06,7.06,7.03
82.98,6.81,-0.19,6.81,-0.20,0.25,0.65,0.65,7.06,7.06,6.99
83.81,6.78,-0.21,6.78,-0.23,0.29,0.67,0.67,7.08,7.08,6.99
84.65,6.76,-0.31,6.76,-0.32,0.35,0.68,0.69,7.11,7.11,7.06
85.50,6.73,-0.44,6.73,-0.44,0.42,0.70,0.72,7.15,7.15,7.18
86.35,6.71,-0.59,6.71,-0.55,0.50,0.71,0.74,7.21,7.21,7.29
87.22,6.68,-0.61,6.68,-0.61,0.58,0.73,0.76,7.26,7.26,7.29
88.09,6.65,-0.64,6.65,-0.68,0.66,0.74,0.78,7.31,7.32,7.29
88.97,6.62,-0.71,6.63,-0.74,0.73,0.76,0.81,7.36,7.36,7.34
89.86,6.60,-0.87,6.60,-0.81,0.79,0.77,0.83,7.39,7.39,7.47
90.76,6.57,-0.87,6.57,-0.86,0.84,0.79,0.85,7.41,7.41,7.44
91.66,6.54,-0.86,6.54,-0.88,0.89,0.80,0.88,7.43,7.43,7.39
92.58,6.51,-0.88,6.51,-0.91,0.93,0.82,0.91,7.44,7.44,7.39
93.51,6.48,-0.98,6.48,-0.97,0.98,0.83,0.93,7.46,7.46,7.46
94.44,6.45,-1.05,6.45,-1.03,1.03,0.85,0.96,7.48,7.48,7.49
95.39,6.41,-1.08,6.41,-1.08,1.09,0.86,0.99,7.50,7.50,7.49
96.34,6.38,-1.11,6.38,-1.13,1.15,0.87,1.01,7.53,7.53,7.49
97.30,6.35,-1.18,6.35,-1.19,1.20,0.89,1.04,7.55,7.55,7.53
98.28,6.31,-1.28,6.31,-1.26,1.25,0.90,1.07,7.56,7.56,7.59
99.26,6.27,-1.32,6.27,-1.32,1.30,0.92,1.10,7.57,7.57,7.59
100.25,6.24,-1.36,6.24,-1.36,1.33,0.93,1.13,7.56,7.56,7.59
101.25,6.20,-1.38,6.20,-1.37,1.35,0.95,1.16,7.55,7.55,7.58
102.27,6.16,-1.37,6.16,-1.36,1.36,0.96,1.19,7.52,7.52,7.53
103.29,6.12,-1.34,6.12,-1.35,1.37,0.97,1.22,7.49,7.49,7.46
104.32,6.08,-1.31,6.08,-1.34,1.36,0.99,1.25,7.44,7.44,7.39
105.37,6.04,-1.36,6.04,-1.34,1.34,1.00,1.28,7.38,7.38,7.39
106.42,5.99,-1.36,5.99,-1.34,1.33,1.02,1.31,7.32,7.32,7.35
107.48,5.95,-1.32,5.95,-1.33,1.31,1.03,1.34,7.26,7.26,7.27
108.56,5.90,-1.31,5.90,-1.30,1.30,1.04,1.36,7.20,7.20,7.22
109.64,5.85,-1.27,5.85,-1.30,1.30,1.06,1.39,7.15,7.15,7.13
110.74,5.81,-1.28,5.81,-1.28,1.30,1.07,1.42,7.12,7.12,7.09
111.85,5.77,-1.32,5.77,-1.28,1.32,1.09,1.45,7.09,7.09,7.09
112.97,5.73,-1.27,5.73,-1.31,1.34,1.10,1.47,7.07,7.07,7.00
114.10,5.70,-1.35,5.70,-1.35,1.37,1.12,1.50,7.06,7.06,7.05
115.24,5.66,-1.43,5.66,-1.40,1.41,1.13,1.52,7.07,7.07,7.09
116.39,5.64,-1.46,5.64,-1.46,1.45,1.14,1.54,7.08,7.08,7.09
117.55,5.61,-1.48,5.61,-1.49,1.48,1.16,1.56,7.09,7.09,7.09
118.73,5.59,-1.51,5.59,-1.51,1.51,1.17,1.58,7.09,7.09,7.09
119.92,5.56,-1.53,5.56,-1.54,1.51,1.19,1.60,7.07,7.07,7.09
121.12,5.54,-1.55,5.54,-1.55,1.50,1.20,1.62,7.04,7.04,7.09
122.33,5.51,-1.55,5.51,-1.52,1.47,1.22,1.63,6.99,6.99,7.06
123.55,5.48,-1.46,5.48,-1.46,1.44,1.23,1.64,6.92,6.92,6.94
124.79,5.45,-1.36,5.45,-1.38,1.41,1.24,1.65,6.86,6.86,6.81
126.03,5.42,-1.32,5.42,-1.32,1.38,1.26,1.66,6.80,6.80,6.74
127.29,5.39,-1.30,5.40,-1.31,1.35,1.27,1.67,6.75,6.75,6.69
128.57,5.37,-1.32,5.37,-1.32,1.34,1.29,1.67,6.71,6.71,6.69
129.85,5.36,-1.34,5.36,-1.33,1.34,1.30,1.67,6.69,6.69,6.69
131.15,5.34,-1.35,5.34,-1.35,1.35,1.32,1.68,6.69,6.69,6.69
132.46,5.33,-1.37,5.33,-1.37,1.37,1.33,1.68,6.70,6.70,6.69
133.79,5.31,-1.38,5.31,-1.39,1.38,1.34,1.68,6.69,6.69,6.69
135.12,5.29,-1.40,5.29,-1.41,1.38,1.36,1.67,6.67,6.67,6.69
136.48,5.27,-1.43,5.27,-1.42,1.37,1.37,1.67,6.63,6.63,6.69
137.84,5.24,-1.41,5.24,-1.40,1.34,1.39,1.66,6.58,6.58,6.65
139.22,5.20,-1.37,5.20,-1.35,1.32,1.40,1.66,6.53,6.53,6.57
140.61,5.17,-1.27,5.17,-1.28,1.31,1.42,1.65,6.48,6.48,6.43
142.02,5.13,-1.22,5.13,-1.22,1.31,1.43,1.64,6.43,6.43,6.34
143.44,5.08,-1.21,5.08,-1.22,1.31,1.44,1.64,6.39,6.39,6.29
144.87,5.04,-1.25,5.04,-1.27,1.32,1.46,1.63,6.36,6.36,6.29
146.32,4.99,-1.37,4.99,-1.36,1.34,1.47,1.62,6.33,6.33,6.36
147.78,4.95,-1.45,4.95,-1.43,1.37,1.49,1.61,6.31,6.31,6.39
149.26,4.90,-1.48,4.90,-1.47,1.40,1.50,1.60,6.30,6.30,6.38
150.75,4.85,-1.45,4.85,-1.46,1.44,1.51,1.59,6.29,6.29,6.31
152.26,4.80,-1.45,4.80,-1.45,1.47,1.53,1.59,6.27,6.27,6.25
153.78,4.76,-1.44,4.76,-1.46,1.49,1.54,1.58,6.24,6.24,6.20
155.32,4.71,-1.49,4.71,-1.47,1.49,1.55,1.57,6.20,6.20,6.19
156.88,4.66,-1.49,4.66,-1.49,1.49,1.57,1.57,6.15,6.15,6.15
158.44,4.61,-1.48,4.61,-1.51,1.49,1.58,1.56,6.10,6.10,6.09
160.03,4.56,-1.53,4.56,-1.52,1.49,1.59,1.56,6.05,6.05,6.09
161.63,4.51,-1.53,4.51,-1.52,1.51,1.61,1.55,6.02,6.02,6.04
163.24,4.46,-1.52,4.46,-1.51,1.53,1.62,1.55,5.99,5.99,5.98
164.88,4.41,-1.49,4.41,-1.51,1.55,1.63,1.55,5.96,5.96,5.90
166.53,4.36,-1.53,4.36,-1.53,1.57,1.65,1.55,5.93,5.93,5.89
168.19,4.31,-1.58,4.31,-1.58,1.59,1.66,1.55,5.90,5.90,5.89
169.87,4.26,-1.63,4.26,-1.64,1.61,1.67,1.55,5.87,5.87,5.89
171.57,4.21,-1.68,4.21,-1.68,1.63,1.69,1.55,5.84,5.84,5.89
173.29,4.16,-1.69,4.16,-1.69,1.65,1.70,1.55,5.81,5.81,5.85
175.02,4.11,-1.68,4.11,-1.68,1.66,1.71,1.56,5.77,5.77,5.79
176.77,4.06,-1.65,4.06,-1.65,1.66,1.72,1.56,5.72,5.72,5.70
178.54,4.01,-1.63,4.01,-1.64,1.66,1.74,1.57,5.67,5.67,5.64
180.32,3.96,-1.64,3.96,-1.65,1.66,1.75,1.58,5.62,5.62,5.59
182.13,3.91,-1.68,3.91,-1.66,1.67,1.76,1.59,5.58,5.58,5.59
183.95,3.86,-1.68,3.86,-1.68,1.69,1.77,1.60,5.56,5.56,5.55
185.79,3.82,-1.68,3.82,-1.69,1.72,1.78,1.61,5.54,5.54,5.49
187.65,3.77,-1.72,3.77,-1.71,1.75,1.80,1.63,5.52,5.52,5.49
189.52,3.73,-1.76,3.73,-1.78,1.77,1.81,1.64,5.50,5.50,5.49
191.42,3.69,-1.82,3.69,-1.84,1.79,1.82,1.66,5.48,5.48,5.51
193.33,3.65,-1.92,3.65,-1.87,1.81,1.83,1.67,5.46,5.46,5.57
195.27,3.61,-1.86,3.61,-1.85,1.82,1.84,1.69,5.43,5.43,5.47
197.22,3.57,-1.79,3.57,-1.82,1.84,1.85,1.71,5.40,5.40,5.35
199.19,3.52,-1.77,3.52,-1.79,1.85,1.86,1.73,5.37,5.37,5.29
201.18,3.48,-1.81,3.48,-1.81,1.85,1.87,1.75,5.33,5.33,5.29
203.19,3.44,-1.86,3.44,-1.85,1.85,1.89,1.77,5.29,5.29,5.29
205.23,3.39,-1.89,3.39,-1.88,1.85,1.90,1.79,5.24,5.24,5.29
207.28,3.35,-1.87,3.35,-1.87,1.84,1.91,1.81,5.19,5.19,5.22
209.35,3.30,-1.85,3.30,-1.87,1.84,1.92,1.83,5.14,5.14,5.15
211.44,3.25,-1.84,3.25,-1.86,1.85,1.93,1.85,5.10,5.10,5.09
213.56,3.20,-1.89,3.20,-1.85,1.85,1.94,1.88,5.05,5.05,5.09
215.69,3.15,-1.83,3.15,-1.83,1.85,1.95,1.90,5.01,5.01,4.98
217.85,3.10,-1.79,3.10,-1.83,1.86,1.96,1.92,4.96,4.96,4.89
220.03,3.05,-1.84,3.05,-1.84,1.87,1.97,1.94,4.93,4.93,4.89
222.23,3.00,-1.89,3.00,-1.89,1.89,1.97,1.96,4.90,4.90,4.89
224.45,2.95,-1.94,2.95,-1.94,1.92,1.98,1.98,4.87,4.87,4.89
226.70,2.90,-1.99,2.90,-1.97,1.95,1.99,2.00,4.85,4.85,4.89
228.96,2.85,-1.98,2.85,-1.99,1.97,2.00,2.02,4.82,4.82,4.83
231.25,2.80,-1.99,2.80,-2.01,2.00,2.01,2.04,4.80,4.80,4.79
233.57,2.75,-2.04,2.75,-2.01,2.02,2.02,2.05,4.78,4.78,4.79
235.90,2.71,-2.02,2.71,-2.04,2.04,2.03,2.07,4.75,4.75,4.73
238.26,2.66,-2.04,2.66,-2.05,2.05,2.03,2.08,4.71,4.71,4.69
240.64,2.61,-2.07,2.61,-2.05,2.07,2.04,2.09,4.67,4.67,4.68
243.05,2.56,-2.06,2.56,-2.07,2.07,2.05,2.10,4.63,4.63,4.62
245.48,2.51,-2.08,2.51,-2.09,2.08,2.06,2.11,4.59,4.59,4.59
247.93,2.46,-2.11,2.46,-2.09,2.07,2.06,2.11,4.54,4.54,4.57
250.41,2.41,-2.09,2.41,-2.10,2.07,2.07,2.12,4.48,4.48,4.51
252.92,2.36,-2.08,2.36,-2.08,2.06,2.08,2.12,4.42,4.42,4.45
255.45,2.31,-2.06,2.31,-2.05,2.05,2.08,2.12,4.37,4.37,4.38
258.00,2.26,-2.03,2.26,-2.03,2.06,2.09,2.12,4.32,4.32,4.29
260.58,2.21,-2.01,2.21,-2.02,2.07,2.10,2.11,4.28,4.28,4.23
263.19,2.16,-2.03,2.16,-2.04,2.08,2.10,2.11,4.25,4.25,4.19
265.82,2.11,-2.08,2.11,-2.07,2.10,2.11,2.10,4.21,4.21,4.19
268.48,2.06,-2.13,2.06,-2.13,2.12,2.11,2.09,4.18,4.18,4.19
271.16,2.01,-2.18,2.01,-2.18,2.14,2.12,2.08,4.16,4.16,4.19
273.87,1.97,-2.23,1.97,-2.21,2.17,2.12,2.07,4.13,4.13,4.19
276.61,1.92,-2.21,1.92,-2.21,2.18,2.13,2.06,4.10,4.10,4.13
279.38,1.87,-2.19,1.87,-2.20,2.19,2.13,2.05,4.06,4.06,4.06
282.17,1.82,-2.17,1.82,-2.17,2.20,2.14,2.03,4.01,4.01,3.99
284.99,1.77,-2.15,1.77,-2.17,2.19,2.14,2.02,3.96,3.96,3.92
287.84,1.72,-2.18,1.72,-2.18,2.19,2.15,2.00,3.90,3.90,3.89
290.72,1.67,-2.21,1.67,-2.19,2.18,2.15,1.99,3.85,3.85,3.88
293.63,1.62,-2.19,1.62,-2.18,2.18,2.15,1.97,3.80,3.80,3.80
296.57,1.57,-2.16,1.57,-2.18,2.18,2.16,1.96,3.75,3.75,3.73
299.53,1.52,-2.18,1.52,-2.19,2.19,2.16,1.94,3.70,3.70,3.69
302.53,1.47,-2.23,1.47,-2.20,2.19,2.16,1.93,3.66,3.66,3.69
305.55,1.42,-2.21,1.42,-2.20,2.20,2.17,1.91,3.62,3.62,3.63
308.61,1.37,-2.19,1.37,-2.20,2.20,2.17,1.90,3.58,3.58,3.56
311.69,1.32,-2.18,1.32,-2.20,2.22,2.17,1.89,3.54,3.54,3.50
314.81,1.28,-2.22,1.28,-2.20,2.23,2.17,1.88,3.51,3.51,3.49
317.96,1.23,-2.23,1.23,-2.22,2.24,2.17,1.87,3.46,3.46,3.45
321.14,1.18,-2.21,1.18,-2.24,2.23,2.17,1.86,3.41,3.41,3.39
324.35,1.13,-2.26,1.13,-2.25,2.21,2.18,1.85,3.35,3.35,3.39
327.59,1.09,-2.25,1.09,-2.24,2.18,2.18,1.84,3.27,3.27,3.34
330.87,1.04,-2.22,1.04,-2.21,2.15,2.18,1.83,3.19,3.19,3.26
334.18,1.00,-2.13,1.00,-2.13,2.11,2.18,1.83,3.11,3.11,3.13
337.52,0.95,-2.04,0.95,-2.05,2.08,2.18,1.83,3.03,3.03,2.99
340.90,0.90,-1.97,0.90,-1.98,2.05,2.18,1.82,2.95,2.95,2.88
344.30,0.86,-1.95,0.86,-1.96,2.02,2.18,1.82,2.88,2.88,2.81
347.75,0.81,-1.98,0.81,-1.98,2.01,2.18,1.82,2.83,2.83,2.79
351.23,0.77,-2.02,0.77,-2.02,2.02,2.18,1.83,2.78,2.78,2.79
354.74,0.72,-2.07,0.72,-2.07,2.04,2.18,1.83,2.76,2.76,2.79
358.28,0.68,-2.11,0.68,-2.10,2.07,2.18,1.84,2.75,2.75,2.79
361.87,0.64,-2.12,0.64,-2.11,2.11,2.17,1.84,2.74,2.74,2.76
365.49,0.59,-2.10,0.59,-2.12,2.14,2.17,1.85,2.73,2.73,2.69
369.14,0.55,-2.14,0.55,-2.15,2.16,2.17,1.86,2.71,2.71,2.69
372.83,0.51,-2.19,0.51,-2.18,2.18,2.17,1.87,2.68,2.68,2.69
376.56,0.46,-2.22,0.46,-2.21,2.17,2.17,1.88,2.64,2.64,2.68
380.33,0.42,-2.20,0.42,-2.20,2.17,2.16,1.89,2.58,2.58,2.62
384.13,0.38,-2.17,0.38,-2.18,2.16,2.16,1.91,2.53,2.53,2.55
387.97,0.33,-2.14,0.33,-2.14,2.14,2.16,1.92,2.48,2.48,2.48
391.85,0.29,-2.12,0.29,-2.11,2.14,2.15,1.94,2.43,2.43,2.41
395.77,0.25,-2.09,0.25,-2.09,2.13,2.15,1.96,2.38,2.38,2.34
399.73,0.21,-2.08,0.21,-2.10,2.14,2.15,1.98,2.35,2.35,2.29
403.72,0.17,-2.12,0.17,-2.12,2.15,2.14,2.00,2.32,2.32,2.29
407.76,0.13,-2.16,0.13,-2.16,2.18,2.14,2.02,2.31,2.31,2.29
411.84,0.09,-2.20,0.09,-2.21,2.20,2.13,2.04,2.29,2.29,2.29
415.96,0.05,-2.24,0.05,-2.25,2.22,2.13,2.06,2.28,2.28,2.29
420.12,0.01,-2.28,0.01,-2.27,2.23,2.12,2.08,2.25,2.25,2.29
424.32,-0.03,-2.28,-0.03,-2.28,2.23,2.12,2.10,2.20,2.20,2.25
428.56,-0.06,-2.25,-0.06,-2.26,2.21,2.11,2.12,2.15,2.15,2.18
432.85,-0.10,-2.21,-0.10,-2.20,2.18,2.11,2.14,2.08,2.08,2.11
437.18,-0.14,-2.14,-0.14,-2.13,2.15,2.10,2.16,2.01,2.01,2.00
441.55,-0.17,-2.06,-0.17,-2.07,2.12,2.09,2.18,1.95,1.95,1.88
445.96,-0.21,-2.02,-0.21,-2.03,2.10,2.09,2.20,1.89,1.89,1.81
450.42,-0.25,-2.04,-0.25,-2.04,2.08,2.08,2.21,1.83,1.83,1.79
454.93,-0.28,-2.07,-0.28,-2.07,2.07,2.07,2.23,1.79,1.79,1.79
459.48,-0.32,-2.11,-0.32,-2.09,2.07,2.07,2.24,1.75,1.75,1.79
464.07,-0.35,-2.08,-0.35,-2.10,2.07,2.06,2.25,1.72,1.72,1.74
468.71,-0.38,-2.08,-0.38,-2.10,2.07,2.05,2.26,1.69,1.69,1.69
473.40,-0.42,-2.11,-0.42,-2.09,2.07,2.04,2.27,1.65,1.65,1.69
478.13,-0.45,-2.08,-0.45,-2.08,2.06,2.03,2.28,1.61,1.61,1.63
482.91,-0.48,-2.05,-0.48,-2.05,2.05,2.02,2.28,1.57,1.57,1.57
487.74,-0.51,-2.01,-0.51,-2.00,2.03,2.02,2.28,1.52,1.52,1.50
492.62,-0.54,-1.97,-0.54,-1.98,2.02,2.01,2.28,1.48,1.48,1.43
497.55,-0.57,-1.96,-0.57,-1.98,2.01,2.00,2.27,1.43,1.44,1.39
502.52,-0.60,-1.99,-0.60,-1.99,1.99,1.99,2.26,1.39,1.39,1.39
507.55,-0.63,-2.02,-0.63,-2.01,1.97,1.98,2.25,1.34,1.34,1.39
512.62,-0.65,-2.00,-0.65,-2.00,1.95,1.97,2.24,1.30,1.30,1.35
517.75,-0.68,-1.96,-0.68,-1.96,1.94,1.96,2.22,1.26,1.26,1.28
522.93,-0.71,-1.91,-0.71,-1.91,1.93,1.94,2.20,1.22,1.22,1.21
528.16,-0.73,-1.87,-0.73,-1.87,1.91,1.93,2.18,1.18,1.18,1.14
533.44,-0.75,-1.84,-0.75,-1.86,1.89,1.92,2.15,1.14,1.14,1.09
538.77,-0.77,-1.87,-0.77,-1.87,1.87,1.91,2.13,1.10,1.10,1.09
544.16,-0.79,-1.88,-0.79,-1.87,1.85,1.90,2.10,1.06,1.06,1.09
549.60,-0.81,-1.87,-0.81,-1.86,1.84,1.89,2.07,1.03,1.03,1.06
555.10,-0.83,-1.82,-0.83,-1.85,1.83,1.87,2.04,1.01,1.01,0.99
560.65,-0.85,-1.84,-0.85,-1.83,1.84,1.86,2.00,0.99,0.99,0.99
566.25,-0.87,-1.83,-0.87,-1.82,1.85,1.85,1.97,0.97,0.97,0.96
