frequency,raw,error,smoothed,error_smoothed,equalization,parametric_eq,fixed_band_eq,equalized_raw,equalized_smoothed,target
20.00,5.38,0.29,5.39,0.29,-0.27,-0.60,-0.51,5.12,5.12,5.10
20.20,5.40,0.29,5.40,0.28,-0.28,-0.61,-0.53,5.12,5.12,5.11
20.40,5.42,0.29,5.41,0.29,-0.29,-0.62,-0.54,5.12,5.12,5.13
20.61,5.43,0.29,5.44,0.30,-0.31,-0.63,-0.56,5.12,5.13,5.14
20.81,5.48,0.31,5.48,0.31,-0.33,-0.64,-0.58,5.15,5.14,5.16
21.02,5.52,0.34,5.52,0.34,-0.35,-0.66,-0.59,5.17,5.17,5.18
21.23,5.57,0.38,5.57,0.38,-0.38,-0.67,-0.61,5.19,5.19,5.20
21.44,5.62,0.41,5.62,0.41,-0.41,-0.68,-0.63,5.21,5.21,5.21
21.66,5.66,0.45,5.66,0.45,-0.44,-0.70,-0.65,5.22,5.22,5.22
21.87,5.71,0.48,5.71,0.48,-0.48,-0.71,-0.67,5.23,5.23,5.23
22.09,5.75,0.52,5.75,0.52,-0.51,-0.72,-0.68,5.24,5.24,5.23
22.31,5.79,0.55,5.79,0.55,-0.55,-0.74,-0.70,5.24,5.24,5.24
22.54,5.84,0.59,5.84,0.59,-0.59,-0.75,-0.72,5.25,5.25,5.25
22.76,5.88,0.62,5.88,0.62,-0.62,-0.76,-0.75,5.26,5.26,5.26
22.99,5.92,0.65,5.92,0.65,-0.65,-0.78,-0.77,5.27,5.27,5.27
23.22,5.97,0.68,5.97,0.69,-0.69,-0.79,-0.79,5.28,5.28,5.28
23.45,6.01,0.72,6.01,0.72,-0.72,-0.81,-0.81,5.28,5.28,5.29
23.69,6.05,0.75,6.04,0.75,-0.75,-0.82,-0.84,5.29,5.29,5.29
23.92,6.08,0.79,6.08,0.79,-0.79,-0.84,-0.86,5.30,5.29,5.30
24.16,6.12,0.82,6.12,0.82,-0.82,-0.85,-0.88,5.30,5.30,5.30
24.40,6.15,0.85,6.15,0.85,-0.85,-0.87,-0.91,5.30,5.30,5.30
24.65,6.18,0.88,6.18,0.88,-0.88,-0.88,-0.93,5.30,5.30,5.30
24.89,6.21,0.91,6.21,0.90,-0.90,-0.90,-0.96,5.31,5.31,5.30
25.14,6.24,0.93,6.24,0.93,-0.92,-0.91,-0.98,5.31,5.31,5.31
25.39,6.27,0.95,6.27,0.95,-0.95,-0.93,-1.01,5.32,5.32,5.32
25.65,6.30,0.97,6.30,0.97,-0.97,-0.95,-1.03,5.33,5.33,5.33
25.91,6.33,0.99,6.33,0.99,-0.99,-0.96,-1.06,5.34,5.34,5.35
26.16,6.36,1.01,6.36,1.01,-1.01,-0.98,-1.08,5.35,5.35,5.36
26.43,6.40,1.03,6.39,1.03,-1.03,-1.00,-1.11,5.36,5.36,5.37
26.69,6.43,1.05,6.43,1.05,-1.05,-1.01,-1.13,5.37,5.37,5.37
26.96,6.45,1.08,6.45,1.08,-1.08,-1.03,-1.16,5.38,5.38,5.38
27.23,6.48,1.10,6.48,1.10,-1.10,-1.05,-1.18,5.38,5.38,5.38
27.50,6.51,1.13,6.51,1.13,-1.13,-1.06,-1.21,5.38,5.38,5.38
27.77,6.54,1.16,6.54,1.16,-1.16,-1.08,-1.23,5.39,5.39,5.39
28.05,6.58,1.19,6.58,1.19,-1.19,-1.10,-1.25,5.39,5.39,5.39
28.33,6.61,1.22,6.61,1.22,-1.22,-1.12,-1.27,5.39,5.39,5.39
28.62,6.64,1.24,6.64,1.24,-1.24,-1.14,-1.29,5.40,5.40,5.40
28.90,6.67,1.27,6.67,1.27,-1.27,-1.15,-1.31,5.41,5.41,5.41
29.19,6.71,1.29,6.71,1.29,-1.29,-1.17,-1.33,5.41,5.41,5.41
29.48,6.73,1.32,6.73,1.32,-1.31,-1.19,-1.35,5.42,5.42,5.42
29.78,6.76,1.34,6.76,1.34,-1.33,-1.21,-1.36,5.43,5.43,5.43
30.08,6.79,1.35,6.79,1.35,-1.35,-1.23,-1.38,5.44,5.44,5.43
30.38,6.81,1.37,6.81,1.37,-1.37,-1.25,-1.39,5.44,5.44,5.44
30.68,6.84,1.38,6.84,1.38,-1.38,-1.26,-1.40,5.45,5.45,5.45
30.99,6.86,1.40,6.86,1.40,-1.40,-1.28,-1.41,5.46,5.46,5.46
31.30,6.88,1.41,6.88,1.41,-1.42,-1.30,-1.42,5.46,5.46,5.47
31.61,6.90,1.43,6.90,1.43,-1.43,-1.32,-1.43,5.47,5.47,5.47
31.93,6.93,1.45,6.93,1.45,-1.45,-1.34,-1.43,5.47,5.47,5.48
32.24,6.95,1.47,6.95,1.47,-1.47,-1.36,-1.44,5.48,5.48,5.48
32.57,6.97,1.49,6.97,1.49,-1.48,-1.38,-1.44,5.48,5.48,5.48
32.89,6.99,1.51,6.99,1.51,-1.50,-1.39,-1.44,5.49,5.49,5.48
33.22,7.01,1.52,7.01,1.52,-1.52,-1.41,-1.44,5.49,5.49,5.49
33.55,7.02,1.53,7.02,1.53,-1.53,-1.43,-1.44,5.49,5.49,5.49
33.89,7.04,1.54,7.04,1.54,-1.55,-1.45,-1.44,5.50,5.50,5.50
34.23,7.06,1.56,7.06,1.56,-1.56,-1.47,-1.44,5.50,5.50,5.51
34.57,7.08,1.57,7.08,1.57,-1.58,-1.48,-1.43,5.50,5.50,5.51
34.92,7.10,1.59,7.10,1.59,-1.59,-1.50,-1.43,5.51,5.51,5.51
35.27,7.12,1.61,7.12,1.61,-1.61,-1.52,-1.42,5.51,5.51,5.51
35.62,7.13,1.62,7.13,1.62,-1.62,-1.53,-1.42,5.51,5.51,5.51
35.97,7.15,1.64,7.15,1.64,-1.63,-1.55,-1.41,5.52,5.52,5.51
36.33,7.17,1.65,7.17,1.65,-1.64,-1.57,-1.40,5.53,5.52,5.52
36.70,7.18,1.66,7.18,1.65,-1.65,-1.58,-1.40,5.53,5.53,5.53
37.06,7.20,1.66,7.20,1.66,-1.66,-1.60,-1.39,5.54,5.54,5.54
37.43,7.21,1.66,7.21,1.66,-1.66,-1.61,-1.38,5.55,5.55,5.55
37.81,7.22,1.66,7.22,1.66,-1.67,-1.63,-1.38,5.56,5.56,5.56
38.19,7.24,1.67,7.24,1.67,-1.67,-1.64,-1.37,5.57,5.57,5.57
38.57,7.25,1.67,7.25,1.67,-1.68,-1.66,-1.37,5.57,5.57,5.58
38.95,7.26,1.68,7.26,1.68,-1.69,-1.67,-1.36,5.58,5.58,5.58
39.34,7.27,1.69,7.27,1.69,-1.69,-1.68,-1.36,5.58,5.58,5.58
39.74,7.29,1.70,7.29,1.70,-1.70,-1.70,-1.36,5.58,5.58,5.58
40.14,7.30,1.71,7.30,1.71,-1.71,-1.71,-1.35,5.59,5.59,5.58
40.54,7.31,1.72,7.31,1.72,-1.72,-1.72,-1.35,5.59,5.59,5.59
40.94,7.32,1.73,7.32,1.73,-1.72,-1.73,-1.35,5.59,5.59,5.59
41.35,7.32,1.73,7.32,1.73,-1.72,-1.74,-1.35,5.60,5.60,5.59
41.76,7.33,1.73,7.33,1.73,-1.73,-1.75,-1.35,5.61,5.61,5.60
42.18,7.34,1.72,7.34,1.72,-1.73,-1.76,-1.35,5.61,5.61,5.62
42.60,7.35,1.72,7.35,1.72,-1.73,-1.76,-1.36,5.61,5.61,5.63
43.03,7.35,1.72,7.35,1.73,-1.74,-1.77,-1.36,5.62,5.62,5.63
43.46,7.36,1.74,7.36,1.73,-1.74,-1.78,-1.37,5.62,5.62,5.63
43.90,7.37,1.75,7.37,1.75,-1.74,-1.78,-1.37,5.63,5.63,5.62
44.33,7.38,1.75,7.38,1.75,-1.75,-1.79,-1.38,5.63,5.63,5.62
44.78,7.38,1.76,7.38,1.76,-1.75,-1.79,-1.39,5.63,5.63,5.62
45.23,7.39,1.76,7.39,1.76,-1.76,-1.80,-1.40,5.63,5.63,5.63
45.68,7.39,1.76,7.39,1.76,-1.76,-1.80,-1.41,5.63,5.63,5.63
46.13,7.39,1.75,7.39,1.76,-1.76,-1.80,-1.42,5.63,5.63,5.64
46.60,7.39,1.75,7.40,1.75,-1.76,-1.80,-1.43,5.63,5.63,5.64
47.06,7.40,1.76,7.40,1.76,-1.76,-1.81,-1.45,5.64,5.64,5.64
47.53,7.40,1.76,7.40,1.76,-1.76,-1.81,-1.46,5.64,5.64,5.64
48.01,7.40,1.76,7.40,1.76,-1.75,-1.80,-1.48,5.65,5.65,5.64
48.49,7.41,1.75,7.41,1.75,-1.75,-1.80,-1.49,5.66,5.66,5.65
48.97,7.41,1.75,7.41,1.75,-1.75,-1.80,-1.51,5.66,5.66,5.66
49.46,7.41,1.74,7.41,1.74,-1.74,-1.80,-1.53,5.66,5.66,5.67
49.96,7.41,1.73,7.41,1.73,-1.74,-1.79,-1.55,5.67,5.67,5.68
50.46,7.41,1.73,7.41,1.73,-1.73,-1.79,-1.57,5.67,5.67,5.68
50.96,7.41,1.73,7.41,1.73,-1.73,-1.78,-1.59,5.68,5.68,5.68
51.47,7.41,1.73,7.41,1.73,-1.72,-1.78,-1.61,5.69,5.69,5.68
51.99,7.41,1.72,7.41,1.72,-1.71,-1.77,-1.63,5.70,5.70,5.68
52.51,7.40,1.71,7.40,1.71,-1.70,-1.76,-1.65,5.70,5.70,5.69
53.03,7.40,1.68,7.40,1.69,-1.69,-1.76,-1.67,5.71,5.71,5.71
53.56,7.39,1.66,7.39,1.67,-1.68,-1.75,-1.69,5.71,5.71,5.73
54.10,7.39,1.66,7.39,1.66,-1.67,-1.74,-1.71,5.71,5.71,5.73
54.64,7.38,1.67,7.38,1.66,-1.66,-1.73,-1.72,5.72,5.72,5.72
55.18,7.38,1.67,7.38,1.66,-1.66,-1.72,-1.74,5.72,5.72,5.71
55.74,7.37,1.66,7.37,1.66,-1.65,-1.71,-1.76,5.73,5.73,5.72
56.29,7.37,1.64,7.37,1.64,-1.64,-1.70,-1.77,5.73,5.73,5.73
56.86,7.37,1.63,7.37,1.63,-1.63,-1.68,-1.79,5.73,5.73,5.74
57.42,7.36,1.62,7.36,1.62,-1.63,-1.67,-1.80,5.73,5.73,5.74
58.00,7.35,1.62,7.35,1.62,-1.62,-1.66,-1.81,5.73,5.73,5.73
58.58,7.35,1.61,7.35,1.61,-1.61,-1.65,-1.82,5.73,5.73,5.73
59.16,7.34,1.60,7.34,1.60,-1.61,-1.63,-1.83,5.73,5.73,5.74
59.76,7.33,1.58,7.33,1.59,-1.60,-1.62,-1.83,5.73,5.73,5.75
60.35,7.32,1.59,7.32,1.60,-1.59,-1.61,-1.84,5.73,5.73,5.73
60.96,7.31,1.60,7.31,1.60,-1.58,-1.59,-1.84,5.73,5.73,5.71
61.57,7.30,1.60,7.30,1.59,-1.57,-1.58,-1.84,5.74,5.74,5.70
62.18,7.29,1.56,7.29,1.56,-1.55,-1.56,-1.83,5.74,5.74,5.74
62.80,7.28,1.52,7.28,1.53,-1.54,-1.55,-1.82,5.74,5.74,5.77
63.43,7.28,1.51,7.28,1.51,-1.53,-1.53,-1.81,5.75,5.75,5.77
64.07,7.27,1.51,7.27,1.50,-1.52,-1.52,-1.80,5.75,5.75,5.75
64.71,7.26,1.50,7.26,1.50,-1.51,-1.50,-1.79,5.75,5.75,5.75
65.35,7.24,1.50,7.24,1.50,-1.50,-1.49,-1.77,5.75,5.75,5.75
66.01,7.23,1.49,7.23,1.49,-1.49,-1.47,-1.75,5.75,5.75,5.74
66.67,7.22,1.49,7.22,1.48,-1.48,-1.46,-1.73,5.74,5.74,5.73
67.33,7.21,1.47,7.21,1.47,-1.47,-1.44,-1.71,5.74,5.74,5.73
68.01,7.19,1.46,7.19,1.46,-1.46,-1.43,-1.68,5.74,5.73,5.73
68.69,7.18,1.45,7.18,1.45,-1.44,-1.41,-1.65,5.73,5.73,5.73
69.37,7.16,1.43,7.16,1.43,-1.43,-1.40,-1.63,5.73,5.73,5.73
70.07,7.15,1.41,7.15,1.41,-1.41,-1.38,-1.60,5.73,5.73,5.74
70.77,7.13,1.39,7.13,1.39,-1.40,-1.37,-1.56,5.73,5.73,5.74
71.48,7.11,1.37,7.11,1.38,-1.38,-1.35,-1.53,5.73,5.73,5.74
72.19,7.10,1.36,7.10,1.37,-1.37,-1.34,-1.50,5.73,5.73,5.73
72.91,7.08,1.36,7.08,1.35,-1.35,-1.32,-1.46,5.73,5.73,5.72
73.64,7.06,1.34,7.06,1.34,-1.33,-1.31,-1.43,5.73,5.73,5.72
74.38,7.04,1.32,7.04,1.32,-1.31,-1.29,-1.39,5.73,5.73,5.73
75.12,7.02,1.29,7.02,1.30,-1.30,-1.28,-1.35,5.72,5.72,5.73
75.87,7.00,1.28,7.00,1.27,-1.28,-1.26,-1.32,5.72,5.72,5.72
76.63,6.98,1.26,6.98,1.25,-1.26,-1.25,-1.28,5.73,5.73,5.72
77.40,6.96,1.23,6.96,1.24,-1.23,-1.23,-1.25,5.73,5.73,5.73
78.17,6.94,1.21,6.94,1.21,-1.21,-1.21,-1.21,5.73,5.73,5.73
78.95,6.92,1.19,6.92,1.19,-1.19,-1.19,-1.17,5.73,5.73,5.73
79.74,6.90,1.16,6.90,1.16,-1.16,-1.17,-1.14,5.73,5.73,5.73
80.54,6.87,1.14,6.87,1.14,-1.14,-1.15,-1.10,5.73,5.73,5.74
81.35,6.85,1.12,6.85,1.12,-1.12,-1.13,-1.07,5.73,5.73,5.74
82.16,6.83,1.09,6.83,1.09,-1.10,-1.11,-1.03,5.73,5.73,5.73
82.98,6.81,1.07,6.81,1.07,-1.07,-1.09,-1.00,5.73,5.73,5.73
83.81,6.78,1.05,6.78,1.05,-1.05,-1.07,-0.96,5.73,5.73,5.73
84.65,6.76,1.03,6.76,1.03,-1.03,-1.05,-0.93,5.73,5.73,5.73
85.50,6.73,1.01,6.73,1.01,-1.00,-1.02,-0.90,5.73,5.73,5.73
86.35,6.71,0.98,6.71,0.98,-0.98,-1.00,-0.87,5.73,5.72,5.72
87.22,6.68,0.95,6.68,0.96,-0.96,-0.97,-0.84,5.72,5.72,5.73
88.09,6.65,0.93,6.65,0.93,-0.93,-0.94,-0.80,5.72,5.72,5.72
88.97,6.62,0.91,6.63,0.91,-0.91,-0.92,-0.78,5.72,5.72,5.71
89.86,6.60,0.89,6.60,0.89,-0.88,-0.89,-0.75,5.71,5.71,5.71
90.76,6.57,0.86,6.57,0.86,-0.86,-0.86,-0.72,5.71,5.71,5.71
91.66,6.54,0.83,6.54,0.83,-0.83,-0.83,-0.69,5.70,5.70,5.71
92.58,6.51,0.81,6.51,0.81,-0.81,-0.80,-0.66,5.70,5.70,5.70
93.51,6.48,0.78,6.48,0.78,-0.78,-0.77,-0.64,5.70,5.70,5.70
94.44,6.45,0.75,6.45,0.75,-0.75,-0.74,-0.61,5.69,5.69,5.69
95.39,6.41,0.72,6.41,0.72,-0.72,-0.71,-0.58,5.69,5.69,5.69
96.34,6.38,0.69,6.38,0.69,-0.69,-0.68,-0.56,5.69,5.69,5.69
97.30,6.35,0.66,6.35,0.66,-0.66,-0.65,-0.54,5.68,5.68,5.69
98.28,6.31,0.63,6.31,0.63,-0.63,-0.62,-0.51,5.68,5.68,5.68
99.26,6.27,0.59,6.27,0.60,-0.60,-0.59,-0.49,5.68,5.68,5.68
100.25,6.24,0.56,6.24,0.56,-0.56,-0.56,-0.47,5.67,5.67,5.67
101.25,6.20,0.53,6.20,0.53,-0.53,-0.53,-0.44,5.67,5.67,5.67
102.27,6.16,0.50,6.16,0.50,-0.50,-0.50,-0.42,5.66,5.67,5.66
103.29,6.12,0.46,6.12,0.46,-0.46,-0.47,-0.40,5.66,5.66,5.66
104.32,6.08,0.43,6.08,0.43,-0.42,-0.44,-0.38,5.66,5.66,5.65
105.37,6.04,0.39,6.04,0.39,-0.38,-0.41,-0.36,5.65,5.65,5.65
106.42,5.99,0.35,5.99,0.35,-0.34,-0.39,-0.34,5.65,5.65,5.65
107.48,5.95,0.31,5.95,0.31,-0.30,-0.36,-0.32,5.64,5.64,5.64
108.56,5.90,0.26,5.90,0.26,-0.26,-0.33,-0.29,5.64,5.64,5.64
109.64,5.85,0.22,5.85,0.22,-0.22,-0.30,-0.27,5.63,5.63,5.63
110.74,5.81,0.18,5.81,0.18,-0.19,-0.27,-0.25,5.62,5.62,5.63
111.85,5.77,0.15,5.77,0.15,-0.15,-0.25,-0.23,5.62,5.62,5.62
112.97,5.73,0.12,5.73,0.12,-0.12,-0.22,-0.21,5.61,5.61,5.61
114.10,5.70,0.09,5.70,0.09,-0.09,-0.19,-0.19,5.61,5.61,5.61
115.24,5.66,0.06,5.66,0.06,-0.06,-0.16,-0.17,5.60,5.60,5.60
116.39,5.64,0.04,5.64,0.04,-0.04,-0.14,-0.15,5.60,5.60,5.60
117.55,5.61,0.02,5.61,0.02,-0.02,-0.11,-0.13,5.59,5.59,5.59
118.73,5.59,-0.00,5.59,-0.00,0.00,-0.08,-0.11,5.59,5.59,5.59
119.92,5.56,-0.02,5.56,-0.02,0.02,-0.06,-0.09,5.59,5.59,5.58
121.12,5.54,-0.04,5.54,-0.04,0.04,-0.03,-0.07,5.58,5.58,5.58
122.33,5.51,-0.06,5.51,-0.06,0.06,-0.01,-0.05,5.58,5.58,5.57
123.55,5.48,-0.08,5.48,-0.08,0.09,0.02,-0.03,5.57,5.57,5.56
124.79,5.45,-0.10,5.45,-0.10,0.11,0.05,-0.00,5.56,5.56,5.56
126.03,5.42,-0.13,5.42,-0.13,0.12,0.07,0.02,5.54,5.54,5.55
127.29,5.39,-0.15,5.40,-0.15,0.14,0.10,0.04,5.53,5.54,5.54
128.57,5.37,-0.16,5.37,-0.16,0.15,0.12,0.06,5.53,5.53,5.54
129.85,5.36,-0.17,5.36,-0.17,0.17,0.15,0.09,5.52,5.52,5.53
131.15,5.34,-0.18,5.34,-0.18,0.18,0.17,0.11,5.52,5.52,5.52
132.46,5.33,-0.19,5.33,-0.19,0.19,0.20,0.14,5.51,5.51,5.51
133.79,5.31,-0.19,5.31,-0.19,0.20,0.23,0.16,5.51,5.51,5.50
135.12,5.29,-0.20,5.29,-0.21,0.21,0.25,0.19,5.50,5.50,5.50
136.48,5.27,-0.22,5.27,-0.22,0.23,0.28,0.21,5.49,5.49,5.49
137.84,5.24,-0.24,5.24,-0.24,0.25,0.30,0.24,5.48,5.48,5.48
139.22,5.20,-0.27,5.20,-0.27,0.27,0.33,0.27,5.47,5.47,5.47
140.61,5.17,-0.29,5.17,-0.29,0.30,0.36,0.29,5.46,5.46,5.46
142.02,5.13,-0.33,5.13,-0.33,0.33,0.38,0.32,5.45,5.45,5.45
143.44,5.08,-0.36,5.08,-0.36,0.36,0.41,0.35,5.44,5.44,5.44
144.87,5.04,-0.40,5.04,-0.40,0.39,0.44,0.38,5.43,5.43,5.44
146.32,4.99,-0.43,4.99,-0.43,0.43,0.46,0.41,5.42,5.42,5.43
147.78,4.95,-0.47,4.95,-0.47,0.47,0.49,0.44,5.41,5.41,5.42
149.26,4.90,-0.51,4.90,-0.51,0.50,0.52,0.47,5.40,5.40,5.40
150.75,4.85,-0.54,4.85,-0.54,0.54,0.54,0.50,5.39,5.39,5.39
152.26,4.80,-0.58,4.80,-0.58,0.58,0.57,0.53,5.38,5.38,5.38
153.78,4.76,-0.61,4.76,-0.62,0.62,0.60,0.57,5.37,5.37,5.37
155.32,4.71,-0.65,4.71,-0.65,0.65,0.63,0.60,5.36,5.36,5.36
156.88,4.66,-0.69,4.66,-0.69,0.69,0.66,0.63,5.35,5.35,5.35
158.44,4.61,-0.73,4.61,-0.73,0.73,0.69,0.67,5.34,5.34,5.34
160.03,4.56,-0.76,4.56,-0.76,0.76,0.72,0.70,5.32,5.32,5.32
161.63,4.51,-0.80,4.51,-0.80,0.80,0.75,0.74,5.31,5.31,5.31
163.24,4.46,-0.84,4.46,-0.84,0.84,0.78,0.78,5.30,5.30,5.30
164.88,4.41,-0.88,4.41,-0.87,0.88,0.81,0.81,5.29,5.29,5.29
166.53,4.36,-0.91,4.36,-0.91,0.91,0.84,0.85,5.27,5.27,5.27
168.19,4.31,-0.95,4.31,-0.95,0.95,0.87,0.89,5.26,5.26,5.26
169.87,4.26,-0.99,4.26,-0.98,0.98,0.90,0.93,5.24,5.24,5.25
171.57,4.21,-1.02,4.21,-1.02,1.02,0.93,0.97,5.23,5.23,5.23
173.29,4.16,-1.05,4.16,-1.05,1.06,0.97,1.01,5.21,5.21,5.21
175.02,4.11,-1.09,4.11,-1.09,1.09,1.00,1.06,5.20,5.20,5.20
176.77,4.06,-1.12,4.06,-1.12,1.12,1.03,1.10,5.18,5.18,5.18
178.54,4.01,-1.16,4.01,-1.16,1.16,1.07,1.14,5.16,5.16,5.16
180.32,3.96,-1.19,3.96,-1.19,1.19,1.10,1.19,5.15,5.15,5.15
182.13,3.91,-1.22,3.91,-1.22,1.22,1.14,1.23,5.13,5.13,5.13
183.95,3.86,-1.24,3.86,-1.24,1.24,1.18,1.28,5.11,5.11,5.11
185.79,3.82,-1.27,3.82,-1.27,1.27,1.21,1.33,5.08,5.08,5.09
187.65,3.77,-1.29,3.77,-1.29,1.29,1.25,1.38,5.06,5.06,5.07
189.52,3.73,-1.31,3.73,-1.31,1.31,1.29,1.42,5.04,5.04,5.04
191.42,3.69,-1.33,3.69,-1.33,1.32,1.33,1.47,5.01,5.01,5.02
193.33,3.65,-1.35,3.65,-1.35,1.34,1.37,1.52,4.99,4.99,5.00
195.27,3.61,-1.37,3.61,-1.36,1.36,1.41,1.58,4.97,4.97,4.97
197.22,3.57,-1.38,3.57,-1.39,1.39,1.45,1.63,4.95,4.95,4.95
199.19,3.52,-1.41,3.52,-1.41,1.43,1.50,1.68,4.95,4.95,4.94
201.18,3.48,-1.45,3.48,-1.45,1.48,1.54,1.73,4.96,4.96,4.93
203.19,3.44,-1.51,3.44,-1.51,1.54,1.58,1.78,4.97,4.97,4.94
205.23,3.39,-1.59,3.39,-1.59,1.61,1.63,1.84,5.00,5.00,4.98
207.28,3.35,-1.68,3.35,-1.68,1.68,1.68,1.89,5.03,5.03,5.02
209.35,3.30,-1.77,3.30,-1.77,1.76,1.72,1.94,5.06,5.06,5.07
211.44,3.25,-1.86,3.25,-1.86,1.84,1.77,1.99,5.09,5.09,5.11
213.56,3.20,-1.94,3.20,-1.94,1.91,1.82,2.05,5.12,5.12,5.14
215.69,3.15,-1.99,3.15,-2.00,1.98,1.87,2.10,5.13,5.13,5.15
217.85,3.10,-2.04,3.10,-2.04,2.03,1.91,2.15,5.14,5.14,5.15
220.03,3.05,-2.09,3.05,-2.08,2.08,1.96,2.20,5.13,5.13,5.14
222.23,3.00,-2.11,3.00,-2.11,2.12,2.01,2.25,5.12,5.12,5.11
224.45,2.95,-2.14,2.95,-2.14,2.15,2.06,2.29,5.10,5.10,5.09
226.70,2.90,-2.17,2.90,-2.17,2.18,2.11,2.34,5.08,5.08,5.07
228.96,2.85,-2.20,2.85,-2.20,2.20,2.15,2.38,5.06,5.06,5.05
231.25,2.80,-2.23,2.80,-2.23,2.23,2.20,2.42,5.03,5.03,5.03
233.57,2.75,-2.26,2.75,-2.25,2.26,2.24,2.46,5.01,5.01,5.01
235.90,2.71,-2.28,2.71,-2.28,2.28,2.29,2.50,4.99,4.99,4.99
238.26,2.66,-2.31,2.66,-2.31,2.31,2.33,2.53,4.97,4.97,4.96
240.64,2.61,-2.33,2.61,-2.34,2.33,2.37,2.56,4.94,4.94,4.94
243.05,2.56,-2.36,2.56,-2.36,2.36,2.41,2.59,4.92,4.92,4.93
245.48,2.51,-2.39,2.51,-2.39,2.39,2.44,2.62,4.90,4.90,4.90
247.93,2.46,-2.41,2.46,-2.41,2.41,2.48,2.64,4.88,4.88,4.88
250.41,2.41,-2.44,2.41,-2.44,2.44,2.51,2.66,4.85,4.85,4.85
252.92,2.36,-2.47,2.36,-2.46,2.47,2.54,2.68,4.83,4.83,4.83
255.45,2.31,-2.49,2.31,-2.49,2.49,2.57,2.69,4.81,4.81,4.81
258.00,2.26,-2.52,2.26,-2.52,2.52,2.59,2.71,4.78,4.78,4.78
260.58,2.21,-2.55,2.21,-2.55,2.54,2.62,2.72,4.76,4.76,4.76
263.19,2.16,-2.57,2.16,-2.57,2.57,2.64,2.72,4.74,4.74,4.74
265.82,2.11,-2.60,2.11,-2.60,2.60,2.66,2.73,4.71,4.71,4.71
268.48,2.06,-2.62,2.06,-2.62,2.62,2.69,2.73,4.69,4.69,4.69
271.16,2.01,-2.65,2.01,-2.65,2.65,2.71,2.73,4.67,4.67,4.67
273.87,1.97,-2.68,1.97,-2.68,2.68,2.73,2.73,4.64,4.64,4.64
276.61,1.92,-2.70,1.92,-2.70,2.70,2.75,2.72,4.62,4.62,4.62
279.38,1.87,-2.73,1.87,-2.73,2.73,2.76,2.72,4.59,4.59,4.59
282.17,1.82,-2.75,1.82,-2.75,2.75,2.78,2.71,4.57,4.57,4.57
284.99,1.77,-2.78,1.77,-2.78,2.78,2.80,2.71,4.55,4.55,4.54
287.84,1.72,-2.80,1.72,-2.80,2.80,2.82,2.70,4.52,4.52,4.52
290.72,1.67,-2.83,1.67,-2.83,2.83,2.84,2.69,4.49,4.49,4.50
293.63,1.62,-2.85,1.62,-2.85,2.85,2.86,2.68,4.47,4.47,4.47
296.57,1.57,-2.88,1.57,-2.88,2.88,2.88,2.68,4.44,4.44,4.44
299.53,1.52,-2.90,1.52,-2.90,2.90,2.90,2.67,4.42,4.42,4.41
302.53,1.47,-2.92,1.47,-2.92,2.92,2.92,2.66,4.39,4.39,4.39
305.55,1.42,-2.95,1.42,-2.95,2.95,2.94,2.66,4.37,4.37,4.37
308.61,1.37,-2.97,1.37,-2.97,2.97,2.96,2.65,4.34,4.34,4.34
311.69,1.32,-2.99,1.32,-2.99,2.99,2.98,2.65,4.31,4.31,4.31
314.81,1.28,-3.01,1.28,-3.01,3.01,3.01,2.64,4.29,4.29,4.29
317.96,1.23,-3.03,1.23,-3.03,3.03,3.03,2.64,4.26,4.26,4.26
321.14,1.18,-3.05,1.18,-3.05,3.05,3.05,2.64,4.23,4.23,4.23
324.35,1.13,-3.07,1.13,-3.07,3.07,3.07,2.64,4.20,4.20,4.20
327.59,1.09,-3.09,1.09,-3.09,3.09,3.09,2.65,4.17,4.17,4.17
330.87,1.04,-3.10,1.04,-3.10,3.10,3.11,2.65,4.14,4.14,4.14
334.18,1.00,-3.12,1.00,-3.12,3.12,3.14,2.66,4.11,4.11,4.11
337.52,0.95,-3.14,0.95,-3.14,3.13,3.16,2.67,4.08,4.08,4.08
340.90,0.90,-3.15,0.90,-3.15,3.15,3.18,2.68,4.05,4.05,4.05
344.30,0.86,-3.16,0.86,-3.16,3.16,3.20,2.70,4.02,4.02,4.02
347.75,0.81,-3.18,0.81,-3.18,3.17,3.22,2.71,3.99,3.99,3.99
351.23,0.77,-3.19,0.77,-3.19,3.18,3.24,2.73,3.95,3.95,3.96
354.74,0.72,-3.20,0.72,-3.19,3.19,3.26,2.75,3.92,3.92,3.92
358.28,0.68,-3.20,0.68,-3.20,3.20,3.28,2.77,3.89,3.89,3.88
361.87,0.64,-3.21,0.64,-3.21,3.22,3.30,2.80,3.85,3.85,3.85
365.49,0.59,-3.23,0.59,-3.23,3.23,3.32,2.82,3.83,3.83,3.82
369.14,0.55,-3.25,0.55,-3.25,3.25,3.33,2.85,3.80,3.80,3.80
372.83,0.51,-3.27,0.51,-3.27,3.28,3.35,2.88,3.78,3.78,3.77
376.56,0.46,-3.29,0.46,-3.29,3.30,3.36,2.91,3.76,3.76,3.75
380.33,0.42,-3.32,0.42,-3.33,3.33,3.38,2.95,3.75,3.75,3.74
384.13,0.38,-3.36,0.38,-3.36,3.36,3.39,2.98,3.73,3.73,3.74
387.97,0.33,-3.39,0.33,-3.39,3.38,3.41,3.02,3.72,3.72,3.73
391.85,0.29,-3.41,0.29,-3.42,3.41,3.42,3.06,3.70,3.70,3.71
395.77,0.25,-3.43,0.25,-3.43,3.42,3.43,3.10,3.68,3.68,3.68
399.73,0.21,-3.44,0.21,-3.44,3.44,3.44,3.15,3.65,3.65,3.65
403.72,0.17,-3.45,0.17,-3.45,3.45,3.45,3.19,3.62,3.62,3.62
407.76,0.13,-3.46,0.13,-3.45,3.46,3.46,3.23,3.59,3.59,3.58
411.84,0.09,-3.46,0.09,-3.46,3.46,3.46,3.28,3.55,3.55,3.55
415.96,0.05,-3.46,0.05,-3.46,3.46,3.47,3.32,3.51,3.51,3.51
420.12,0.01,-3.46,0.01,-3.46,3.46,3.47,3.37,3.48,3.48,3.47
424.32,-0.03,-3.47,-0.03,-3.46,3.47,3.48,3.42,3.44,3.44,3.44
428.56,-0.06,-3.47,-0.06,-3.47,3.47,3.48,3.46,3.41,3.41,3.40
432.85,-0.10,-3.47,-0.10,-3.47,3.47,3.48,3.51,3.37,3.37,3.37
437.18,-0.14,-3.48,-0.14,-3.48,3.48,3.48,3.55,3.34,3.34,3.34
441.55,-0.17,-3.48,-0.17,-3.48,3.48,3.48,3.59,3.31,3.31,3.31
445.96,-0.21,-3.48,-0.21,-3.48,3.48,3.48,3.63,3.27,3.27,3.27
450.42,-0.25,-3.48,-0.25,-3.48,3.48,3.47,3.67,3.24,3.24,3.24
454.93,-0.28,-3.48,-0.28,-3.48,3.48,3.47,3.70,3.20,3.20,3.20
459.48,-0.32,-3.48,-0.32,-3.48,3.48,3.46,3.74,3.17,3.17,3.17
464.07,-0.35,-3.48,-0.35,-3.48,3.48,3.45,3.76,3.13,3.13,3.13
468.71,-0.38,-3.47,-0.38,-3.47,3.47,3.45,3.79,3.09,3.09,3.09
473.40,-0.42,-3.47,-0.42,-3.47,3.47,3.44,3.81,3.05,3.05,3.05
478.13,-0.45,-3.46,-0.45,-3.46,3.46,3.43,3.83,3.01,3.01,3.01
482.91,-0.48,-3.45,-0.48,-3.45,3.45,3.42,3.84,2.97,2.97,2.97
487.74,-0.51,-3.44,-0.51,-3.44,3.44,3.40,3.85,2.93,2.93,2.93
492.62,-0.54,-3.43,-0.54,-3.43,3.43,3.39,3.85,2.89,2.89,2.89
497.55,-0.57,-3.42,-0.57,-3.42,3.42,3.38,3.85,2.85,2.85,2.85
502.52,-0.60,-3.40,-0.60,-3.40,3.40,3.36,3.84,2.80,2.80,2.80
507.55,-0.63,-3.39,-0.63,-3.39,3.39,3.35,3.83,2.76,2.76,2.76
512.62,-0.65,-3.38,-0.65,-3.38,3.37,3.33,3.81,2.72,2.72,2.72
517.75,-0.68,-3.36,-0.68,-3.36,3.36,3.32,3.79,2.68,2.68,2.68
522.93,-0.71,-3.34,-0.71,-3.34,3.34,3.30,3.76,2.63,2.63,2.63
528.16,-0.73,-3.32,-0.73,-3.32,3.32,3.29,3.73,2.59,2.59,2.59
533.44,-0.75,-3.30,-0.75,-3.30,3.30,3.27,3.69,2.54,2.54,2.55
538.77,-0.77,-3.28,-0.77,-3.28,3.27,3.25,3.65,2.50,2.50,2.50
544.16,-0.79,-3.25,-0.79,-3.25,3.24,3.24,3.61,2.45,2.45,2.46
549.60,-0.81,-3.23,-0.81,-3.23,3.22,3.22,3.56,2.41,2.41,2.42
555.10,-0.83,-3.20,-0.83,-3.20,3.20,3.21,3.51,2.37,2.37,2.37
