frequency,raw,error,smoothed,error_smoothed,equalization,parametric_eq,fixed_band_eq,equalized_raw,equalized_smoothed,target
20.00,-0.24,-9.60,-0.24,-9.60,6.00,5.96,2.78,5.76,5.76,9.36
20.20,-0.18,-9.55,-0.18,-9.54,6.00,6.09,2.86,5.82,5.82,9.36
20.40,-0.13,-9.49,-0.13,-9.49,6.00,6.21,2.94,5.87,5.87,9.37
20.61,-0.08,-9.45,-0.08,-9.45,6.00,6.24,3.02,5.92,5.92,9.37
20.81,-0.03,-9.41,-0.03,-9.41,6.00,6.28,3.11,5.97,5.97,9.38
21.02,0.01,-9.38,0.01,-9.38,6.00,6.24,3.20,6.01,6.01,9.39
21.23,0.05,-9.36,0.05,-9.36,6.00,6.20,3.29,6.05,6.05,9.41
21.44,0.08,-9.34,0.08,-9.34,6.00,6.13,3.38,6.08,6.08,9.43
21.66,0.12,-9.32,0.12,-9.32,6.00,6.06,3.48,6.12,6.12,9.44
21.87,0.15,-9.30,0.15,-9.30,6.00,6.00,3.58,6.15,6.15,9.45
22.09,0.19,-9.27,0.19,-9.27,6.00,5.94,3.68,6.19,6.19,9.45
22.31,0.23,-9.23,0.23,-9.23,6.00,5.90,3.78,6.23,6.23,9.45
22.54,0.27,-9.18,0.27,-9.18,6.00,5.86,3.89,6.27,6.27,9.45
22.76,0.31,-9.13,0.31,-9.13,6.00,5.84,4.00,6.31,6.31,9.45
22.99,0.35,-9.09,0.35,-9.09,6.00,5.82,4.11,6.35,6.35,9.44
23.22,0.39,-9.05,0.39,-9.05,6.00,5.81,4.22,6.39,6.39,9.44
23.45,0.43,-9.02,0.43,-9.02,6.00,5.81,4.34,6.43,6.43,9.45
23.69,0.46,-9.01,0.46,-9.01,6.00,5.81,4.46,6.46,6.46,9.47
23.92,0.49,-8.99,0.49,-8.99,6.00,5.82,4.58,6.49,6.49,9.49
24.16,0.53,-8.99,0.53,-8.99,6.00,5.83,4.71,6.53,6.53,9.51
24.40,0.56,-8.98,0.56,-8.98,6.00,5.85,4.83,6.56,6.56,9.53
24.65,0.59,-8.97,0.59,-8.96,6.00,5.87,4.96,6.59,6.59,9.55
24.89,0.62,-8.95,0.62,-8.95,6.00,5.89,5.09,6.62,6.62,9.57
25.14,0.65,-8.93,0.65,-8.93,6.00,5.91,5.22,6.65,6.65,9.58
25.39,0.68,-8.91,0.68,-8.91,6.00,5.93,5.36,6.68,6.68,9.58
25.65,0.70,-8.89,0.70,-8.89,6.00,5.95,5.49,6.70,6.70,9.59
25.91,0.73,-8.87,0.73,-8.87,6.00,5.97,5.63,6.73,6.73,9.60
26.16,0.75,-8.86,0.75,-8.86,6.00,5.99,5.76,6.75,6.75,9.61
26.43,0.77,-8.85,0.77,-8.85,6.00,6.01,5.90,6.77,6.77,9.62
26.69,0.80,-8.84,0.80,-8.84,6.00,6.03,6.03,6.80,6.80,9.63
26.96,0.82,-8.82,0.82,-8.82,6.00,6.05,6.16,6.82,6.82,9.64
27.23,0.85,-8.80,0.85,-8.80,6.00,6.06,6.29,6.85,6.85,9.65
27.50,0.88,-8.78,0.88,-8.78,6.00,6.08,6.42,6.88,6.88,9.66
27.77,0.91,-8.75,0.91,-8.75,6.00,6.09,6.54,6.91,6.91,9.66
28.05,0.94,-8.72,0.94,-8.73,6.00,6.10,6.66,6.94,6.94,9.66
28.33,0.97,-8.70,0.97,-8.70,6.00,6.11,6.77,6.97,6.97,9.66
28.62,0.99,-8.67,0.99,-8.67,6.00,6.12,6.88,6.99,6.99,9.66
28.90,1.02,-8.64,1.02,-8.64,6.00,6.13,6.98,7.02,7.02,9.65
29.19,1.04,-8.61,1.04,-8.61,6.00,6.13,7.08,7.04,7.04,9.64
29.48,1.06,-8.57,1.06,-8.57,6.00,6.14,7.17,7.06,7.06,9.63
29.78,1.09,-8.54,1.09,-8.54,6.00,6.14,7.25,7.09,7.09,9.63
30.08,1.12,-8.51,1.12,-8.51,6.00,6.14,7.31,7.12,7.12,9.62
30.38,1.15,-8.48,1.15,-8.48,6.00,6.14,7.37,7.15,7.15,9.62
30.68,1.18,-8.46,1.18,-8.46,6.00,6.14,7.42,7.18,7.18,9.63
30.99,1.21,-8.44,1.21,-8.44,6.00,6.13,7.46,7.21,7.21,9.65
31.30,1.24,-8.43,1.24,-8.43,6.00,6.13,7.49,7.24,7.24,9.67
31.61,1.27,-8.41,1.27,-8.41,6.00,6.12,7.51,7.27,7.27,9.68
31.93,1.29,-8.39,1.29,-8.39,6.00,6.12,7.51,7.29,7.29,9.69
32.24,1.31,-8.37,1.31,-8.37,6.00,6.11,7.51,7.31,7.31,9.68
32.57,1.33,-8.33,1.33,-8.33,6.00,6.10,7.50,7.33,7.33,9.67
32.89,1.36,-8.30,1.36,-8.30,6.00,6.09,7.48,7.36,7.36,9.66
33.22,1.38,-8.27,1.38,-8.27,6.00,6.08,7.44,7.38,7.38,9.65
33.55,1.40,-8.24,1.40,-8.24,6.00,6.07,7.40,7.40,7.40,9.64
33.89,1.43,-8.22,1.43,-8.22,6.00,6.06,7.36,7.43,7.43,9.65
34.23,1.45,-8.20,1.45,-8.20,6.00,6.05,7.30,7.45,7.45,9.65
34.57,1.47,-8.19,1.47,-8.19,6.00,6.04,7.24,7.47,7.47,9.66
34.92,1.49,-8.17,1.49,-8.17,6.00,6.03,7.18,7.49,7.49,9.66
35.27,1.51,-8.15,1.51,-8.15,6.00,6.02,7.11,7.51,7.51,9.66
35.62,1.53,-8.13,1.53,-8.13,6.00,6.01,7.04,7.53,7.53,9.66
35.97,1.55,-8.11,1.55,-8.11,6.00,6.00,6.96,7.55,7.55,9.66
36.33,1.57,-8.09,1.57,-8.09,6.00,5.99,6.89,7.57,7.57,9.65
36.70,1.58,-8.07,1.58,-8.07,6.00,5.98,6.81,7.58,7.58,9.65
37.06,1.60,-8.05,1.60,-8.05,6.00,5.97,6.73,7.60,7.60,9.65
37.43,1.62,-8.03,1.62,-8.03,6.00,5.96,6.66,7.62,7.62,9.65
37.81,1.63,-8.02,1.63,-8.02,6.00,5.95,6.58,7.63,7.63,9.65
38.19,1.65,-8.01,1.65,-8.01,6.00,5.94,6.50,7.65,7.65,9.66
38.57,1.67,-8.00,1.67,-8.00,6.00,5.93,6.43,7.67,7.67,9.66
38.95,1.68,-7.98,1.68,-7.98,6.00,5.92,6.36,7.68,7.68,9.66
39.34,1.70,-7.97,1.70,-7.97,6.00,5.92,6.29,7.70,7.70,9.66
39.74,1.71,-7.95,1.71,-7.95,6.00,5.91,6.22,7.71,7.71,9.66
40.14,1.73,-7.92,1.73,-7.92,6.00,5.91,6.16,7.73,7.73,9.65
40.54,1.74,-7.90,1.74,-7.90,6.00,5.90,6.10,7.74,7.74,9.64
40.94,1.76,-7.88,1.76,-7.88,6.00,5.90,6.04,7.76,7.76,9.64
41.35,1.77,-7.86,1.77,-7.86,6.00,5.89,5.99,7.77,7.77,9.63
41.76,1.79,-7.84,1.79,-7.84,6.00,5.89,5.94,7.79,7.79,9.63
42.18,1.80,-7.82,1.80,-7.82,6.00,5.89,5.89,7.80,7.80,9.63
42.60,1.82,-7.81,1.82,-7.81,6.00,5.89,5.85,7.82,7.82,9.63
43.03,1.83,-7.80,1.83,-7.79,6.00,5.88,5.81,7.83,7.83,9.63
43.46,1.85,-7.78,1.85,-7.78,6.00,5.88,5.78,7.85,7.85,9.62
43.90,1.86,-7.76,1.86,-7.76,6.00,5.88,5.75,7.86,7.86,9.62
44.33,1.88,-7.74,1.88,-7.74,6.00,5.89,5.73,7.88,7.88,9.62
44.78,1.90,-7.71,1.90,-7.71,6.00,5.89,5.71,7.90,7.90,9.61
45.23,1.91,-7.69,1.91,-7.69,6.00,5.89,5.69,7.91,7.91,9.60
45.68,1.93,-7.66,1.93,-7.66,6.00,5.89,5.68,7.93,7.93,9.59
46.13,1.94,-7.64,1.94,-7.64,6.00,5.89,5.67,7.94,7.94,9.58
46.60,1.96,-7.62,1.96,-7.62,6.00,5.90,5.67,7.96,7.96,9.58
47.06,1.97,-7.60,1.97,-7.60,6.00,5.90,5.67,7.97,7.97,9.57
47.53,1.98,-7.58,1.98,-7.58,6.00,5.91,5.68,7.98,7.98,9.56
48.01,1.99,-7.56,1.99,-7.56,6.00,5.91,5.68,7.99,7.99,9.55
48.49,2.00,-7.55,2.00,-7.55,6.00,5.92,5.70,8.00,8.00,9.54
48.97,2.00,-7.53,2.00,-7.53,6.00,5.92,5.71,8.00,8.00,9.53
49.46,2.01,-7.51,2.01,-7.51,6.00,5.93,5.73,8.01,8.01,9.52
49.96,2.02,-7.50,2.02,-7.50,6.00,5.94,5.76,8.02,8.02,9.52
50.46,2.03,-7.47,2.03,-7.47,6.00,5.94,5.78,8.03,8.03,9.51
50.96,2.05,-7.45,2.05,-7.45,6.00,5.95,5.81,8.05,8.05,9.50
51.47,2.08,-7.42,2.08,-7.41,6.00,5.96,5.84,8.08,8.08,9.49
51.99,2.11,-7.37,2.11,-7.37,6.00,5.97,5.87,8.11,8.11,9.48
52.51,2.14,-7.33,2.14,-7.33,6.00,5.97,5.90,8.14,8.14,9.47
53.03,2.18,-7.28,2.18,-7.28,6.00,5.98,5.94,8.18,8.18,9.46
53.56,2.21,-7.24,2.21,-7.24,6.00,5.99,5.97,8.21,8.21,9.45
54.10,2.22,-7.21,2.22,-7.21,6.00,6.00,6.01,8.22,8.22,9.43
54.64,2.22,-7.20,2.22,-7.20,6.00,6.01,6.05,8.22,8.22,9.42
55.18,2.20,-7.20,2.20,-7.20,6.00,6.01,6.08,8.20,8.20,9.41
55.74,2.18,-7.21,2.19,-7.20,6.00,6.02,6.12,8.18,8.19,9.39
56.29,2.18,-7.20,2.18,-7.20,6.00,6.03,6.15,8.18,8.18,9.38
56.86,2.18,-7.17,2.19,-7.17,6.00,6.04,6.18,8.18,8.19,9.36
57.42,2.20,-7.14,2.20,-7.14,6.00,6.04,6.21,8.20,8.20,9.34
58.00,2.22,-7.11,2.22,-7.11,6.00,6.05,6.23,8.22,8.22,9.32
58.58,2.23,-7.08,2.23,-7.08,6.00,6.06,6.25,8.23,8.23,9.31
59.16,2.24,-7.05,2.24,-7.05,6.00,6.07,6.27,8.24,8.24,9.29
59.76,2.25,-7.02,2.25,-7.02,6.00,6.07,6.29,8.25,8.25,9.28
60.35,2.26,-7.00,2.26,-7.00,6.00,6.08,6.30,8.26,8.26,9.26
60.96,2.26,-6.98,2.27,-6.98,6.00,6.09,6.30,8.26,8.27,9.25
61.57,2.27,-6.96,2.27,-6.96,6.00,6.09,6.30,8.27,8.27,9.23
62.18,2.28,-6.94,2.28,-6.94,6.00,6.10,6.29,8.28,8.28,9.22
62.80,2.28,-6.92,2.28,-6.92,6.00,6.10,6.28,8.28,8.28,9.20
63.43,2.29,-6.90,2.29,-6.90,6.00,6.11,6.27,8.29,8.29,9.19
64.07,2.29,-6.88,2.29,-6.88,6.00,6.11,6.24,8.29,8.29,9.17
64.71,2.30,-6.86,2.30,-6.86,6.00,6.11,6.22,8.30,8.30,9.16
65.35,2.31,-6.83,2.31,-6.83,6.00,6.12,6.19,8.31,8.31,9.14
66.01,2.32,-6.81,2.32,-6.81,6.00,6.12,6.15,8.32,8.32,9.13
66.67,2.33,-6.78,2.33,-6.78,6.00,6.12,6.11,8.33,8.33,9.11
67.33,2.34,-6.75,2.34,-6.75,6.00,6.12,6.06,8.34,8.34,9.10
68.01,2.35,-6.73,2.35,-6.73,6.00,6.12,6.01,8.35,8.35,9.08
68.69,2.36,-6.70,2.36,-6.70,6.00,6.12,5.96,8.36,8.36,9.06
69.37,2.37,-6.67,2.37,-6.67,6.00,6.12,5.91,8.37,8.37,9.04
70.07,2.38,-6.64,2.37,-6.64,6.00,6.12,5.85,8.38,8.37,9.02
70.77,2.38,-6.61,2.38,-6.61,6.00,6.11,5.79,8.38,8.38,8.99
71.48,2.39,-6.59,2.39,-6.59,6.00,6.11,5.73,8.39,8.39,8.97
72.19,2.39,-6.56,2.39,-6.56,6.00,6.11,5.67,8.39,8.39,8.95
72.91,2.40,-6.52,2.40,-6.52,6.00,6.10,5.61,8.40,8.40,8.92
73.64,2.40,-6.49,2.40,-6.49,6.00,6.10,5.55,8.40,8.40,8.89
74.38,2.41,-6.46,2.41,-6.46,6.00,6.09,5.49,8.41,8.41,8.87
75.12,2.42,-6.42,2.42,-6.42,6.00,6.08,5.43,8.42,8.42,8.84
75.87,2.43,-6.38,2.43,-6.38,6.00,6.07,5.37,8.43,8.43,8.81
76.63,2.43,-6.35,2.43,-6.35,6.00,6.07,5.32,8.43,8.43,8.78
77.40,2.44,-6.31,2.44,-6.31,6.00,6.06,5.26,8.44,8.44,8.75
78.17,2.45,-6.28,2.45,-6.28,6.00,6.04,5.21,8.45,8.45,8.72
78.95,2.45,-6.25,2.45,-6.25,6.00,6.03,5.16,8.45,8.45,8.70
79.74,2.46,-6.22,2.46,-6.22,6.00,6.02,5.11,8.46,8.46,8.67
80.54,2.46,-6.19,2.46,-6.19,6.00,6.01,5.06,8.46,8.46,8.65
81.35,2.46,-6.16,2.46,-6.16,6.01,5.99,5.02,8.47,8.47,8.62
82.16,2.47,-6.12,2.47,-6.12,6.01,5.98,4.98,8.47,8.47,8.59
82.98,2.47,-6.09,2.47,-6.09,6.00,5.96,4.95,8.48,8.48,8.56
83.81,2.48,-6.05,2.48,-6.05,5.99,5.94,4.91,8.47,8.47,8.53
84.65,2.49,-6.01,2.49,-6.01,5.98,5.93,4.88,8.47,8.47,8.50
85.50,2.49,-5.98,2.49,-5.98,5.96,5.91,4.86,8.45,8.45,8.47
86.35,2.50,-5.94,2.50,-5.94,5.94,5.89,4.84,8.44,8.44,8.44
87.22,2.50,-5.91,2.50,-5.91,5.91,5.87,4.82,8.41,8.41,8.41
88.09,2.51,-5.87,2.51,-5.87,5.88,5.85,4.80,8.38,8.38,8.38
88.97,2.51,-5.84,2.51,-5.84,5.84,5.82,4.79,8.35,8.35,8.35
89.86,2.51,-5.80,2.52,-5.80,5.80,5.80,4.78,8.31,8.32,8.32
90.76,2.52,-5.76,2.52,-5.76,5.76,5.78,4.78,8.28,8.28,8.28
91.66,2.52,-5.72,2.52,-5.72,5.72,5.75,4.78,8.25,8.25,8.25
92.58,2.53,-5.69,2.53,-5.69,5.69,5.73,4.78,8.22,8.22,8.22
93.51,2.53,-5.66,2.53,-5.66,5.67,5.70,4.79,8.19,8.19,8.18
94.44,2.53,-5.63,2.53,-5.63,5.64,5.67,4.80,8.17,8.17,8.16
95.39,2.53,-5.61,2.53,-5.61,5.63,5.64,4.81,8.16,8.16,8.14
96.34,2.53,-5.59,2.53,-5.60,5.61,5.61,4.82,8.14,8.14,8.13
97.30,2.53,-5.59,2.53,-5.59,5.59,5.58,4.84,8.12,8.12,8.12
98.28,2.53,-5.59,2.53,-5.58,5.57,5.55,4.86,8.10,8.10,8.12
99.26,2.53,-5.57,2.53,-5.56,5.54,5.52,4.89,8.07,8.07,8.10
100.25,2.54,-5.53,2.54,-5.53,5.51,5.49,4.91,8.04,8.04,8.07
101.25,2.54,-5.47,2.54,-5.48,5.47,5.46,4.94,8.01,8.01,8.02
102.27,2.55,-5.42,2.55,-5.42,5.42,5.43,4.97,7.97,7.97,7.97
103.29,2.56,-5.36,2.56,-5.37,5.37,5.39,5.00,7.93,7.93,7.92
104.32,2.56,-5.31,2.56,-5.31,5.32,5.36,5.04,7.89,7.88,7.88
105.37,2.57,-5.27,2.57,-5.27,5.27,5.32,5.07,7.84,7.84,7.83
106.42,2.57,-5.22,2.57,-5.22,5.22,5.29,5.11,7.79,7.79,7.79
107.48,2.57,-5.17,2.57,-5.18,5.18,5.25,5.14,7.75,7.75,7.74
108.56,2.57,-5.14,2.57,-5.14,5.14,5.21,5.17,7.71,7.71,7.70
109.64,2.57,-5.10,2.57,-5.10,5.11,5.18,5.21,7.68,7.68,7.67
110.74,2.57,-5.07,2.57,-5.07,5.07,5.14,5.24,7.65,7.65,7.64
111.85,2.58,-5.04,2.58,-5.04,5.04,5.10,5.27,7.62,7.62,7.62
112.97,2.58,-5.01,2.58,-5.01,5.01,5.06,5.29,7.59,7.59,7.59
114.10,2.58,-4.98,2.58,-4.98,4.98,5.02,5.32,7.56,7.56,7.57
115.24,2.59,-4.95,2.59,-4.95,4.95,4.98,5.34,7.54,7.54,7.54
116.39,2.59,-4.92,2.59,-4.92,4.92,4.94,5.36,7.50,7.50,7.51
117.55,2.59,-4.88,2.59,-4.88,4.88,4.90,5.37,7.47,7.47,7.47
118.73,2.59,-4.84,2.59,-4.84,4.84,4.86,5.38,7.44,7.44,7.44
119.92,2.59,-4.80,2.59,-4.80,4.80,4.82,5.39,7.40,7.40,7.40
121.12,2.59,-4.76,2.59,-4.76,4.76,4.78,5.39,7.36,7.36,7.36
122.33,2.59,-4.72,2.59,-4.72,4.72,4.74,5.38,7.31,7.31,7.31
123.55,2.59,-4.67,2.59,-4.67,4.67,4.70,5.37,7.26,7.26,7.26
124.79,2.59,-4.63,2.59,-4.63,4.63,4.66,5.35,7.22,7.22,7.22
126.03,2.58,-4.58,2.58,-4.58,4.58,4.61,5.33,7.16,7.16,7.16
127.29,2.58,-4.54,2.58,-4.54,4.54,4.57,5.30,7.11,7.11,7.11
128.57,2.57,-4.49,2.57,-4.49,4.49,4.53,5.26,7.06,7.06,7.06
129.85,2.56,-4.45,2.56,-4.44,4.44,4.49,5.22,7.01,7.01,7.01
131.15,2.55,-4.40,2.55,-4.40,4.40,4.44,5.18,6.95,6.95,6.95
132.46,2.54,-4.36,2.54,-4.36,4.36,4.40,5.12,6.90,6.90,6.90
133.79,2.53,-4.32,2.53,-4.32,4.32,4.36,5.07,6.85,6.85,6.85
135.12,2.52,-4.28,2.52,-4.28,4.28,4.31,5.01,6.80,6.80,6.80
136.48,2.51,-4.25,2.51,-4.25,4.25,4.27,4.94,6.76,6.76,6.76
137.84,2.51,-4.22,2.51,-4.22,4.22,4.23,4.87,6.73,6.73,6.72
139.22,2.50,-4.20,2.50,-4.20,4.20,4.18,4.80,6.71,6.71,6.70
140.61,2.51,-4.18,2.51,-4.18,4.19,4.14,4.73,6.69,6.69,6.69
142.02,2.51,-4.17,2.51,-4.17,4.17,4.09,4.65,6.69,6.69,6.68
143.44,2.52,-4.16,2.52,-4.16,4.16,4.05,4.57,6.68,6.68,6.68
144.87,2.53,-4.15,2.53,-4.15,4.15,4.01,4.49,6.68,6.68,6.68
146.32,2.54,-4.14,2.54,-4.14,4.13,3.96,4.41,6.67,6.67,6.67
147.78,2.54,-4.12,2.54,-4.12,4.11,3.92,4.32,6.66,6.66,6.66
149.26,2.55,-4.09,2.55,-4.09,4.09,3.88,4.24,6.64,6.64,6.64
150.75,2.55,-4.06,2.55,-4.06,4.06,3.83,4.16,6.61,6.61,6.61
152.26,2.55,-4.03,2.55,-4.03,4.02,3.79,4.07,6.57,6.57,6.57
153.78,2.55,-3.98,2.55,-3.98,3.98,3.75,3.99,6.53,6.53,6.53
155.32,2.55,-3.94,2.55,-3.94,3.94,3.70,3.91,6.48,6.48,6.49
156.88,2.54,-3.89,2.54,-3.89,3.89,3.66,3.83,6.43,6.43,6.44
158.44,2.54,-3.84,2.54,-3.84,3.84,3.62,3.75,6.38,6.38,6.38
160.03,2.54,-3.79,2.54,-3.79,3.79,3.57,3.67,6.33,6.33,6.33
161.63,2.54,-3.73,2.54,-3.73,3.74,3.53,3.59,6.28,6.28,6.27
163.24,2.53,-3.68,2.53,-3.68,3.69,3.49,3.52,6.22,6.22,6.22
164.88,2.53,-3.64,2.53,-3.64,3.64,3.45,3.45,6.17,6.17,6.16
166.53,2.51,-3.59,2.51,-3.59,3.60,3.41,3.38,6.11,6.11,6.11
168.19,2.50,-3.55,2.50,-3.55,3.56,3.36,3.31,6.06,6.06,6.06
169.87,2.49,-3.52,2.49,-3.52,3.51,3.32,3.24,6.00,6.00,6.00
171.57,2.47,-3.48,2.48,-3.48,3.47,3.28,3.18,5.95,5.95,5.95
173.29,2.46,-3.43,2.46,-3.43,3.43,3.24,3.11,5.89,5.89,5.90
175.02,2.45,-3.39,2.45,-3.39,3.39,3.20,3.05,5.84,5.84,5.84
176.77,2.44,-3.34,2.44,-3.34,3.34,3.16,2.99,5.78,5.78,5.79
178.54,2.44,-3.29,2.44,-3.29,3.29,3.12,2.94,5.73,5.73,5.73
180.32,2.43,-3.24,2.43,-3.24,3.24,3.08,2.89,5.68,5.68,5.68
182.13,2.43,-3.19,2.43,-3.19,3.19,3.04,2.83,5.62,5.62,5.62
183.95,2.44,-3.14,2.43,-3.14,3.14,3.00,2.78,5.57,5.57,5.57
185.79,2.44,-3.08,2.44,-3.08,3.08,2.96,2.74,5.52,5.52,5.52
187.65,2.44,-3.03,2.44,-3.03,3.03,2.92,2.69,5.47,5.47,5.47
189.52,2.44,-2.98,2.44,-2.98,2.98,2.88,2.65,5.43,5.43,5.42
191.42,2.45,-2.93,2.45,-2.93,2.93,2.84,2.61,5.38,5.38,5.38
193.33,2.45,-2.88,2.45,-2.88,2.88,2.80,2.57,5.33,5.33,5.33
195.27,2.45,-2.83,2.45,-2.84,2.84,2.77,2.53,5.29,5.29,5.29
197.22,2.45,-2.79,2.45,-2.79,2.79,2.73,2.50,5.24,5.24,5.24
199.19,2.45,-2.75,2.45,-2.74,2.74,2.69,2.47,5.19,5.19,5.19
201.18,2.45,-2.70,2.45,-2.70,2.69,2.65,2.43,5.14,5.14,5.14
203.19,2.44,-2.65,2.44,-2.65,2.65,2.62,2.40,5.09,5.09,5.09
205.23,2.44,-2.60,2.44,-2.60,2.60,2.58,2.38,5.04,5.04,5.04
207.28,2.43,-2.55,2.43,-2.55,2.55,2.55,2.35,4.99,4.99,4.98
209.35,2.43,-2.50,2.42,-2.51,2.51,2.51,2.32,4.93,4.93,4.93
211.44,2.42,-2.46,2.42,-2.46,2.47,2.47,2.30,4.88,4.88,4.88
213.56,2.41,-2.42,2.41,-2.42,2.42,2.44,2.27,4.83,4.83,4.83
215.69,2.40,-2.38,2.40,-2.38,2.38,2.41,2.25,4.78,4.78,4.78
217.85,2.38,-2.34,2.38,-2.34,2.34,2.37,2.23,4.73,4.73,4.73
220.03,2.37,-2.30,2.37,-2.30,2.30,2.34,2.21,4.67,4.67,4.68
222.23,2.37,-2.26,2.37,-2.26,2.26,2.30,2.19,4.63,4.62,4.63
224.45,2.36,-2.22,2.36,-2.22,2.22,2.27,2.16,4.57,4.57,4.58
226.70,2.35,-2.17,2.35,-2.17,2.17,2.24,2.14,4.52,4.52,4.52
228.96,2.34,-2.13,2.34,-2.13,2.13,2.21,2.12,4.47,4.47,4.47
231.25,2.34,-2.09,2.34,-2.09,2.09,2.17,2.10,4.42,4.42,4.42
233.57,2.33,-2.04,2.33,-2.04,2.04,2.14,2.08,4.37,4.37,4.37
235.90,2.32,-2.00,2.32,-2.00,2.00,2.11,2.06,4.32,4.32,4.32
238.26,2.32,-1.95,2.32,-1.95,1.95,2.08,2.04,4.27,4.27,4.27
240.64,2.31,-1.91,2.31,-1.91,1.91,2.05,2.02,4.22,4.22,4.22
243.05,2.30,-1.87,2.30,-1.87,1.87,2.02,2.00,4.17,4.17,4.17
245.48,2.29,-1.83,2.29,-1.83,1.83,1.99,1.98,4.12,4.12,4.12
247.93,2.27,-1.79,2.27,-1.79,1.79,1.96,1.96,4.07,4.07,4.07
250.41,2.26,-1.76,2.26,-1.76,1.76,1.93,1.94,4.02,4.01,4.01
252.92,2.24,-1.72,2.24,-1.72,1.72,1.90,1.91,3.96,3.96,3.96
255.45,2.23,-1.69,2.23,-1.69,1.68,1.87,1.89,3.91,3.91,3.91
258.00,2.21,-1.65,2.21,-1.65,1.65,1.85,1.86,3.86,3.86,3.86
260.58,2.19,-1.62,2.19,-1.62,1.62,1.82,1.84,3.81,3.81,3.81
263.19,2.17,-1.58,2.17,-1.58,1.58,1.79,1.81,3.75,3.75,3.75
265.82,2.15,-1.55,2.15,-1.55,1.55,1.76,1.79,3.70,3.70,3.70
268.48,2.14,-1.51,2.14,-1.51,1.51,1.74,1.76,3.65,3.65,3.65
271.16,2.12,-1.48,2.12,-1.48,1.48,1.71,1.73,3.60,3.60,3.60
273.87,2.10,-1.45,2.09,-1.45,1.45,1.69,1.71,3.55,3.55,3.55
276.61,2.07,-1.42,2.07,-1.42,1.42,1.66,1.68,3.49,3.49,3.49
279.38,2.05,-1.39,2.05,-1.39,1.39,1.64,1.65,3.44,3.44,3.44
282.17,2.02,-1.36,2.02,-1.36,1.36,1.61,1.62,3.39,3.39,3.39
284.99,2.00,-1.34,2.00,-1.34,1.33,1.59,1.59,3.33,3.33,3.33
287.84,1.97,-1.31,1.97,-1.31,1.31,1.56,1.56,3.28,3.28,3.28
290.72,1.95,-1.28,1.95,-1.28,1.28,1.54,1.54,3.22,3.22,3.23
293.63,1.92,-1.25,1.92,-1.25,1.24,1.52,1.51,3.17,3.17,3.17
296.57,1.90,-1.22,1.90,-1.22,1.21,1.49,1.48,3.11,3.11,3.12
299.53,1.88,-1.18,1.88,-1.18,1.18,1.47,1.45,3.06,3.06,3.06
302.53,1.86,-1.15,1.86,-1.15,1.15,1.45,1.42,3.01,3.01,3.01
305.55,1.84,-1.12,1.84,-1.12,1.12,1.43,1.40,2.96,2.96,2.96
308.61,1.82,-1.09,1.82,-1.09,1.09,1.41,1.37,2.91,2.91,2.91
311.69,1.80,-1.07,1.80,-1.07,1.07,1.38,1.34,2.87,2.87,2.86
314.81,1.77,-1.05,1.77,-1.05,1.06,1.36,1.32,2.83,2.83,2.82
317.96,1.75,-1.04,1.75,-1.04,1.05,1.34,1.29,2.80,2.80,2.79
321.14,1.72,-1.04,1.72,-1.04,1.05,1.32,1.27,2.78,2.78,2.77
324.35,1.70,-1.05,1.70,-1.05,1.06,1.30,1.25,2.76,2.76,2.75
327.59,1.67,-1.07,1.67,-1.07,1.07,1.28,1.22,2.74,2.74,2.74
330.87,1.64,-1.09,1.64,-1.09,1.08,1.27,1.20,2.72,2.72,2.73
334.18,1.61,-1.11,1.61,-1.10,1.10,1.25,1.18,2.71,2.71,2.71
337.52,1.58,-1.12,1.58,-1.12,1.11,1.23,1.16,2.69,2.69,2.70
340.90,1.55,-1.12,1.55,-1.12,1.12,1.21,1.14,2.66,2.66,2.67
344.30,1.52,-1.13,1.52,-1.12,1.12,1.19,1.12,2.63,2.63,2.64
347.75,1.48,-1.12,1.48,-1.12,1.12,1.17,1.10,2.60,2.60,2.60
351.23,1.45,-1.11,1.45,-1.11,1.11,1.16,1.08,2.56,2.56,2.56
354.74,1.42,-1.10,1.42,-1.10,1.10,1.14,1.07,2.52,2.52,2.52
358.28,1.38,-1.09,1.38,-1.09,1.09,1.12,1.05,2.47,2.47,2.47
361.87,1.35,-1.08,1.35,-1.08,1.08,1.11,1.03,2.43,2.43,2.42
365.49,1.31,-1.07,1.31,-1.07,1.07,1.09,1.02,2.38,2.38,2.38
369.14,1.28,-1.05,1.28,-1.05,1.06,1.08,1.01,2.33,2.33,2.33
372.83,1.24,-1.04,1.24,-1.04,1.05,1.06,0.99,2.29,2.29,2.28
376.56,1.20,-1.03,1.20,-1.03,1.04,1.05,0.98,2.24,2.24,2.24
380.33,1.17,-1.03,1.17,-1.03,1.03,1.03,0.97,2.19,2.19,2.19
384.13,1.13,-1.02,1.13,-1.02,1.02,1.02,0.96,2.15,2.15,2.15
387.97,1.09,-1.02,1.09,-1.02,1.02,1.00,0.95,2.10,2.10,2.10
391.85,1.05,-1.01,1.05,-1.01,1.01,0.99,0.94,2.06,2.06,2.06
395.77,1.01,-1.01,1.01,-1.01,1.00,0.98,0.93,2.01,2.02,2.02
399.73,0.97,-1.00,0.97,-1.00,1.00,0.96,0.92,1.97,1.97,1.97
403.72,0.93,-1.00,0.93,-1.00,1.00,0.95,0.91,1.93,1.93,1.93
407.76,0.90,-0.99,0.90,-0.99,0.99,0.94,0.90,1.89,1.89,1.89
411.84,0.86,-0.99,0.86,-0.99,0.99,0.93,0.89,1.84,1.84,1.84
415.96,0.82,-0.99,0.82,-0.99,0.99,0.91,0.89,1.80,1.80,1.80
420.12,0.78,-0.98,0.78,-0.98,0.98,0.90,0.88,1.76,1.76,1.76
424.32,0.74,-0.98,0.74,-0.98,0.98,0.89,0.88,1.72,1.72,1.72
428.56,0.70,-0.98,0.70,-0.98,0.98,0.88,0.87,1.68,1.68,1.68
432.85,0.66,-0.98,0.66,-0.98,0.98,0.87,0.87,1.64,1.64,1.64
437.18,0.63,-0.98,0.62,-0.98,0.98,0.86,0.86,1.60,1.60,1.60
441.55,0.59,-0.98,0.59,-0.98,0.98,0.85,0.86,1.57,1.57,1.57
445.96,0.55,-0.98,0.55,-0.98,0.98,0.84,0.85,1.53,1.53,1.53
450.42,0.52,-0.98,0.52,-0.98,0.98,0.83,0.85,1.49,1.49,1.49
454.93,0.48,-0.98,0.48,-0.98,0.98,0.82,0.84,1.46,1.46,1.46
459.48,0.45,-0.97,0.45,-0.97,0.97,0.81,0.84,1.42,1.42,1.42
464.07,0.41,-0.97,0.41,-0.97,0.97,0.80,0.84,1.39,1.39,1.39
468.71,0.38,-0.97,0.38,-0.97,0.97,0.79,0.83,1.35,1.35,1.35
473.40,0.35,-0.97,0.35,-0.97,0.97,0.79,0.83,1.31,1.31,1.31
478.13,0.31,-0.97,0.31,-0.97,0.97,0.78,0.83,1.28,1.28,1.28
482.91,0.28,-0.96,0.28,-0.96,0.96,0.77,0.82,1.25,1.24,1.25
487.74,0.25,-0.96,0.25,-0.96,0.96,0.76,0.82,1.21,1.21,1.21
492.62,0.22,-0.95,0.22,-0.95,0.95,0.75,0.82,1.18,1.18,1.18
497.55,0.20,-0.95,0.20,-0.95,0.95,0.75,0.81,1.15,1.15,1.15
502.52,0.17,-0.94,0.17,-0.94,0.94,0.74,0.81,1.11,1.11,1.11
507.55,0.15,-0.93,0.15,-0.93,0.94,0.73,0.81,1.08,1.08,1.08
512.62,0.12,-0.93,0.12,-0.93,0.93,0.73,0.80,1.05,1.05,1.05
517.75,0.10,-0.92,0.10,-0.92,0.92,0.72,0.80,1.02,1.02,1.02
522.93,0.08,-0.91,0.08,-0.91,0.91,0.72,0.79,0.99,0.99,0.99
528.16,0.06,-0.90,0.06,-0.90,0.90,0.71,0.79,0.96,0.96,0.96
533.44,0.04,-0.89,0.04,-0.89,0.89,0.71,0.79,0.93,0.93,0.93
538.77,0.02,-0.88,0.02,-0.88,0.88,0.70,0.78,0.90,0.90,0.90
544.16,0.01,-0.86,0.01,-0.86,0.86,0.70,0.78,0.87,0.87,0.87
549.60,-0.01,-0.85,-0.01,-0.85,0.85,0.69,0.77,0.84,0.84,0.84
555.10,-0.02,-0.83,-0.02,-0.83,0.83,0.69,0.77,0.81,0.81,0.81
560.65,-0.03,-0.82,-0.03,-0.82,0.82,0.68,0.77,0.79,0.79,0.79
566.25,-0.04,-0.80,-0.04,-0.80,0.80,0.68,0.76,0.76,0.76,0.76
571.92,-0.05,-0.79,-0.05,-0.79,0.79,0.67,0.76,0.73,0.73,0.73
577.64,-0.06,-0.77,-0.06,-0.77,0.77,0.67,0.76,0.71,0.71,0.71
