frequency,raw,error,smoothed,error_smoothed,equalization,parametric_eq,fixed_band_eq,equalized_raw,equalized_smoothed,target
20.00,7.29,-4.82,7.29,-4.83,4.76,4.96,2.22,12.05,12.05,12.11
20.20,7.15,-4.94,7.16,-4.94,4.92,4.94,2.29,12.07,12.07,12.09
20.40,7.02,-5.05,7.02,-5.05,5.06,4.92,2.35,12.09,12.09,12.07
20.61,6.89,-5.16,6.89,-5.16,5.20,4.97,2.42,12.09,12.09,12.05
20.81,6.76,-5.27,6.76,-5.28,5.33,5.03,2.49,12.08,12.08,12.03
21.02,6.62,-5.39,6.62,-5.39,5.44,5.19,2.57,12.07,12.07,12.02
21.23,6.49,-5.51,6.48,-5.51,5.55,5.35,2.64,12.04,12.04,12.00
21.44,6.35,-5.64,6.35,-5.64,5.65,5.56,2.72,12.00,11.99,11.98
21.66,6.21,-5.76,6.21,-5.76,5.75,5.77,2.79,11.97,11.97,11.97
21.87,6.08,-5.87,6.09,-5.87,5.85,5.92,2.88,11.93,11.93,11.96
22.09,5.98,-5.96,5.98,-5.96,5.92,6.06,2.96,11.90,11.90,11.94
22.31,5.90,-6.02,5.90,-6.02,5.97,6.11,3.04,11.87,11.87,11.92
22.54,5.85,-6.05,5.85,-6.05,6.00,6.15,3.13,11.84,11.85,11.90
22.76,5.82,-6.05,5.83,-6.05,6.00,6.12,3.22,11.82,11.83,11.88
22.99,5.83,-6.02,5.84,-6.02,5.98,6.09,3.31,11.81,11.81,11.85
23.22,5.87,-5.96,5.86,-5.96,5.94,6.03,3.41,11.81,11.81,11.82
23.45,5.90,-5.89,5.90,-5.90,5.90,5.96,3.50,11.80,11.80,11.80
23.69,5.94,-5.83,5.94,-5.83,5.86,5.89,3.60,11.80,11.80,11.77
23.92,5.97,-5.78,5.97,-5.79,5.82,5.82,3.70,11.79,11.79,11.75
24.16,5.98,-5.75,5.98,-5.75,5.79,5.75,3.80,11.77,11.77,11.73
24.40,5.98,-5.73,5.98,-5.73,5.76,5.68,3.91,11.74,11.74,11.71
24.65,5.97,-5.72,5.97,-5.72,5.73,5.62,4.01,11.70,11.70,11.69
24.89,5.95,-5.72,5.95,-5.72,5.71,5.56,4.12,11.67,11.67,11.67
25.14,5.94,-5.70,5.94,-5.70,5.69,5.51,4.23,11.63,11.63,11.65
25.39,5.94,-5.68,5.94,-5.68,5.66,5.46,4.33,11.60,11.60,11.62
25.65,5.96,-5.64,5.96,-5.64,5.61,5.42,4.44,11.57,11.57,11.60
25.91,6.00,-5.57,6.00,-5.57,5.55,5.38,4.55,11.55,11.55,11.57
26.16,6.06,-5.49,6.06,-5.49,5.48,5.34,4.66,11.53,11.53,11.55
26.43,6.13,-5.39,6.13,-5.39,5.39,5.30,4.77,11.52,11.52,11.53
26.69,6.22,-5.28,6.22,-5.29,5.29,5.27,4.87,11.50,11.50,11.50
26.96,6.31,-5.17,6.31,-5.17,5.18,5.24,4.98,11.49,11.48,11.48
27.23,6.39,-5.06,6.39,-5.06,5.07,5.21,5.08,11.46,11.46,11.45
27.50,6.47,-4.96,6.47,-4.96,4.97,5.19,5.19,11.44,11.44,11.43
27.77,6.53,-4.86,6.53,-4.86,4.87,5.16,5.28,11.41,11.41,11.40
28.05,6.59,-4.78,6.59,-4.78,4.79,5.14,5.38,11.38,11.38,11.37
28.33,6.63,-4.71,6.63,-4.70,4.71,5.11,5.46,11.34,11.34,11.34
28.62,6.67,-4.64,6.67,-4.64,4.64,5.09,5.55,11.31,11.31,11.31
28.90,6.69,-4.58,6.69,-4.58,4.58,5.07,5.63,11.28,11.27,11.27
29.19,6.70,-4.54,6.70,-4.54,4.54,5.05,5.70,11.24,11.24,11.24
29.48,6.71,-4.50,6.71,-4.50,4.51,5.03,5.77,11.22,11.22,11.21
29.78,6.71,-4.48,6.71,-4.48,4.48,5.01,5.83,11.19,11.19,11.18
30.08,6.69,-4.46,6.69,-4.46,4.47,4.99,5.87,11.16,11.16,11.16
30.38,6.67,-4.46,6.67,-4.46,4.46,4.98,5.92,11.13,11.13,11.13
30.68,6.64,-4.47,6.64,-4.47,4.47,4.96,5.95,11.10,11.10,11.10
30.99,6.59,-4.48,6.59,-4.48,4.48,4.94,5.98,11.07,11.07,11.07
31.30,6.54,-4.50,6.54,-4.50,4.49,4.92,5.99,11.04,11.04,11.04
31.61,6.49,-4.51,6.49,-4.51,4.51,4.91,6.00,11.00,11.00,11.01
31.93,6.43,-4.53,6.43,-4.53,4.53,4.89,6.00,10.97,10.97,10.97
32.24,6.38,-4.55,6.38,-4.55,4.56,4.87,5.99,10.93,10.93,10.93
32.57,6.32,-4.57,6.32,-4.58,4.58,4.86,5.97,10.90,10.90,10.89
32.89,6.25,-4.60,6.25,-4.60,4.61,4.84,5.95,10.86,10.86,10.85
33.22,6.19,-4.63,6.19,-4.63,4.63,4.82,5.91,10.82,10.82,10.82
33.55,6.13,-4.65,6.13,-4.65,4.65,4.81,5.87,10.78,10.78,10.78
33.89,6.07,-4.68,6.07,-4.67,4.67,4.79,5.82,10.74,10.74,10.74
34.23,6.01,-4.69,6.01,-4.69,4.68,4.77,5.77,10.70,10.70,10.70
34.57,5.96,-4.70,5.96,-4.70,4.69,4.76,5.71,10.65,10.66,10.66
34.92,5.92,-4.70,5.92,-4.70,4.70,4.74,5.65,10.62,10.62,10.62
35.27,5.89,-4.69,5.89,-4.69,4.69,4.72,5.59,10.58,10.58,10.58
35.62,5.88,-4.68,5.88,-4.68,4.68,4.71,5.52,10.55,10.55,10.55
35.97,5.87,-4.66,5.87,-4.66,4.66,4.69,5.44,10.53,10.53,10.53
36.33,5.87,-4.63,5.87,-4.63,4.63,4.67,5.37,10.50,10.50,10.50
36.70,5.88,-4.60,5.88,-4.60,4.60,4.66,5.29,10.47,10.47,10.48
37.06,5.88,-4.57,5.88,-4.57,4.56,4.64,5.22,10.44,10.44,10.45
37.43,5.88,-4.52,5.88,-4.52,4.52,4.62,5.14,10.40,10.40,10.41
37.81,5.88,-4.48,5.88,-4.48,4.48,4.61,5.06,10.36,10.36,10.36
38.19,5.87,-4.43,5.87,-4.44,4.44,4.59,4.99,10.32,10.32,10.31
38.57,5.86,-4.40,5.86,-4.40,4.41,4.57,4.91,10.27,10.27,10.26
38.95,5.85,-4.37,5.85,-4.37,4.38,4.55,4.84,10.23,10.23,10.22
39.34,5.83,-4.35,5.83,-4.35,4.35,4.54,4.76,10.19,10.19,10.18
39.74,5.82,-4.33,5.82,-4.33,4.34,4.52,4.69,10.15,10.15,10.15
40.14,5.79,-4.32,5.79,-4.32,4.33,4.50,4.62,10.12,10.12,10.12
40.54,5.76,-4.32,5.76,-4.32,4.32,4.48,4.56,10.08,10.08,10.08
40.94,5.73,-4.31,5.73,-4.32,4.32,4.46,4.49,10.05,10.05,10.04
41.35,5.69,-4.32,5.69,-4.32,4.32,4.44,4.43,10.01,10.01,10.01
41.76,5.65,-4.33,5.64,-4.33,4.32,4.43,4.37,9.97,9.97,9.97
42.18,5.59,-4.33,5.59,-4.33,4.33,4.41,4.32,9.92,9.92,9.93
42.60,5.54,-4.34,5.54,-4.34,4.33,4.39,4.26,9.87,9.87,9.88
43.03,5.49,-4.33,5.49,-4.33,4.33,4.37,4.21,9.82,9.82,9.82
43.46,5.44,-4.32,5.44,-4.32,4.32,4.35,4.17,9.77,9.77,9.76
43.90,5.40,-4.31,5.40,-4.31,4.32,4.33,4.12,9.71,9.71,9.71
44.33,5.36,-4.30,5.36,-4.30,4.30,4.31,4.08,9.66,9.66,9.66
44.78,5.33,-4.29,5.33,-4.29,4.28,4.29,4.04,9.61,9.61,9.62
45.23,5.31,-4.27,5.31,-4.27,4.26,4.27,4.01,9.57,9.57,9.58
45.68,5.29,-4.24,5.29,-4.24,4.23,4.25,3.98,9.52,9.52,9.54
46.13,5.28,-4.21,5.28,-4.21,4.20,4.23,3.95,9.48,9.48,9.49
46.60,5.27,-4.17,5.27,-4.17,4.18,4.21,3.92,9.44,9.44,9.43
47.06,5.25,-4.13,5.25,-4.13,4.15,4.19,3.90,9.40,9.40,9.38
47.53,5.23,-4.10,5.23,-4.11,4.12,4.17,3.88,9.36,9.36,9.34
48.01,5.21,-4.09,5.21,-4.09,4.10,4.15,3.86,9.31,9.31,9.30
48.49,5.19,-4.08,5.19,-4.08,4.07,4.13,3.85,9.26,9.26,9.27
48.97,5.17,-4.07,5.17,-4.06,4.04,4.11,3.84,9.22,9.22,9.24
49.46,5.16,-4.04,5.16,-4.04,4.02,4.09,3.83,9.18,9.18,9.20
49.96,5.14,-4.01,5.14,-4.00,4.00,4.07,3.82,9.14,9.14,9.15
50.46,5.12,-3.97,5.12,-3.97,3.98,4.05,3.82,9.10,9.10,9.09
50.96,5.10,-3.94,5.09,-3.94,3.96,4.03,3.81,9.05,9.05,9.03
51.47,5.06,-3.92,5.06,-3.92,3.94,4.01,3.81,9.00,9.00,8.98
51.99,5.01,-3.91,5.01,-3.91,3.92,3.98,3.81,8.94,8.94,8.93
52.51,4.97,-3.91,4.97,-3.91,3.91,3.96,3.81,8.87,8.87,8.88
53.03,4.92,-3.91,4.92,-3.90,3.89,3.94,3.82,8.81,8.81,8.83
53.56,4.88,-3.89,4.88,-3.89,3.87,3.92,3.82,8.76,8.76,8.78
54.10,4.85,-3.87,4.85,-3.87,3.85,3.90,3.82,8.71,8.71,8.72
54.64,4.83,-3.84,4.83,-3.84,3.83,3.88,3.83,8.66,8.67,8.67
55.18,4.82,-3.81,4.82,-3.81,3.81,3.86,3.83,8.63,8.63,8.63
55.74,4.81,-3.77,4.81,-3.77,3.78,3.83,3.84,8.59,8.59,8.59
56.29,4.80,-3.74,4.80,-3.74,3.75,3.81,3.84,8.55,8.55,8.54
56.86,4.78,-3.71,4.78,-3.72,3.73,3.79,3.84,8.51,8.51,8.50
57.42,4.75,-3.70,4.75,-3.70,3.71,3.77,3.85,8.46,8.46,8.45
58.00,4.72,-3.69,4.72,-3.68,3.68,3.75,3.85,8.40,8.40,8.40
58.58,4.68,-3.67,4.68,-3.67,3.66,3.72,3.85,8.35,8.35,8.36
59.16,4.65,-3.66,4.65,-3.66,3.65,3.70,3.84,8.30,8.30,8.31
59.76,4.63,-3.64,4.63,-3.64,3.63,3.68,3.84,8.26,8.26,8.26
60.35,4.60,-3.61,4.60,-3.61,3.61,3.66,3.83,8.21,8.21,8.22
60.96,4.57,-3.59,4.57,-3.59,3.60,3.64,3.82,8.17,8.17,8.16
61.57,4.54,-3.57,4.54,-3.57,3.58,3.62,3.81,8.12,8.12,8.11
62.18,4.50,-3.56,4.50,-3.56,3.56,3.59,3.79,8.06,8.06,8.06
62.80,4.45,-3.55,4.45,-3.55,3.55,3.57,3.78,8.00,8.00,8.00
63.43,4.41,-3.54,4.41,-3.54,3.53,3.55,3.76,7.94,7.94,7.95
64.07,4.36,-3.53,4.37,-3.52,3.51,3.53,3.74,7.88,7.88,7.89
64.71,4.33,-3.50,4.33,-3.50,3.50,3.51,3.71,7.83,7.83,7.84
65.35,4.30,-3.48,4.30,-3.48,3.48,3.48,3.68,7.78,7.78,7.78
66.01,4.27,-3.46,4.27,-3.46,3.47,3.46,3.65,7.74,7.74,7.73
66.67,4.23,-3.45,4.23,-3.45,3.46,3.44,3.62,7.69,7.69,7.68
67.33,4.19,-3.44,4.19,-3.44,3.44,3.42,3.59,7.64,7.64,7.63
68.01,4.15,-3.43,4.15,-3.43,3.43,3.40,3.55,7.58,7.58,7.58
68.69,4.11,-3.42,4.11,-3.42,3.42,3.38,3.51,7.53,7.53,7.53
69.37,4.06,-3.42,4.06,-3.42,3.41,3.35,3.47,7.48,7.48,7.48
70.07,4.02,-3.41,4.02,-3.41,3.40,3.33,3.43,7.42,7.42,7.43
70.77,3.98,-3.39,3.98,-3.39,3.39,3.31,3.39,7.37,7.37,7.37
71.48,3.94,-3.38,3.94,-3.38,3.38,3.29,3.35,7.32,7.32,7.32
72.19,3.90,-3.36,3.90,-3.36,3.36,3.27,3.31,7.26,7.26,7.27
72.91,3.87,-3.35,3.87,-3.35,3.34,3.25,3.27,7.21,7.21,7.21
73.64,3.83,-3.33,3.83,-3.33,3.32,3.23,3.22,7.16,7.16,7.16
74.38,3.80,-3.30,3.80,-3.30,3.30,3.21,3.18,7.10,7.10,7.10
75.12,3.77,-3.28,3.77,-3.28,3.29,3.18,3.14,7.05,7.05,7.05
75.87,3.73,-3.26,3.73,-3.26,3.27,3.16,3.10,7.00,7.00,6.99
76.63,3.69,-3.25,3.69,-3.25,3.26,3.14,3.06,6.95,6.95,6.94
77.40,3.64,-3.24,3.64,-3.24,3.25,3.12,3.02,6.89,6.89,6.88
78.17,3.60,-3.24,3.59,-3.24,3.24,3.10,2.98,6.83,6.83,6.83
78.95,3.55,-3.23,3.55,-3.23,3.22,3.08,2.94,6.77,6.77,6.78
79.74,3.50,-3.23,3.50,-3.23,3.21,3.06,2.91,6.71,6.71,6.72
80.54,3.45,-3.22,3.45,-3.21,3.20,3.04,2.87,6.65,6.65,6.67
81.35,3.41,-3.20,3.42,-3.20,3.18,3.02,2.84,6.60,6.60,6.61
82.16,3.38,-3.18,3.38,-3.18,3.17,3.00,2.81,6.55,6.55,6.56
82.98,3.34,-3.17,3.35,-3.17,3.16,2.98,2.78,6.51,6.51,6.51
83.81,3.30,-3.16,3.30,-3.16,3.18,2.96,2.75,6.48,6.48,6.46
84.65,3.24,-3.17,3.24,-3.17,3.21,2.95,2.73,6.46,6.46,6.42
85.50,3.16,-3.21,3.16,-3.21,3.27,2.93,2.71,6.43,6.43,6.36
86.35,3.05,-3.27,3.04,-3.28,3.35,2.91,2.68,6.40,6.39,6.31
87.22,2.89,-3.37,2.88,-3.38,3.43,2.89,2.66,6.32,6.31,6.26
88.09,2.70,-3.50,2.70,-3.51,3.50,2.87,2.65,6.20,6.20,6.21
88.97,2.53,-3.62,2.52,-3.63,3.55,2.85,2.63,6.08,6.07,6.15
89.86,2.38,-3.72,2.41,-3.69,3.57,2.83,2.62,5.95,5.97,6.10
90.76,2.37,-3.67,2.38,-3.66,3.56,2.82,2.61,5.92,5.93,6.04
91.66,2.43,-3.56,2.43,-3.56,3.52,2.80,2.60,5.94,5.94,5.99
92.58,2.54,-3.39,2.53,-3.40,3.44,2.78,2.59,5.98,5.97,5.93
93.51,2.65,-3.23,2.64,-3.25,3.33,2.76,2.58,5.98,5.97,5.88
94.44,2.73,-3.11,2.72,-3.12,3.18,2.75,2.58,5.90,5.90,5.83
95.39,2.78,-3.01,2.77,-3.01,3.00,2.73,2.58,5.78,5.77,5.79
96.34,2.83,-2.91,2.83,-2.90,2.81,2.71,2.58,5.64,5.65,5.74
97.30,2.91,-2.78,2.94,-2.75,2.63,2.70,2.58,5.55,5.57,5.69
98.28,3.07,-2.56,3.09,-2.55,2.49,2.68,2.58,5.56,5.58,5.64
99.26,3.27,-2.32,3.27,-2.31,2.38,2.66,2.58,5.64,5.65,5.58
100.25,3.43,-2.11,3.40,-2.14,2.31,2.65,2.59,5.73,5.70,5.53
101.25,3.45,-2.04,3.41,-2.07,2.27,2.63,2.59,5.71,5.68,5.49
102.27,3.30,-2.14,3.29,-2.15,2.26,2.62,2.60,5.56,5.55,5.44
103.29,3.09,-2.30,3.10,-2.29,2.28,2.60,2.61,5.37,5.37,5.39
104.32,2.87,-2.46,2.91,-2.43,2.32,2.59,2.62,5.19,5.22,5.34
105.37,2.77,-2.52,2.77,-2.52,2.37,2.57,2.63,5.14,5.15,5.29
106.42,2.70,-2.53,2.71,-2.53,2.43,2.56,2.64,5.14,5.14,5.24
107.48,2.69,-2.50,2.69,-2.50,2.47,2.55,2.65,5.16,5.16,5.18
108.56,2.68,-2.45,2.67,-2.46,2.49,2.53,2.66,5.17,5.16,5.13
109.64,2.65,-2.43,2.65,-2.43,2.49,2.52,2.67,5.14,5.13,5.08
110.74,2.61,-2.42,2.61,-2.42,2.46,2.51,2.68,5.08,5.07,5.03
111.85,2.56,-2.42,2.56,-2.42,2.44,2.49,2.69,5.00,5.00,4.98
112.97,2.51,-2.43,2.51,-2.43,2.42,2.48,2.70,4.93,4.93,4.93
114.10,2.46,-2.43,2.47,-2.42,2.40,2.47,2.71,4.87,4.87,4.89
115.24,2.44,-2.41,2.44,-2.41,2.39,2.45,2.72,4.83,4.83,4.85
116.39,2.42,-2.39,2.42,-2.39,2.38,2.44,2.72,4.80,4.80,4.81
117.55,2.40,-2.36,2.40,-2.36,2.36,2.43,2.73,4.76,4.76,4.76
118.73,2.38,-2.33,2.38,-2.33,2.34,2.42,2.73,4.72,4.72,4.71
119.92,2.36,-2.31,2.36,-2.31,2.32,2.41,2.73,4.67,4.67,4.66
121.12,2.33,-2.29,2.33,-2.29,2.29,2.40,2.73,4.62,4.62,4.61
122.33,2.29,-2.27,2.29,-2.27,2.28,2.39,2.73,4.57,4.57,4.56
123.55,2.25,-2.26,2.25,-2.26,2.26,2.38,2.72,4.52,4.52,4.51
124.79,2.21,-2.25,2.21,-2.25,2.26,2.37,2.72,4.47,4.47,4.46
126.03,2.16,-2.25,2.16,-2.25,2.25,2.36,2.71,4.42,4.42,4.41
127.29,2.12,-2.25,2.12,-2.25,2.25,2.35,2.70,4.37,4.37,4.37
128.57,2.07,-2.25,2.07,-2.25,2.25,2.34,2.68,4.32,4.32,4.32
129.85,2.03,-2.26,2.02,-2.26,2.25,2.33,2.67,4.28,4.28,4.28
131.15,1.98,-2.26,1.98,-2.26,2.26,2.32,2.65,4.24,4.24,4.24
132.46,1.94,-2.26,1.94,-2.26,2.26,2.31,2.63,4.19,4.19,4.20
133.79,1.89,-2.26,1.89,-2.26,2.26,2.30,2.61,4.15,4.15,4.15
135.12,1.85,-2.26,1.85,-2.26,2.26,2.29,2.59,4.11,4.11,4.11
136.48,1.81,-2.26,1.81,-2.26,2.26,2.29,2.56,4.07,4.07,4.07
137.84,1.77,-2.26,1.77,-2.26,2.26,2.28,2.54,4.03,4.03,4.03
139.22,1.73,-2.26,1.73,-2.26,2.25,2.27,2.51,3.98,3.98,3.99
140.61,1.69,-2.25,1.69,-2.25,2.25,2.27,2.48,3.94,3.94,3.94
142.02,1.65,-2.24,1.65,-2.24,2.25,2.26,2.45,3.90,3.90,3.89
143.44,1.61,-2.24,1.61,-2.24,2.24,2.25,2.43,3.85,3.85,3.85
144.87,1.57,-2.23,1.57,-2.23,2.24,2.25,2.40,3.81,3.81,3.80
146.32,1.54,-2.23,1.54,-2.23,2.23,2.24,2.37,3.76,3.76,3.77
147.78,1.50,-2.23,1.51,-2.23,2.22,2.23,2.34,3.72,3.72,3.73
149.26,1.48,-2.21,1.48,-2.21,2.20,2.23,2.31,3.68,3.68,3.69
150.75,1.45,-2.20,1.45,-2.20,2.19,2.22,2.28,3.64,3.64,3.65
152.26,1.43,-2.17,1.43,-2.17,2.18,2.22,2.25,3.61,3.61,3.60
153.78,1.40,-2.16,1.40,-2.16,2.16,2.22,2.22,3.57,3.57,3.56
155.32,1.38,-2.14,1.37,-2.14,2.15,2.21,2.20,3.53,3.53,3.52
156.88,1.34,-2.14,1.34,-2.14,2.14,2.21,2.17,3.48,3.48,3.48
158.44,1.30,-2.13,1.30,-2.13,2.13,2.20,2.14,3.43,3.43,3.43
160.03,1.27,-2.13,1.27,-2.13,2.12,2.20,2.12,3.39,3.39,3.39
161.63,1.23,-2.12,1.23,-2.12,2.12,2.20,2.10,3.35,3.35,3.35
163.24,1.19,-2.12,1.19,-2.12,2.11,2.19,2.07,3.31,3.31,3.31
164.88,1.16,-2.11,1.16,-2.11,2.11,2.19,2.05,3.27,3.27,3.27
166.53,1.12,-2.11,1.12,-2.11,2.11,2.19,2.03,3.23,3.23,3.23
168.19,1.09,-2.10,1.09,-2.11,2.11,2.19,2.01,3.20,3.20,3.19
169.87,1.05,-2.10,1.05,-2.11,2.11,2.19,2.00,3.16,3.16,3.16
171.57,1.02,-2.11,1.02,-2.11,2.11,2.18,1.98,3.12,3.12,3.12
173.29,0.98,-2.11,0.98,-2.11,2.11,2.18,1.97,3.09,3.09,3.09
175.02,0.95,-2.11,0.95,-2.11,2.11,2.18,1.96,3.05,3.05,3.06
176.77,0.91,-2.11,0.91,-2.11,2.11,2.18,1.94,3.02,3.02,3.02
178.54,0.88,-2.11,0.88,-2.11,2.10,2.18,1.93,2.98,2.98,2.98
180.32,0.85,-2.10,0.85,-2.10,2.10,2.18,1.93,2.95,2.95,2.95
182.13,0.82,-2.10,0.82,-2.10,2.10,2.18,1.92,2.92,2.92,2.92
183.95,0.79,-2.09,0.79,-2.09,2.09,2.18,1.91,2.88,2.88,2.88
185.79,0.76,-2.08,0.76,-2.08,2.08,2.18,1.91,2.85,2.85,2.84
187.65,0.73,-2.08,0.73,-2.08,2.08,2.18,1.91,2.81,2.81,2.80
189.52,0.70,-2.07,0.70,-2.07,2.07,2.18,1.91,2.77,2.77,2.77
191.42,0.67,-2.07,0.67,-2.07,2.06,2.18,1.91,2.73,2.73,2.73
193.33,0.64,-2.06,0.64,-2.06,2.06,2.18,1.91,2.69,2.70,2.70
195.27,0.61,-2.05,0.61,-2.05,2.05,2.18,1.91,2.66,2.66,2.66
197.22,0.58,-2.05,0.58,-2.05,2.05,2.18,1.91,2.63,2.63,2.63
199.19,0.54,-2.05,0.54,-2.05,2.05,2.18,1.92,2.60,2.60,2.59
201.18,0.51,-2.05,0.51,-2.05,2.06,2.17,1.92,2.56,2.56,2.56
203.19,0.47,-2.06,0.47,-2.06,2.06,2.17,1.93,2.53,2.53,2.53
205.23,0.42,-2.07,0.42,-2.07,2.07,2.17,1.94,2.50,2.50,2.50
207.28,0.38,-2.08,0.38,-2.08,2.09,2.17,1.94,2.47,2.47,2.46
209.35,0.33,-2.10,0.33,-2.10,2.11,2.17,1.95,2.44,2.44,2.43
211.44,0.28,-2.12,0.28,-2.12,2.13,2.17,1.96,2.41,2.41,2.40
213.56,0.23,-2.15,0.23,-2.14,2.15,2.17,1.97,2.38,2.38,2.37
215.69,0.17,-2.17,0.17,-2.17,2.18,2.17,1.98,2.35,2.35,2.34
217.85,0.11,-2.19,0.11,-2.19,2.20,2.16,1.99,2.31,2.31,2.31
220.03,0.06,-2.21,0.06,-2.21,2.21,2.16,1.99,2.27,2.27,2.27
222.23,0.02,-2.22,0.02,-2.22,2.22,2.16,2.00,2.24,2.23,2.24
224.45,-0.01,-2.22,-0.01,-2.22,2.20,2.15,2.01,2.19,2.19,2.21
226.70,-0.02,-2.20,-0.02,-2.20,2.17,2.15,2.02,2.14,2.15,2.18
228.96,-0.00,-2.15,-0.00,-2.15,2.11,2.15,2.03,2.11,2.11,2.15
231.25,0.04,-2.08,0.04,-2.07,2.05,2.14,2.03,2.08,2.09,2.11
233.57,0.10,-1.98,0.11,-1.98,1.96,2.13,2.04,2.07,2.07,2.09
235.90,0.19,-1.87,0.18,-1.87,1.88,2.13,2.04,2.06,2.06,2.06
238.26,0.26,-1.77,0.26,-1.77,1.79,2.12,2.04,2.05,2.05,2.03
240.64,0.33,-1.68,0.33,-1.69,1.71,2.11,2.04,2.04,2.04,2.01
243.05,0.37,-1.62,0.37,-1.63,1.65,2.10,2.04,2.03,2.02,1.99
245.48,0.39,-1.60,0.39,-1.59,1.61,2.10,2.04,2.00,2.00,1.98
247.93,0.39,-1.58,0.39,-1.58,1.60,2.09,2.03,1.99,1.99,1.97
250.41,0.38,-1.59,0.38,-1.59,1.61,2.08,2.03,1.99,1.99,1.97
252.92,0.36,-1.62,0.36,-1.62,1.63,2.07,2.02,1.99,1.99,1.98
255.45,0.33,-1.67,0.33,-1.67,1.67,2.06,2.01,2.00,2.00,2.00
258.00,0.30,-1.73,0.30,-1.73,1.72,2.05,2.00,2.02,2.02,2.02
260.58,0.26,-1.78,0.26,-1.78,1.77,2.03,1.99,2.03,2.03,2.04
263.19,0.23,-1.83,0.23,-1.83,1.81,2.02,1.97,2.04,2.04,2.06
265.82,0.20,-1.87,0.20,-1.87,1.85,2.01,1.96,2.05,2.05,2.07
268.48,0.17,-1.90,0.17,-1.89,1.88,2.00,1.94,2.05,2.05,2.06
271.16,0.14,-1.91,0.14,-1.91,1.90,1.98,1.92,2.04,2.04,2.05
273.87,0.11,-1.91,0.11,-1.91,1.91,1.97,1.90,2.02,2.02,2.02
276.61,0.09,-1.90,0.09,-1.90,1.90,1.96,1.88,1.99,1.99,1.99
279.38,0.06,-1.89,0.06,-1.89,1.90,1.94,1.86,1.96,1.96,1.95
282.17,0.04,-1.88,0.04,-1.88,1.89,1.93,1.84,1.92,1.92,1.92
284.99,0.01,-1.87,0.01,-1.87,1.87,1.92,1.82,1.88,1.88,1.88
287.84,-0.01,-1.85,-0.01,-1.85,1.86,1.90,1.80,1.85,1.85,1.84
290.72,-0.03,-1.84,-0.03,-1.84,1.84,1.89,1.77,1.81,1.81,1.81
293.63,-0.06,-1.83,-0.06,-1.83,1.83,1.87,1.75,1.77,1.77,1.77
296.57,-0.08,-1.81,-0.08,-1.81,1.81,1.86,1.73,1.74,1.74,1.74
299.53,-0.10,-1.80,-0.10,-1.80,1.80,1.85,1.71,1.71,1.71,1.70
302.53,-0.12,-1.79,-0.12,-1.79,1.79,1.83,1.68,1.68,1.68,1.67
305.55,-0.14,-1.78,-0.14,-1.78,1.78,1.82,1.66,1.65,1.65,1.64
308.61,-0.15,-1.77,-0.15,-1.77,1.78,1.80,1.64,1.62,1.62,1.62
311.69,-0.17,-1.77,-0.17,-1.77,1.77,1.79,1.62,1.59,1.59,1.60
314.81,-0.19,-1.76,-0.19,-1.76,1.76,1.77,1.60,1.57,1.57,1.57
317.96,-0.21,-1.76,-0.21,-1.76,1.75,1.76,1.58,1.54,1.54,1.54
321.14,-0.23,-1.75,-0.23,-1.75,1.74,1.75,1.56,1.51,1.51,1.52
324.35,-0.25,-1.74,-0.25,-1.74,1.74,1.73,1.54,1.49,1.49,1.49
327.59,-0.27,-1.73,-0.27,-1.73,1.72,1.72,1.52,1.46,1.46,1.46
330.87,-0.28,-1.71,-0.28,-1.71,1.71,1.70,1.50,1.43,1.43,1.43
334.18,-0.30,-1.70,-0.30,-1.70,1.70,1.69,1.49,1.40,1.40,1.40
337.52,-0.32,-1.69,-0.32,-1.69,1.69,1.68,1.47,1.37,1.37,1.37
340.90,-0.34,-1.68,-0.34,-1.68,1.68,1.66,1.46,1.34,1.34,1.34
344.30,-0.35,-1.67,-0.35,-1.67,1.67,1.65,1.45,1.31,1.31,1.31
347.75,-0.37,-1.66,-0.37,-1.66,1.66,1.63,1.43,1.29,1.29,1.29
351.23,-0.38,-1.65,-0.38,-1.65,1.65,1.62,1.42,1.27,1.27,1.26
354.74,-0.40,-1.64,-0.40,-1.64,1.64,1.61,1.41,1.24,1.24,1.24
358.28,-0.41,-1.64,-0.41,-1.64,1.64,1.59,1.41,1.22,1.22,1.22
361.87,-0.43,-1.64,-0.43,-1.64,1.64,1.58,1.40,1.21,1.21,1.21
365.49,-0.45,-1.64,-0.45,-1.64,1.63,1.57,1.39,1.19,1.19,1.19
369.14,-0.46,-1.64,-0.46,-1.64,1.63,1.55,1.39,1.17,1.17,1.18
372.83,-0.48,-1.64,-0.48,-1.64,1.64,1.54,1.38,1.16,1.16,1.16
376.56,-0.49,-1.63,-0.49,-1.64,1.64,1.53,1.38,1.15,1.15,1.14
380.33,-0.51,-1.64,-0.51,-1.64,1.64,1.51,1.38,1.13,1.13,1.13
384.13,-0.52,-1.64,-0.52,-1.64,1.64,1.50,1.38,1.11,1.11,1.12
387.97,-0.54,-1.64,-0.54,-1.64,1.64,1.49,1.37,1.10,1.10,1.10
391.85,-0.55,-1.64,-0.55,-1.64,1.64,1.47,1.38,1.08,1.08,1.09
395.77,-0.57,-1.64,-0.57,-1.63,1.64,1.46,1.38,1.07,1.07,1.07
399.73,-0.58,-1.63,-0.58,-1.63,1.64,1.45,1.38,1.06,1.06,1.05
403.72,-0.59,-1.63,-0.59,-1.63,1.64,1.43,1.38,1.05,1.05,1.04
407.76,-0.61,-1.63,-0.61,-1.63,1.64,1.42,1.38,1.03,1.03,1.02
411.84,-0.62,-1.63,-0.62,-1.63,1.63,1.41,1.39,1.01,1.01,1.01
415.96,-0.63,-1.62,-0.63,-1.62,1.61,1.40,1.39,0.98,0.98,0.99
420.12,-0.64,-1.61,-0.64,-1.61,1.58,1.38,1.40,0.94,0.94,0.96
424.32,-0.66,-1.58,-0.66,-1.57,1.55,1.37,1.40,0.89,0.89,0.92
428.56,-0.67,-1.52,-0.67,-1.52,1.51,1.36,1.40,0.85,0.85,0.86
432.85,-0.68,-1.47,-0.68,-1.47,1.47,1.35,1.41,0.80,0.80,0.79
437.18,-0.69,-1.41,-0.69,-1.42,1.44,1.33,1.41,0.75,0.75,0.72
441.55,-0.70,-1.38,-0.70,-1.38,1.40,1.32,1.42,0.70,0.70,0.68
445.96,-0.71,-1.35,-0.71,-1.35,1.37,1.31,1.42,0.66,0.66,0.64
450.42,-0.73,-1.34,-0.73,-1.34,1.35,1.30,1.43,0.63,0.63,0.62
454.93,-0.74,-1.34,-0.74,-1.34,1.34,1.28,1.43,0.60,0.60,0.60
459.48,-0.75,-1.34,-0.75,-1.33,1.33,1.27,1.43,0.58,0.58,0.58
464.07,-0.76,-1.33,-0.76,-1.33,1.33,1.26,1.44,0.56,0.56,0.57
468.71,-0.77,-1.33,-0.77,-1.33,1.32,1.25,1.44,0.55,0.55,0.56
473.40,-0.78,-1.33,-0.78,-1.32,1.31,1.24,1.44,0.53,0.53,0.55
478.13,-0.79,-1.31,-0.79,-1.31,1.31,1.22,1.44,0.52,0.52,0.52
482.91,-0.80,-1.29,-0.80,-1.29,1.29,1.21,1.43,0.50,0.50,0.50
487.74,-0.80,-1.28,-0.80,-1.28,1.28,1.20,1.43,0.48,0.48,0.47
492.62,-0.81,-1.26,-0.81,-1.26,1.26,1.19,1.43,0.45,0.45,0.45
497.55,-0.82,-1.25,-0.82,-1.25,1.25,1.18,1.42,0.43,0.43,0.43
502.52,-0.83,-1.23,-0.83,-1.23,1.24,1.16,1.41,0.41,0.41,0.40
507.55,-0.84,-1.22,-0.84,-1.22,1.23,1.15,1.41,0.38,0.38,0.38
512.62,-0.85,-1.21,-0.85,-1.21,1.22,1.14,1.40,0.36,0.36,0.36
517.75,-0.86,-1.21,-0.86,-1.21,1.21,1.13,1.39,0.34,0.34,0.34
522.93,-0.88,-1.20,-0.88,-1.20,1.20,1.12,1.37,0.32,0.32,0.33
528.16,-0.89,-1.19,-0.89,-1.19,1.19,1.10,1.36,0.30,0.30,0.31
533.44,-0.90,-1.18,-0.90,-1.18,1.18,1.09,1.35,0.28,0.28,0.28
538.77,-0.91,-1.16,-0.91,-1.17,1.17,1.08,1.33,0.26,0.26,0.26
544.16,-0.92,-1.15,-0.92,-1.15,1.16,1.07,1.32,0.24,0.24,0.24
