frequency,raw,error,smoothed,error_smoothed,equalization,parametric_eq,fixed_band_eq,equalized_raw,equalized_smoothed,target
20.00,11.89,4.34,11.89,4.34,-4.37,-3.67,-1.60,7.52,7.52,7.55
20.20,11.89,4.34,11.89,4.34,-4.35,-3.68,-1.65,7.55,7.55,7.56
20.40,11.89,4.33,11.89,4.33,-4.32,-3.68,-1.70,7.57,7.57,7.56
20.61,11.88,4.32,11.88,4.32,-4.29,-3.68,-1.75,7.59,7.59,7.56
20.81,11.87,4.29,11.87,4.29,-4.26,-3.69,-1.80,7.60,7.60,7.57
21.02,11.85,4.26,11.85,4.26,-4.24,-3.69,-1.86,7.61,7.61,7.59
21.23,11.82,4.22,11.82,4.22,-4.21,-3.69,-1.91,7.61,7.61,7.60
21.44,11.80,4.18,11.80,4.18,-4.18,-3.69,-1.97,7.61,7.61,7.62
21.66,11.77,4.14,11.77,4.14,-4.15,-3.69,-2.03,7.62,7.62,7.63
21.87,11.74,4.10,11.75,4.10,-4.12,-3.69,-2.09,7.63,7.63,7.64
22.09,11.72,4.08,11.72,4.08,-4.09,-3.68,-2.15,7.63,7.63,7.65
22.31,11.70,4.06,11.70,4.06,-4.07,-3.68,-2.22,7.64,7.64,7.65
22.54,11.68,4.04,11.68,4.04,-4.05,-3.68,-2.28,7.64,7.64,7.64
22.76,11.67,4.03,11.67,4.03,-4.03,-3.67,-2.35,7.64,7.64,7.64
22.99,11.65,4.02,11.65,4.02,-4.01,-3.66,-2.42,7.64,7.64,7.63
23.22,11.63,4.00,11.63,4.00,-3.98,-3.66,-2.49,7.65,7.65,7.64
23.45,11.61,3.97,11.61,3.97,-3.96,-3.65,-2.56,7.66,7.66,7.64
23.69,11.59,3.93,11.59,3.93,-3.92,-3.64,-2.64,7.67,7.67,7.66
23.92,11.57,3.89,11.57,3.89,-3.88,-3.63,-2.71,7.68,7.68,7.68
24.16,11.54,3.84,11.54,3.84,-3.84,-3.62,-2.79,7.70,7.70,7.70
24.40,11.51,3.79,11.51,3.79,-3.79,-3.61,-2.86,7.72,7.72,7.72
24.65,11.49,3.74,11.49,3.74,-3.75,-3.59,-2.94,7.74,7.74,7.74
24.89,11.46,3.70,11.46,3.70,-3.70,-3.58,-3.02,7.75,7.75,7.76
25.14,11.43,3.66,11.42,3.66,-3.66,-3.56,-3.10,7.76,7.76,7.77
25.39,11.39,3.62,11.39,3.62,-3.62,-3.55,-3.18,7.77,7.77,7.77
25.65,11.37,3.58,11.37,3.58,-3.59,-3.53,-3.26,7.78,7.78,7.78
25.91,11.34,3.55,11.34,3.55,-3.56,-3.51,-3.34,7.79,7.79,7.79
26.16,11.32,3.52,11.32,3.52,-3.53,-3.50,-3.42,7.79,7.79,7.80
26.43,11.30,3.49,11.30,3.49,-3.50,-3.48,-3.50,7.81,7.81,7.81
26.69,11.29,3.46,11.29,3.46,-3.47,-3.46,-3.58,7.82,7.82,7.82
26.96,11.27,3.44,11.27,3.44,-3.43,-3.44,-3.65,7.84,7.84,7.84
27.23,11.25,3.40,11.25,3.40,-3.39,-3.42,-3.73,7.86,7.86,7.84
27.50,11.21,3.36,11.21,3.36,-3.34,-3.39,-3.80,7.87,7.87,7.85
27.77,11.16,3.31,11.16,3.31,-3.29,-3.37,-3.87,7.88,7.88,7.85
28.05,11.10,3.25,11.10,3.24,-3.23,-3.35,-3.93,7.87,7.87,7.86
28.33,11.03,3.17,11.03,3.17,-3.18,-3.32,-3.99,7.85,7.85,7.86
28.62,10.96,3.11,10.96,3.11,-3.13,-3.30,-4.05,7.83,7.83,7.85
28.90,10.90,3.05,10.90,3.06,-3.09,-3.27,-4.10,7.81,7.81,7.85
29.19,10.86,3.03,10.86,3.03,-3.06,-3.25,-4.15,7.80,7.80,7.84
29.48,10.84,3.01,10.85,3.02,-3.04,-3.22,-4.19,7.80,7.80,7.83
29.78,10.85,3.03,10.84,3.03,-3.03,-3.20,-4.23,7.82,7.82,7.82
30.08,10.85,3.04,10.85,3.04,-3.02,-3.17,-4.25,7.84,7.84,7.81
30.38,10.86,3.05,10.86,3.04,-3.00,-3.14,-4.28,7.86,7.85,7.82
30.68,10.86,3.03,10.86,3.03,-2.99,-3.11,-4.29,7.87,7.86,7.83
30.99,10.84,3.00,10.84,3.00,-2.98,-3.08,-4.30,7.86,7.86,7.85
31.30,10.82,2.96,10.82,2.96,-2.97,-3.05,-4.30,7.85,7.85,7.86
31.61,10.80,2.92,10.80,2.93,-2.95,-3.02,-4.29,7.84,7.85,7.87
31.93,10.78,2.90,10.78,2.91,-2.94,-2.99,-4.27,7.84,7.84,7.88
32.24,10.78,2.91,10.78,2.91,-2.93,-2.96,-4.25,7.85,7.85,7.87
32.57,10.78,2.92,10.78,2.92,-2.93,-2.93,-4.22,7.85,7.85,7.86
32.89,10.79,2.94,10.78,2.94,-2.92,-2.90,-4.19,7.86,7.86,7.85
33.22,10.78,2.95,10.78,2.94,-2.92,-2.87,-4.15,7.86,7.86,7.84
33.55,10.78,2.94,10.78,2.94,-2.92,-2.84,-4.10,7.86,7.86,7.83
33.89,10.76,2.92,10.76,2.92,-2.91,-2.80,-4.05,7.85,7.85,7.84
34.23,10.74,2.89,10.74,2.89,-2.89,-2.77,-3.99,7.84,7.84,7.84
34.57,10.71,2.86,10.71,2.86,-2.87,-2.74,-3.92,7.84,7.84,7.85
34.92,10.69,2.83,10.69,2.84,-2.85,-2.70,-3.86,7.84,7.84,7.85
35.27,10.66,2.81,10.66,2.81,-2.82,-2.67,-3.78,7.85,7.85,7.85
35.62,10.64,2.78,10.64,2.78,-2.79,-2.64,-3.71,7.85,7.85,7.85
35.97,10.60,2.76,10.60,2.76,-2.76,-2.60,-3.63,7.85,7.85,7.85
36.33,10.57,2.73,10.57,2.73,-2.72,-2.57,-3.55,7.85,7.85,7.84
36.70,10.53,2.69,10.53,2.69,-2.69,-2.53,-3.47,7.85,7.85,7.84
37.06,10.49,2.65,10.49,2.65,-2.64,-2.50,-3.39,7.85,7.85,7.84
37.43,10.45,2.61,10.45,2.61,-2.60,-2.46,-3.30,7.85,7.85,7.84
37.81,10.40,2.55,10.40,2.55,-2.55,-2.43,-3.22,7.85,7.85,7.85
38.19,10.35,2.50,10.35,2.50,-2.50,-2.39,-3.13,7.85,7.85,7.85
38.57,10.29,2.44,10.29,2.44,-2.44,-2.36,-3.05,7.85,7.85,7.85
38.95,10.24,2.38,10.24,2.38,-2.39,-2.32,-2.96,7.85,7.85,7.86
39.34,10.18,2.33,10.18,2.33,-2.34,-2.29,-2.87,7.84,7.85,7.85
39.74,10.13,2.28,10.13,2.28,-2.29,-2.25,-2.79,7.84,7.84,7.85
40.14,10.08,2.24,10.08,2.24,-2.25,-2.22,-2.70,7.84,7.84,7.84
40.54,10.04,2.20,10.04,2.20,-2.21,-2.18,-2.62,7.83,7.83,7.84
40.94,10.00,2.17,10.00,2.17,-2.17,-2.14,-2.54,7.83,7.83,7.83
41.35,9.96,2.14,9.96,2.14,-2.13,-2.11,-2.46,7.83,7.83,7.82
41.76,9.92,2.10,9.92,2.10,-2.10,-2.07,-2.38,7.83,7.83,7.82
42.18,9.89,2.07,9.89,2.07,-2.06,-2.04,-2.30,7.82,7.82,7.82
42.60,9.85,2.03,9.85,2.03,-2.03,-2.00,-2.22,7.82,7.82,7.82
43.03,9.81,1.99,9.81,1.99,-1.99,-1.96,-2.15,7.82,7.82,7.82
43.46,9.77,1.95,9.77,1.95,-1.95,-1.93,-2.07,7.81,7.81,7.82
43.90,9.72,1.91,9.72,1.91,-1.91,-1.89,-2.00,7.81,7.81,7.81
44.33,9.68,1.87,9.68,1.87,-1.87,-1.85,-1.93,7.81,7.81,7.81
44.78,9.63,1.83,9.63,1.83,-1.83,-1.82,-1.86,7.80,7.80,7.80
45.23,9.59,1.79,9.59,1.79,-1.79,-1.78,-1.79,7.80,7.80,7.79
45.68,9.53,1.75,9.53,1.75,-1.75,-1.74,-1.73,7.79,7.79,7.78
46.13,9.48,1.70,9.48,1.70,-1.70,-1.71,-1.66,7.78,7.78,7.78
46.60,9.42,1.65,9.42,1.65,-1.65,-1.67,-1.60,7.77,7.77,7.77
47.06,9.36,1.60,9.36,1.60,-1.60,-1.63,-1.54,7.76,7.76,7.76
47.53,9.31,1.55,9.31,1.55,-1.55,-1.60,-1.48,7.75,7.75,7.75
48.01,9.25,1.50,9.25,1.50,-1.50,-1.56,-1.42,7.74,7.74,7.74
48.49,9.19,1.45,9.19,1.45,-1.45,-1.52,-1.36,7.73,7.73,7.74
48.97,9.13,1.40,9.13,1.40,-1.40,-1.48,-1.30,7.73,7.73,7.73
49.46,9.07,1.35,9.07,1.35,-1.36,-1.45,-1.25,7.72,7.72,7.72
49.96,9.02,1.31,9.02,1.31,-1.31,-1.41,-1.19,7.71,7.71,7.71
50.46,8.96,1.26,8.96,1.26,-1.27,-1.37,-1.14,7.70,7.70,7.70
50.96,8.91,1.22,8.91,1.22,-1.23,-1.34,-1.09,7.69,7.69,7.69
51.47,8.87,1.18,8.87,1.18,-1.19,-1.30,-1.04,7.68,7.68,7.68
51.99,8.82,1.15,8.82,1.15,-1.15,-1.26,-0.99,7.67,7.67,7.67
52.51,8.78,1.11,8.78,1.11,-1.11,-1.22,-0.94,7.67,7.67,7.66
53.03,8.73,1.08,8.73,1.08,-1.07,-1.18,-0.90,7.66,7.66,7.65
53.56,8.67,1.04,8.67,1.04,-1.03,-1.15,-0.85,7.65,7.65,7.64
54.10,8.61,0.99,8.61,0.99,-0.98,-1.11,-0.80,7.64,7.63,7.63
54.64,8.55,0.94,8.55,0.94,-0.93,-1.07,-0.76,7.62,7.62,7.61
55.18,8.48,0.88,8.48,0.88,-0.88,-1.03,-0.71,7.60,7.60,7.60
55.74,8.41,0.83,8.41,0.83,-0.84,-0.99,-0.67,7.57,7.57,7.58
56.29,8.35,0.78,8.35,0.78,-0.79,-0.95,-0.63,7.55,7.56,7.57
56.86,8.29,0.74,8.29,0.74,-0.75,-0.91,-0.59,7.54,7.54,7.55
57.42,8.24,0.70,8.24,0.70,-0.71,-0.88,-0.55,7.53,7.53,7.53
58.00,8.19,0.67,8.19,0.67,-0.67,-0.84,-0.51,7.52,7.52,7.52
58.58,8.13,0.63,8.13,0.63,-0.62,-0.80,-0.47,7.51,7.51,7.50
59.16,8.08,0.59,8.08,0.59,-0.58,-0.76,-0.43,7.50,7.50,7.48
59.76,8.01,0.54,8.01,0.54,-0.53,-0.72,-0.39,7.48,7.48,7.47
60.35,7.94,0.49,7.94,0.49,-0.49,-0.67,-0.35,7.46,7.46,7.45
60.96,7.87,0.43,7.87,0.43,-0.44,-0.63,-0.31,7.43,7.43,7.44
61.57,7.80,0.37,7.80,0.38,-0.38,-0.59,-0.27,7.42,7.42,7.42
62.18,7.73,0.32,7.73,0.32,-0.33,-0.55,-0.24,7.40,7.40,7.41
62.80,7.67,0.27,7.67,0.27,-0.28,-0.51,-0.20,7.39,7.39,7.40
63.43,7.61,0.23,7.61,0.23,-0.22,-0.46,-0.16,7.38,7.38,7.38
64.07,7.54,0.18,7.54,0.18,-0.17,-0.42,-0.13,7.37,7.37,7.37
64.71,7.48,0.13,7.48,0.13,-0.12,-0.38,-0.09,7.35,7.35,7.35
65.35,7.41,0.07,7.41,0.07,-0.07,-0.33,-0.05,7.34,7.34,7.34
66.01,7.34,0.02,7.34,0.02,-0.02,-0.29,-0.02,7.32,7.32,7.32
66.67,7.28,-0.03,7.28,-0.03,0.03,-0.24,0.02,7.30,7.30,7.31
67.33,7.21,-0.08,7.21,-0.08,0.07,-0.20,0.05,7.29,7.29,7.29
68.01,7.15,-0.13,7.15,-0.13,0.12,-0.15,0.09,7.27,7.27,7.27
68.69,7.08,-0.17,7.08,-0.17,0.17,-0.10,0.13,7.25,7.25,7.25
69.37,7.01,-0.22,7.01,-0.22,0.22,-0.05,0.16,7.23,7.23,7.23
70.07,6.94,-0.26,6.94,-0.27,0.27,-0.01,0.20,7.21,7.21,7.21
70.77,6.88,-0.31,6.87,-0.31,0.32,0.04,0.23,7.19,7.19,7.19
71.48,6.80,-0.36,6.80,-0.36,0.37,0.09,0.27,7.17,7.17,7.16
72.19,6.72,-0.42,6.72,-0.42,0.42,0.14,0.31,7.14,7.14,7.14
72.91,6.64,-0.47,6.64,-0.47,0.47,0.20,0.35,7.11,7.11,7.11
73.64,6.56,-0.53,6.56,-0.53,0.53,0.25,0.38,7.08,7.08,7.09
74.38,6.47,-0.58,6.48,-0.58,0.58,0.30,0.42,7.05,7.05,7.06
75.12,6.39,-0.64,6.39,-0.64,0.63,0.35,0.46,7.03,7.03,7.03
75.87,6.32,-0.69,6.31,-0.69,0.69,0.41,0.50,7.00,7.00,7.00
76.63,6.23,-0.74,6.23,-0.74,0.74,0.46,0.54,6.97,6.97,6.97
77.40,6.15,-0.79,6.15,-0.79,0.79,0.52,0.58,6.94,6.94,6.94
78.17,6.08,-0.84,6.08,-0.84,0.84,0.58,0.62,6.92,6.92,6.92
78.95,6.00,-0.89,6.00,-0.89,0.90,0.63,0.67,6.89,6.89,6.89
79.74,5.92,-0.94,5.92,-0.94,0.95,0.69,0.71,6.87,6.87,6.87
80.54,5.84,-1.00,5.84,-1.00,1.01,0.75,0.75,6.85,6.85,6.84
81.35,5.76,-1.05,5.76,-1.05,1.06,0.81,0.80,6.83,6.82,6.81
82.16,5.67,-1.11,5.67,-1.11,1.12,0.87,0.84,6.79,6.79,6.78
82.98,5.59,-1.17,5.59,-1.17,1.16,0.93,0.89,6.75,6.75,6.75
83.81,5.50,-1.22,5.51,-1.22,1.20,0.99,0.93,6.70,6.71,6.72
84.65,5.44,-1.25,5.44,-1.25,1.23,1.05,0.98,6.67,6.67,6.69
85.50,5.39,-1.26,5.39,-1.26,1.25,1.11,1.03,6.64,6.64,6.66
86.35,5.36,-1.27,5.36,-1.27,1.26,1.17,1.08,6.62,6.62,6.63
87.22,5.34,-1.26,5.34,-1.26,1.26,1.24,1.13,6.60,6.60,6.60
88.09,5.32,-1.26,5.31,-1.26,1.26,1.30,1.18,6.58,6.58,6.57
88.97,5.29,-1.25,5.29,-1.25,1.26,1.36,1.23,6.55,6.55,6.54
89.86,5.26,-1.25,5.25,-1.25,1.26,1.42,1.29,6.51,6.51,6.51
90.76,5.21,-1.26,5.21,-1.26,1.26,1.48,1.34,6.48,6.48,6.47
91.66,5.17,-1.27,5.17,-1.27,1.28,1.54,1.40,6.44,6.44,6.44
92.58,5.11,-1.29,5.11,-1.29,1.30,1.59,1.45,6.42,6.41,6.41
93.51,5.05,-1.33,5.05,-1.33,1.34,1.65,1.51,6.39,6.39,6.38
94.44,4.98,-1.37,4.98,-1.37,1.39,1.70,1.57,6.37,6.37,6.35
95.39,4.91,-1.42,4.91,-1.43,1.45,1.76,1.63,6.35,6.35,6.33
96.34,4.82,-1.50,4.82,-1.50,1.51,1.81,1.69,6.33,6.33,6.32
97.30,4.73,-1.58,4.74,-1.58,1.57,1.85,1.75,6.31,6.31,6.32
98.28,4.65,-1.66,4.65,-1.66,1.64,1.90,1.81,6.29,6.29,6.31
99.26,4.57,-1.73,4.57,-1.72,1.70,1.94,1.87,6.26,6.26,6.29
100.25,4.48,-1.77,4.48,-1.77,1.75,1.98,1.93,6.24,6.24,6.26
101.25,4.40,-1.80,4.40,-1.81,1.80,2.02,2.00,6.21,6.21,6.21
102.27,4.32,-1.84,4.32,-1.84,1.84,2.05,2.06,6.17,6.17,6.16
103.29,4.25,-1.87,4.25,-1.87,1.87,2.09,2.12,6.12,6.12,6.11
104.32,4.17,-1.90,4.17,-1.90,1.90,2.11,2.18,6.07,6.07,6.07
105.37,4.09,-1.93,4.09,-1.93,1.93,2.14,2.24,6.02,6.02,6.02
106.42,4.02,-1.96,4.02,-1.96,1.96,2.16,2.30,5.98,5.98,5.98
107.48,3.95,-1.98,3.95,-1.99,1.99,2.18,2.36,5.94,5.94,5.93
108.56,3.88,-2.02,3.88,-2.02,2.03,2.19,2.42,5.91,5.91,5.90
109.64,3.80,-2.06,3.80,-2.06,2.07,2.20,2.47,5.87,5.87,5.86
110.74,3.73,-2.10,3.73,-2.10,2.11,2.21,2.53,5.84,5.84,5.83
111.85,3.66,-2.15,3.66,-2.15,2.15,2.22,2.58,5.81,5.81,5.81
112.97,3.59,-2.19,3.59,-2.20,2.19,2.22,2.63,5.78,5.78,5.79
114.10,3.52,-2.24,3.52,-2.24,2.23,2.22,2.67,5.75,5.75,5.76
115.24,3.46,-2.27,3.46,-2.27,2.27,2.22,2.71,5.73,5.73,5.73
116.39,3.40,-2.30,3.40,-2.30,2.30,2.21,2.75,5.70,5.70,5.70
117.55,3.34,-2.33,3.34,-2.33,2.33,2.21,2.79,5.67,5.67,5.66
118.73,3.27,-2.35,3.27,-2.35,2.36,2.20,2.82,5.63,5.63,5.63
119.92,3.21,-2.38,3.21,-2.38,2.38,2.19,2.84,5.59,5.59,5.59
121.12,3.15,-2.40,3.15,-2.40,2.40,2.19,2.87,5.55,5.55,5.55
122.33,3.09,-2.42,3.09,-2.42,2.42,2.18,2.88,5.50,5.50,5.50
123.55,3.02,-2.43,3.02,-2.43,2.43,2.17,2.90,5.45,5.45,5.46
124.79,2.96,-2.44,2.97,-2.44,2.44,2.17,2.90,5.40,5.41,5.41
126.03,2.91,-2.45,2.91,-2.45,2.45,2.16,2.91,5.36,5.36,5.36
127.29,2.85,-2.45,2.85,-2.45,2.45,2.16,2.90,5.30,5.30,5.31
128.57,2.80,-2.45,2.80,-2.45,2.45,2.15,2.90,5.25,5.25,5.25
129.85,2.75,-2.45,2.75,-2.45,2.45,2.15,2.88,5.20,5.20,5.20
131.15,2.70,-2.45,2.70,-2.45,2.45,2.16,2.87,5.14,5.14,5.15
132.46,2.64,-2.45,2.64,-2.45,2.45,2.16,2.85,5.09,5.09,5.09
133.79,2.59,-2.45,2.59,-2.45,2.45,2.17,2.83,5.04,5.04,5.04
135.12,2.54,-2.45,2.54,-2.45,2.46,2.18,2.79,5.00,5.00,4.99
136.48,2.49,-2.46,2.49,-2.46,2.47,2.20,2.76,4.96,4.96,4.95
137.84,2.44,-2.48,2.44,-2.48,2.49,2.22,2.73,4.93,4.93,4.92
139.22,2.39,-2.51,2.39,-2.51,2.52,2.25,2.69,4.91,4.91,4.89
140.61,2.34,-2.54,2.34,-2.54,2.55,2.28,2.65,4.89,4.89,4.88
142.02,2.29,-2.59,2.29,-2.59,2.59,2.31,2.60,4.88,4.88,4.88
143.44,2.24,-2.63,2.24,-2.63,2.63,2.36,2.56,4.87,4.87,4.87
144.87,2.20,-2.68,2.20,-2.68,2.67,2.40,2.51,4.87,4.87,4.87
146.32,2.15,-2.72,2.15,-2.72,2.71,2.46,2.46,4.86,4.86,4.87
147.78,2.11,-2.75,2.11,-2.75,2.74,2.51,2.41,4.84,4.84,4.86
149.26,2.06,-2.77,2.06,-2.77,2.76,2.58,2.36,4.82,4.82,4.83
150.75,2.02,-2.78,2.02,-2.78,2.77,2.65,2.31,4.80,4.80,4.80
152.26,1.98,-2.78,1.98,-2.78,2.78,2.72,2.26,4.76,4.76,4.77
153.78,1.94,-2.78,1.94,-2.78,2.78,2.79,2.21,4.72,4.72,4.72
155.32,1.91,-2.77,1.91,-2.77,2.77,2.87,2.16,4.68,4.68,4.68
156.88,1.87,-2.76,1.87,-2.76,2.76,2.94,2.10,4.63,4.63,4.63
158.44,1.84,-2.74,1.84,-2.74,2.74,3.01,2.05,4.58,4.58,4.57
160.03,1.80,-2.72,1.80,-2.72,2.72,3.08,2.00,4.52,4.52,4.52
161.63,1.77,-2.70,1.77,-2.70,2.70,3.13,1.95,4.47,4.47,4.46
163.24,1.74,-2.67,1.74,-2.67,2.68,3.18,1.91,4.41,4.41,4.41
164.88,1.70,-2.65,1.70,-2.65,2.65,3.21,1.86,4.36,4.36,4.36
166.53,1.67,-2.63,1.67,-2.63,2.63,3.23,1.81,4.30,4.30,4.30
168.19,1.64,-2.60,1.64,-2.60,2.60,3.22,1.77,4.25,4.25,4.25
169.87,1.62,-2.58,1.62,-2.58,2.58,3.21,1.72,4.19,4.19,4.20
171.57,1.59,-2.55,1.59,-2.55,2.55,3.16,1.68,4.14,4.14,4.14
173.29,1.56,-2.52,1.56,-2.52,2.52,3.11,1.64,4.09,4.09,4.09
175.02,1.54,-2.49,1.54,-2.49,2.49,3.02,1.59,4.03,4.03,4.03
176.77,1.52,-2.46,1.52,-2.46,2.46,2.94,1.55,3.98,3.98,3.98
178.54,1.50,-2.42,1.50,-2.42,2.43,2.83,1.52,3.93,3.93,3.92
180.32,1.48,-2.39,1.48,-2.39,2.39,2.72,1.48,3.87,3.87,3.87
182.13,1.46,-2.36,1.46,-2.36,2.36,2.60,1.44,3.82,3.82,3.81
183.95,1.44,-2.32,1.44,-2.32,2.33,2.48,1.41,3.77,3.77,3.76
185.79,1.42,-2.29,1.42,-2.29,2.29,2.36,1.38,3.71,3.71,3.71
187.65,1.41,-2.26,1.41,-2.26,2.26,2.24,1.34,3.66,3.66,3.67
189.52,1.40,-2.22,1.40,-2.22,2.22,2.12,1.31,3.62,3.62,3.62
191.42,1.39,-2.18,1.39,-2.18,2.18,2.00,1.28,3.57,3.57,3.57
193.33,1.38,-2.14,1.38,-2.14,2.14,1.88,1.25,3.52,3.52,3.52
195.27,1.38,-2.10,1.38,-2.10,2.10,1.77,1.23,3.48,3.48,3.48
197.22,1.38,-2.05,1.38,-2.05,2.05,1.67,1.20,3.43,3.43,3.43
199.19,1.38,-2.00,1.38,-2.00,2.00,1.57,1.17,3.38,3.38,3.39
201.18,1.39,-1.94,1.39,-1.94,1.94,1.48,1.15,3.33,3.33,3.34
203.19,1.40,-1.88,1.40,-1.88,1.88,1.39,1.13,3.28,3.28,3.28
205.23,1.41,-1.82,1.41,-1.82,1.82,1.30,1.10,3.23,3.23,3.23
207.28,1.43,-1.75,1.43,-1.75,1.75,1.22,1.08,3.18,3.18,3.17
209.35,1.44,-1.68,1.44,-1.68,1.68,1.15,1.06,3.12,3.13,3.12
211.44,1.46,-1.61,1.46,-1.61,1.62,1.08,1.04,3.07,3.07,3.07
213.56,1.47,-1.55,1.47,-1.55,1.55,1.01,1.02,3.02,3.02,3.02
215.69,1.49,-1.48,1.49,-1.48,1.48,0.95,1.00,2.97,2.97,2.97
217.85,1.51,-1.41,1.51,-1.41,1.41,0.89,0.98,2.92,2.92,2.92
220.03,1.52,-1.35,1.52,-1.35,1.35,0.84,0.96,2.87,2.87,2.87
222.23,1.54,-1.28,1.54,-1.28,1.28,0.79,0.94,2.82,2.82,2.82
224.45,1.55,-1.22,1.55,-1.22,1.22,0.74,0.92,2.77,2.77,2.77
226.70,1.56,-1.15,1.56,-1.15,1.15,0.69,0.90,2.72,2.72,2.72
228.96,1.58,-1.09,1.58,-1.09,1.09,0.65,0.88,2.67,2.67,2.67
231.25,1.59,-1.03,1.59,-1.03,1.02,0.61,0.86,2.61,2.61,2.62
233.57,1.60,-0.96,1.60,-0.96,0.96,0.57,0.84,2.56,2.56,2.56
235.90,1.62,-0.89,1.62,-0.89,0.89,0.53,0.82,2.51,2.51,2.51
238.26,1.64,-0.82,1.64,-0.82,0.82,0.49,0.80,2.46,2.46,2.46
240.64,1.66,-0.75,1.66,-0.75,0.75,0.46,0.77,2.41,2.41,2.41
243.05,1.69,-0.67,1.69,-0.67,0.67,0.43,0.75,2.36,2.36,2.36
245.48,1.71,-0.60,1.71,-0.60,0.60,0.40,0.73,2.31,2.31,2.31
247.93,1.74,-0.52,1.74,-0.52,0.52,0.37,0.71,2.26,2.26,2.26
250.41,1.76,-0.45,1.76,-0.45,0.45,0.34,0.68,2.21,2.21,2.21
252.92,1.78,-0.38,1.78,-0.38,0.38,0.31,0.66,2.16,2.16,2.16
255.45,1.80,-0.31,1.80,-0.31,0.31,0.29,0.63,2.11,2.11,2.10
258.00,1.81,-0.24,1.81,-0.24,0.25,0.26,0.61,2.06,2.05,2.05
260.58,1.81,-0.19,1.81,-0.18,0.19,0.24,0.58,2.00,2.00,2.00
263.19,1.82,-0.13,1.82,-0.13,0.13,0.21,0.55,1.95,1.95,1.95
265.82,1.82,-0.08,1.82,-0.08,0.08,0.19,0.53,1.90,1.90,1.89
268.48,1.81,-0.03,1.81,-0.03,0.03,0.17,0.50,1.84,1.84,1.84
271.16,1.81,0.02,1.81,0.02,-0.02,0.15,0.47,1.79,1.79,1.79
273.87,1.80,0.06,1.80,0.06,-0.06,0.13,0.44,1.74,1.74,1.74
276.61,1.78,0.10,1.78,0.10,-0.10,0.11,0.41,1.68,1.68,1.68
279.38,1.77,0.14,1.77,0.14,-0.14,0.09,0.38,1.63,1.63,1.63
282.17,1.76,0.18,1.76,0.18,-0.18,0.07,0.34,1.58,1.58,1.58
284.99,1.74,0.22,1.74,0.22,-0.22,0.05,0.31,1.52,1.52,1.53
287.84,1.73,0.26,1.73,0.26,-0.26,0.03,0.28,1.47,1.47,1.47
290.72,1.71,0.30,1.71,0.30,-0.30,0.02,0.24,1.41,1.42,1.42
293.63,1.70,0.34,1.70,0.34,-0.34,-0.00,0.21,1.36,1.36,1.36
296.57,1.69,0.38,1.69,0.38,-0.38,-0.02,0.18,1.31,1.31,1.31
299.53,1.67,0.42,1.67,0.42,-0.42,-0.03,0.14,1.26,1.25,1.26
302.53,1.66,0.46,1.66,0.46,-0.46,-0.05,0.11,1.20,1.20,1.20
305.55,1.65,0.49,1.65,0.50,-0.50,-0.07,0.07,1.15,1.15,1.15
308.61,1.63,0.53,1.63,0.53,-0.53,-0.08,0.03,1.10,1.10,1.10
311.69,1.62,0.56,1.62,0.56,-0.56,-0.10,-0.00,1.06,1.06,1.06
314.81,1.60,0.59,1.60,0.59,-0.58,-0.11,-0.04,1.02,1.02,1.02
317.96,1.59,0.61,1.59,0.61,-0.60,-0.13,-0.08,0.99,0.99,0.99
321.14,1.58,0.62,1.58,0.62,-0.61,-0.14,-0.11,0.97,0.97,0.96
324.35,1.56,0.62,1.56,0.62,-0.62,-0.16,-0.15,0.95,0.95,0.94
327.59,1.55,0.62,1.55,0.62,-0.62,-0.17,-0.19,0.93,0.93,0.93
330.87,1.54,0.62,1.54,0.62,-0.62,-0.18,-0.23,0.92,0.92,0.92
334.18,1.53,0.62,1.53,0.62,-0.63,-0.20,-0.27,0.90,0.90,0.91
337.52,1.51,0.62,1.51,0.62,-0.63,-0.21,-0.31,0.88,0.88,0.89
340.90,1.50,0.63,1.50,0.63,-0.64,-0.23,-0.35,0.86,0.86,0.86
344.30,1.48,0.65,1.48,0.65,-0.65,-0.24,-0.39,0.83,0.83,0.83
347.75,1.46,0.67,1.46,0.67,-0.67,-0.25,-0.43,0.79,0.79,0.79
351.23,1.45,0.70,1.45,0.70,-0.70,-0.27,-0.47,0.75,0.75,0.75
354.74,1.44,0.73,1.44,0.73,-0.73,-0.28,-0.51,0.71,0.71,0.71
358.28,1.42,0.76,1.42,0.76,-0.76,-0.30,-0.55,0.67,0.67,0.66
361.87,1.41,0.79,1.41,0.79,-0.79,-0.31,-0.60,0.62,0.62,0.62
365.49,1.39,0.82,1.39,0.82,-0.82,-0.32,-0.64,0.57,0.57,0.57
369.14,1.38,0.86,1.38,0.86,-0.85,-0.34,-0.68,0.53,0.53,0.52
372.83,1.36,0.89,1.36,0.89,-0.89,-0.35,-0.73,0.48,0.48,0.48
376.56,1.35,0.92,1.35,0.92,-0.92,-0.36,-0.77,0.43,0.43,0.43
380.33,1.33,0.94,1.33,0.94,-0.94,-0.38,-0.81,0.39,0.39,0.39
384.13,1.31,0.97,1.31,0.97,-0.97,-0.39,-0.86,0.34,0.34,0.34
387.97,1.30,1.00,1.30,1.00,-1.00,-0.41,-0.90,0.30,0.30,0.30
391.85,1.28,1.03,1.28,1.03,-1.03,-0.42,-0.95,0.25,0.25,0.25
395.77,1.26,1.05,1.26,1.05,-1.05,-0.43,-0.99,0.21,0.21,0.21
399.73,1.24,1.08,1.24,1.08,-1.08,-0.45,-1.04,0.17,0.17,0.16
403.72,1.23,1.10,1.23,1.10,-1.10,-0.46,-1.08,0.12,0.12,0.12
407.76,1.21,1.13,1.21,1.13,-1.13,-0.48,-1.13,0.08,0.08,0.08
411.84,1.19,1.15,1.19,1.15,-1.15,-0.49,-1.17,0.04,0.04,0.04
415.96,1.17,1.17,1.17,1.17,-1.17,-0.50,-1.22,-0.01,-0.01,-0.01
420.12,1.15,1.19,1.15,1.19,-1.19,-0.52,-1.26,-0.05,-0.05,-0.05
424.32,1.12,1.21,1.12,1.21,-1.21,-0.53,-1.30,-0.09,-0.09,-0.09
428.56,1.10,1.23,1.10,1.23,-1.23,-0.55,-1.34,-0.13,-0.13,-0.13
432.85,1.08,1.25,1.08,1.25,-1.25,-0.56,-1.38,-0.17,-0.17,-0.17
437.18,1.06,1.27,1.06,1.27,-1.27,-0.58,-1.42,-0.20,-0.20,-0.20
441.55,1.04,1.28,1.04,1.28,-1.28,-0.59,-1.46,-0.24,-0.24,-0.24
445.96,1.02,1.30,1.02,1.30,-1.30,-0.61,-1.50,-0.28,-0.28,-0.28
450.42,1.00,1.31,1.00,1.31,-1.31,-0.62,-1.53,-0.31,-0.31,-0.31
454.93,0.98,1.33,0.98,1.33,-1.33,-0.64,-1.57,-0.35,-0.35,-0.35
459.48,0.95,1.34,0.95,1.34,-1.34,-0.65,-1.60,-0.39,-0.39,-0.39
464.07,0.93,1.35,0.93,1.35,-1.35,-0.67,-1.62,-0.42,-0.42,-0.42
468.71,0.91,1.37,0.91,1.37,-1.37,-0.68,-1.65,-0.46,-0.46,-0.46
473.40,0.89,1.38,0.89,1.38,-1.38,-0.70,-1.67,-0.49,-0.49,-0.49
478.13,0.86,1.39,0.86,1.39,-1.39,-0.71,-1.69,-0.53,-0.53,-0.53
482.91,0.84,1.40,0.84,1.40,-1.40,-0.73,-1.71,-0.56,-0.56,-0.56
487.74,0.81,1.41,0.81,1.41,-1.41,-0.74,-1.72,-0.60,-0.60,-0.60
492.62,0.79,1.42,0.79,1.42,-1.42,-0.76,-1.74,-0.63,-0.63,-0.63
497.55,0.76,1.43,0.77,1.43,-1.43,-0.78,-1.74,-0.66,-0.66,-0.66
502.52,0.74,1.44,0.74,1.44,-1.43,-0.79,-1.75,-0.69,-0.69,-0.69
507.55,0.72,1.44,0.72,1.44,-1.44,-0.81,-1.75,-0.73,-0.73,-0.73
512.62,0.69,1.45,0.69,1.45,-1.45,-0.83,-1.75,-0.76,-0.76,-0.76
517.75,0.66,1.45,0.67,1.45,-1.45,-0.84,-1.74,-0.79,-0.79,-0.79
522.93,0.64,1.46,0.64,1.46,-1.46,-0.86,-1.74,-0.82,-0.82,-0.82
528.16,0.61,1.46,0.61,1.46,-1.46,-0.88,-1.73,-0.85,-0.85,-0.85
533.44,0.59,1.46,0.59,1.46,-1.46,-0.90,-1.71,-0.88,-0.88,-0.88
538.77,0.56,1.47,0.56,1.47,-1.47,-0.91,-1.70,-0.91,-0.91,-0.91
