frequency,raw,error,smoothed,error_smoothed,equalization,parametric_eq,fixed_band_eq,equalized_raw,equalized_smoothed,target
20.00,11.89,5.00,11.89,5.00,-5.01,0.01,-1.76,6.88,6.88,6.89
20.20,11.89,5.00,11.89,5.00,-5.00,0.01,-1.81,6.89,6.89,6.89
20.40,11.89,5.00,11.89,5.00,-4.99,0.01,-1.86,6.90,6.90,6.89
20.61,11.88,4.99,11.88,4.99,-4.98,0.01,-1.92,6.90,6.90,6.90
20.81,11.87,4.98,11.87,4.98,-4.97,0.01,-1.98,6.90,6.90,6.89
21.02,11.85,4.96,11.85,4.96,-4.96,0.01,-2.03,6.89,6.89,6.88
21.23,11.82,4.94,11.82,4.94,-4.94,0.01,-2.09,6.88,6.88,6.88
21.44,11.80,4.92,11.80,4.92,-4.92,0.01,-2.16,6.87,6.87,6.87
21.66,11.77,4.90,11.77,4.90,-4.90,0.01,-2.22,6.87,6.87,6.87
21.87,11.74,4.88,11.75,4.88,-4.88,0.01,-2.29,6.86,6.86,6.87
22.09,11.72,4.86,11.72,4.86,-4.86,0.01,-2.35,6.86,6.86,6.87
22.31,11.70,4.84,11.70,4.84,-4.84,0.01,-2.42,6.87,6.87,6.87
22.54,11.68,4.81,11.68,4.81,-4.81,0.01,-2.50,6.87,6.87,6.87
22.76,11.67,4.79,11.67,4.79,-4.79,0.01,-2.57,6.88,6.88,6.88
22.99,11.65,4.77,11.65,4.77,-4.77,0.01,-2.64,6.89,6.88,6.88
23.22,11.63,4.74,11.63,4.74,-4.74,0.01,-2.72,6.89,6.89,6.89
23.45,11.61,4.71,11.61,4.71,-4.71,0.01,-2.80,6.90,6.90,6.90
23.69,11.59,4.69,11.59,4.69,-4.69,0.01,-2.88,6.91,6.91,6.90
23.92,11.57,4.66,11.57,4.66,-4.66,0.01,-2.96,6.91,6.91,6.91
24.16,11.54,4.63,11.54,4.63,-4.63,0.01,-3.04,6.91,6.91,6.91
24.40,11.51,4.60,11.51,4.60,-4.60,0.01,-3.13,6.92,6.92,6.92
24.65,11.49,4.57,11.49,4.57,-4.57,0.01,-3.21,6.92,6.92,6.92
24.89,11.46,4.54,11.46,4.54,-4.54,0.01,-3.30,6.92,6.92,6.92
25.14,11.43,4.51,11.42,4.51,-4.51,0.01,-3.39,6.92,6.92,6.92
25.39,11.39,4.48,11.39,4.48,-4.48,0.01,-3.47,6.91,6.91,6.92
25.65,11.37,4.45,11.37,4.45,-4.46,0.01,-3.56,6.91,6.91,6.91
25.91,11.34,4.43,11.34,4.43,-4.43,0.01,-3.65,6.91,6.91,6.91
26.16,11.32,4.40,11.32,4.40,-4.41,0.01,-3.73,6.91,6.91,6.92
26.43,11.30,4.38,11.30,4.38,-4.39,0.01,-3.82,6.91,6.91,6.92
26.69,11.29,4.36,11.29,4.36,-4.36,0.01,-3.91,6.93,6.93,6.93
26.96,11.27,4.34,11.27,4.34,-4.33,0.01,-3.99,6.94,6.94,6.93
27.23,11.25,4.31,11.25,4.31,-4.29,0.01,-4.07,6.96,6.96,6.94
27.50,11.21,4.26,11.21,4.26,-4.24,0.01,-4.15,6.97,6.97,6.95
27.77,11.16,4.21,11.16,4.21,-4.19,0.01,-4.23,6.97,6.97,6.95
28.05,11.10,4.14,11.10,4.14,-4.13,0.01,-4.30,6.97,6.97,6.96
28.33,11.03,4.07,11.03,4.07,-4.08,0.01,-4.37,6.95,6.95,6.96
28.62,10.96,4.01,10.96,4.01,-4.02,0.01,-4.43,6.94,6.94,6.95
28.90,10.90,3.95,10.90,3.95,-3.98,0.01,-4.49,6.92,6.92,6.95
29.19,10.86,3.92,10.86,3.92,-3.95,0.01,-4.54,6.92,6.92,6.95
29.48,10.84,3.90,10.85,3.90,-3.92,0.01,-4.59,6.92,6.92,6.94
29.78,10.85,3.90,10.84,3.90,-3.91,0.01,-4.63,6.94,6.94,6.94
30.08,10.85,3.91,10.85,3.91,-3.89,0.01,-4.66,6.96,6.96,6.94
30.38,10.86,3.91,10.86,3.91,-3.89,0.02,-4.69,6.98,6.97,6.95
30.68,10.86,3.90,10.86,3.90,-3.88,0.02,-4.71,6.98,6.98,6.95
30.99,10.84,3.88,10.84,3.88,-3.87,0.02,-4.72,6.97,6.97,6.96
31.30,10.82,3.86,10.82,3.86,-3.86,0.02,-4.73,6.96,6.96,6.96
31.61,10.80,3.83,10.80,3.84,-3.85,0.02,-4.73,6.95,6.95,6.96
31.93,10.78,3.82,10.78,3.82,-3.84,0.02,-4.71,6.94,6.94,6.96
32.24,10.78,3.82,10.78,3.82,-3.83,0.02,-4.70,6.95,6.95,6.96
32.57,10.78,3.82,10.78,3.82,-3.82,0.02,-4.67,6.96,6.96,6.96
32.89,10.79,3.83,10.78,3.82,-3.82,0.02,-4.64,6.97,6.97,6.96
33.22,10.78,3.82,10.78,3.82,-3.81,0.02,-4.60,6.97,6.97,6.96
33.55,10.78,3.82,10.78,3.82,-3.81,0.02,-4.55,6.97,6.97,6.96
33.89,10.76,3.80,10.76,3.80,-3.80,0.02,-4.50,6.96,6.96,6.96
34.23,10.74,3.78,10.74,3.78,-3.78,0.02,-4.45,6.96,6.96,6.96
34.57,10.71,3.76,10.71,3.76,-3.76,0.02,-4.38,6.95,6.95,6.95
34.92,10.69,3.74,10.69,3.74,-3.74,0.02,-4.32,6.95,6.95,6.95
35.27,10.66,3.71,10.66,3.71,-3.71,0.02,-4.25,6.95,6.95,6.95
35.62,10.64,3.68,10.64,3.68,-3.69,0.02,-4.18,6.95,6.95,6.95
35.97,10.60,3.65,10.60,3.65,-3.66,0.02,-4.10,6.95,6.95,6.95
36.33,10.57,3.62,10.57,3.62,-3.62,0.02,-4.02,6.95,6.95,6.95
36.70,10.53,3.59,10.53,3.59,-3.59,0.02,-3.94,6.94,6.94,6.94
37.06,10.49,3.56,10.49,3.55,-3.55,0.02,-3.86,6.94,6.94,6.94
37.43,10.45,3.52,10.45,3.52,-3.51,0.02,-3.78,6.94,6.94,6.93
37.81,10.40,3.47,10.40,3.47,-3.46,0.03,-3.70,6.94,6.94,6.93
38.19,10.35,3.42,10.35,3.42,-3.42,0.03,-3.61,6.93,6.93,6.93
38.57,10.29,3.37,10.29,3.37,-3.37,0.03,-3.53,6.93,6.93,6.93
38.95,10.24,3.32,10.24,3.32,-3.32,0.03,-3.45,6.92,6.92,6.92
39.34,10.18,3.26,10.18,3.26,-3.27,0.03,-3.37,6.91,6.91,6.92
39.74,10.13,3.21,10.13,3.22,-3.22,0.03,-3.29,6.91,6.91,6.92
40.14,10.08,3.17,10.08,3.17,-3.18,0.03,-3.21,6.91,6.91,6.91
40.54,10.04,3.13,10.04,3.13,-3.13,0.03,-3.13,6.91,6.91,6.91
40.94,10.00,3.09,10.00,3.09,-3.09,0.03,-3.05,6.91,6.91,6.91
41.35,9.96,3.06,9.96,3.06,-3.06,0.03,-2.98,6.90,6.90,6.90
41.76,9.92,3.02,9.92,3.02,-3.02,0.03,-2.90,6.90,6.90,6.90
42.18,9.89,2.99,9.89,2.99,-2.99,0.03,-2.83,6.89,6.89,6.89
42.60,9.85,2.96,9.85,2.96,-2.96,0.03,-2.76,6.89,6.89,6.89
43.03,9.81,2.92,9.81,2.93,-2.93,0.03,-2.69,6.88,6.88,6.88
43.46,9.77,2.89,9.77,2.89,-2.89,0.04,-2.63,6.88,6.88,6.87
43.90,9.72,2.86,9.72,2.86,-2.86,0.04,-2.56,6.87,6.87,6.87
44.33,9.68,2.82,9.68,2.82,-2.82,0.04,-2.50,6.86,6.86,6.86
44.78,9.63,2.78,9.63,2.78,-2.78,0.04,-2.44,6.86,6.86,6.85
45.23,9.59,2.74,9.59,2.74,-2.73,0.04,-2.38,6.85,6.85,6.85
45.68,9.53,2.69,9.53,2.69,-2.69,0.04,-2.33,6.85,6.85,6.85
46.13,9.48,2.64,9.48,2.64,-2.64,0.04,-2.27,6.84,6.84,6.84
46.60,9.42,2.59,9.42,2.59,-2.59,0.04,-2.22,6.83,6.83,6.83
47.06,9.36,2.54,9.36,2.54,-2.54,0.04,-2.17,6.82,6.82,6.82
47.53,9.31,2.49,9.31,2.49,-2.49,0.04,-2.12,6.82,6.82,6.81
48.01,9.25,2.44,9.25,2.44,-2.44,0.05,-2.07,6.81,6.81,6.81
48.49,9.19,2.39,9.19,2.39,-2.39,0.05,-2.03,6.80,6.80,6.80
48.97,9.13,2.34,9.13,2.34,-2.34,0.05,-1.98,6.79,6.79,6.79
49.46,9.07,2.29,9.07,2.29,-2.29,0.05,-1.94,6.78,6.78,6.78
49.96,9.02,2.24,9.02,2.24,-2.25,0.05,-1.90,6.77,6.77,6.77
50.46,8.96,2.20,8.96,2.20,-2.20,0.05,-1.86,6.76,6.76,6.76
50.96,8.91,2.16,8.91,2.16,-2.16,0.05,-1.82,6.75,6.75,6.76
51.47,8.87,2.12,8.87,2.12,-2.12,0.05,-1.79,6.74,6.74,6.75
51.99,8.82,2.08,8.82,2.08,-2.08,0.06,-1.75,6.74,6.74,6.74
52.51,8.78,2.05,8.78,2.05,-2.04,0.06,-1.72,6.73,6.73,6.73
53.03,8.73,2.01,8.73,2.01,-2.00,0.06,-1.68,6.73,6.73,6.72
53.56,8.67,1.96,8.67,1.96,-1.95,0.06,-1.65,6.72,6.72,6.71
54.10,8.61,1.91,8.61,1.91,-1.91,0.06,-1.62,6.71,6.71,6.70
54.64,8.55,1.86,8.55,1.86,-1.86,0.06,-1.59,6.69,6.69,6.69
55.18,8.48,1.80,8.48,1.80,-1.81,0.07,-1.55,6.67,6.67,6.68
55.74,8.41,1.75,8.41,1.75,-1.76,0.07,-1.52,6.65,6.65,6.66
56.29,8.35,1.70,8.35,1.70,-1.71,0.07,-1.49,6.64,6.64,6.65
56.86,8.29,1.65,8.29,1.65,-1.66,0.07,-1.46,6.63,6.63,6.64
57.42,8.24,1.61,8.24,1.61,-1.61,0.07,-1.43,6.62,6.62,6.63
58.00,8.19,1.58,8.19,1.57,-1.57,0.08,-1.40,6.62,6.62,6.61
58.58,8.13,1.53,8.13,1.53,-1.52,0.08,-1.37,6.61,6.61,6.60
59.16,8.08,1.49,8.08,1.48,-1.48,0.08,-1.34,6.60,6.60,6.59
59.76,8.01,1.43,8.01,1.43,-1.43,0.08,-1.31,6.58,6.58,6.58
60.35,7.94,1.38,7.94,1.38,-1.38,0.09,-1.27,6.56,6.56,6.56
60.96,7.87,1.32,7.87,1.32,-1.33,0.09,-1.24,6.54,6.54,6.55
61.57,7.80,1.27,7.80,1.27,-1.27,0.09,-1.21,6.53,6.53,6.53
62.18,7.73,1.22,7.73,1.22,-1.22,0.09,-1.17,6.51,6.51,6.52
62.80,7.67,1.17,7.67,1.17,-1.17,0.10,-1.14,6.50,6.50,6.50
63.43,7.61,1.12,7.61,1.12,-1.12,0.10,-1.10,6.49,6.49,6.49
64.07,7.54,1.07,7.54,1.07,-1.07,0.10,-1.06,6.48,6.48,6.47
64.71,7.48,1.02,7.48,1.02,-1.02,0.11,-1.02,6.46,6.46,6.46
65.35,7.41,0.97,7.41,0.97,-0.97,0.11,-0.98,6.44,6.44,6.44
66.01,7.34,0.92,7.34,0.92,-0.92,0.11,-0.94,6.42,6.42,6.43
66.67,7.28,0.87,7.28,0.87,-0.87,0.12,-0.90,6.41,6.41,6.41
67.33,7.21,0.82,7.21,0.82,-0.82,0.12,-0.86,6.39,6.39,6.39
68.01,7.15,0.77,7.15,0.77,-0.77,0.12,-0.82,6.37,6.37,6.38
68.69,7.08,0.72,7.08,0.72,-0.72,0.13,-0.78,6.36,6.36,6.36
69.37,7.01,0.67,7.01,0.67,-0.67,0.13,-0.73,6.34,6.34,6.34
70.07,6.94,0.62,6.94,0.62,-0.62,0.14,-0.69,6.33,6.33,6.32
70.77,6.88,0.57,6.87,0.57,-0.56,0.14,-0.64,6.31,6.31,6.31
71.48,6.80,0.51,6.80,0.51,-0.51,0.15,-0.59,6.30,6.29,6.29
72.19,6.72,0.45,6.72,0.45,-0.45,0.15,-0.55,6.28,6.28,6.27
72.91,6.64,0.38,6.64,0.39,-0.39,0.16,-0.50,6.25,6.25,6.25
73.64,6.56,0.32,6.56,0.32,-0.32,0.16,-0.45,6.23,6.23,6.24
74.38,6.47,0.26,6.48,0.26,-0.26,0.17,-0.40,6.21,6.21,6.22
75.12,6.39,0.20,6.39,0.20,-0.20,0.17,-0.35,6.19,6.19,6.19
75.87,6.32,0.14,6.31,0.14,-0.14,0.18,-0.30,6.17,6.17,6.17
76.63,6.23,0.08,6.23,0.08,-0.08,0.19,-0.25,6.15,6.15,6.15
77.40,6.15,0.02,6.15,0.02,-0.03,0.19,-0.20,6.13,6.13,6.13
78.17,6.08,-0.03,6.08,-0.03,0.03,0.20,-0.15,6.11,6.11,6.11
78.95,6.00,-0.08,6.00,-0.09,0.09,0.21,-0.10,6.09,6.09,6.08
79.74,5.92,-0.14,5.92,-0.14,0.15,0.21,-0.05,6.07,6.07,6.06
80.54,5.84,-0.20,5.84,-0.20,0.21,0.22,0.00,6.05,6.05,6.04
81.35,5.76,-0.25,5.76,-0.26,0.27,0.23,0.06,6.03,6.03,6.02
82.16,5.67,-0.32,5.67,-0.32,0.32,0.24,0.11,6.00,6.00,5.99
82.98,5.59,-0.38,5.59,-0.38,0.37,0.25,0.16,5.96,5.96,5.97
83.81,5.50,-0.44,5.51,-0.43,0.42,0.26,0.22,5.92,5.93,5.94
84.65,5.44,-0.47,5.44,-0.47,0.45,0.27,0.27,5.89,5.90,5.91
85.50,5.39,-0.50,5.39,-0.50,0.48,0.28,0.32,5.87,5.87,5.89
86.35,5.36,-0.51,5.36,-0.51,0.50,0.29,0.38,5.86,5.86,5.87
87.22,5.34,-0.51,5.34,-0.51,0.50,0.31,0.44,5.84,5.84,5.84
88.09,5.32,-0.50,5.31,-0.50,0.51,0.32,0.49,5.82,5.82,5.82
88.97,5.29,-0.50,5.29,-0.50,0.51,0.33,0.55,5.80,5.80,5.79
89.86,5.26,-0.50,5.25,-0.50,0.51,0.35,0.60,5.77,5.77,5.76
90.76,5.21,-0.51,5.21,-0.51,0.52,0.36,0.66,5.73,5.73,5.73
91.66,5.17,-0.53,5.17,-0.53,0.53,0.38,0.72,5.70,5.70,5.70
92.58,5.11,-0.55,5.11,-0.55,0.56,0.40,0.78,5.67,5.67,5.67
93.51,5.05,-0.58,5.05,-0.58,0.59,0.42,0.84,5.64,5.64,5.63
94.44,4.98,-0.62,4.98,-0.62,0.63,0.44,0.90,5.61,5.61,5.60
95.39,4.91,-0.67,4.91,-0.67,0.68,0.46,0.96,5.59,5.58,5.58
96.34,4.82,-0.73,4.82,-0.73,0.73,0.48,1.02,5.56,5.56,5.55
97.30,4.73,-0.80,4.74,-0.80,0.79,0.50,1.08,5.53,5.53,5.53
98.28,4.65,-0.86,4.65,-0.86,0.86,0.53,1.14,5.50,5.51,5.51
99.26,4.57,-0.92,4.57,-0.92,0.92,0.55,1.20,5.49,5.49,5.49
100.25,4.48,-0.98,4.48,-0.99,0.98,0.58,1.26,5.47,5.47,5.47
101.25,4.40,-1.05,4.40,-1.05,1.04,0.61,1.32,5.45,5.45,5.45
102.27,4.32,-1.10,4.32,-1.10,1.10,0.64,1.38,5.42,5.42,5.43
103.29,4.25,-1.15,4.25,-1.15,1.15,0.68,1.43,5.40,5.40,5.40
104.32,4.17,-1.20,4.17,-1.20,1.20,0.71,1.49,5.37,5.37,5.37
105.37,4.09,-1.24,4.09,-1.24,1.24,0.75,1.55,5.34,5.34,5.34
106.42,4.02,-1.28,4.02,-1.28,1.28,0.79,1.61,5.31,5.31,5.31
107.48,3.95,-1.32,3.95,-1.32,1.32,0.83,1.66,5.27,5.27,5.27
108.56,3.88,-1.36,3.88,-1.36,1.36,0.88,1.72,5.24,5.24,5.23
109.64,3.80,-1.40,3.80,-1.40,1.40,0.92,1.77,5.20,5.20,5.20
110.74,3.73,-1.44,3.73,-1.44,1.44,0.97,1.82,5.17,5.17,5.17
111.85,3.66,-1.48,3.66,-1.48,1.48,1.02,1.87,5.13,5.13,5.13
112.97,3.59,-1.51,3.59,-1.51,1.51,1.08,1.92,5.10,5.10,5.10
114.10,3.52,-1.55,3.52,-1.55,1.55,1.13,1.96,5.07,5.07,5.07
115.24,3.46,-1.59,3.46,-1.58,1.58,1.19,2.00,5.04,5.04,5.05
116.39,3.40,-1.62,3.40,-1.62,1.62,1.25,2.04,5.01,5.01,5.02
117.55,3.34,-1.65,3.34,-1.65,1.65,1.32,2.07,4.98,4.98,4.98
118.73,3.27,-1.68,3.27,-1.68,1.68,1.38,2.11,4.95,4.95,4.95
119.92,3.21,-1.71,3.21,-1.71,1.71,1.44,2.13,4.92,4.92,4.92
121.12,3.15,-1.74,3.15,-1.74,1.74,1.50,2.16,4.89,4.89,4.89
122.33,3.09,-1.77,3.09,-1.77,1.77,1.56,2.18,4.86,4.86,4.86
123.55,3.02,-1.81,3.02,-1.81,1.81,1.62,2.20,4.83,4.83,4.83
124.79,2.96,-1.84,2.97,-1.84,1.84,1.68,2.21,4.81,4.81,4.80
126.03,2.91,-1.87,2.91,-1.87,1.88,1.73,2.22,4.79,4.79,4.78
127.29,2.85,-1.91,2.85,-1.91,1.92,1.77,2.22,4.77,4.77,4.77
128.57,2.80,-1.95,2.80,-1.95,1.96,1.82,2.22,4.76,4.76,4.75
129.85,2.75,-2.00,2.75,-2.00,2.00,1.85,2.21,4.75,4.75,4.75
131.15,2.70,-2.04,2.70,-2.04,2.04,1.88,2.21,4.73,4.73,4.74
132.46,2.64,-2.08,2.64,-2.08,2.08,1.90,2.20,4.72,4.72,4.72
133.79,2.59,-2.12,2.59,-2.12,2.11,1.91,2.18,4.70,4.70,4.71
135.12,2.54,-2.14,2.54,-2.14,2.14,1.92,2.16,4.68,4.68,4.68
136.48,2.49,-2.17,2.49,-2.17,2.17,1.92,2.14,4.65,4.65,4.66
137.84,2.44,-2.19,2.44,-2.19,2.19,1.92,2.12,4.62,4.62,4.63
139.22,2.39,-2.20,2.39,-2.20,2.20,1.91,2.10,4.59,4.59,4.59
140.61,2.34,-2.21,2.34,-2.21,2.21,1.90,2.07,4.55,4.55,4.55
142.02,2.29,-2.22,2.29,-2.22,2.22,1.89,2.04,4.51,4.51,4.51
143.44,2.24,-2.23,2.24,-2.23,2.23,1.88,2.01,4.47,4.47,4.47
144.87,2.20,-2.23,2.20,-2.23,2.23,1.87,1.97,4.43,4.43,4.43
146.32,2.15,-2.24,2.15,-2.24,2.24,1.87,1.94,4.39,4.39,4.39
147.78,2.11,-2.24,2.11,-2.24,2.24,1.86,1.90,4.35,4.35,4.35
149.26,2.06,-2.24,2.06,-2.24,2.24,1.86,1.87,4.30,4.30,4.31
150.75,2.02,-2.24,2.02,-2.24,2.24,1.86,1.83,4.26,4.26,4.26
152.26,1.98,-2.24,1.98,-2.24,2.23,1.87,1.80,4.22,4.22,4.22
153.78,1.94,-2.23,1.94,-2.23,2.23,1.88,1.76,4.18,4.18,4.18
155.32,1.91,-2.23,1.91,-2.23,2.23,1.90,1.72,4.13,4.13,4.13
156.88,1.87,-2.22,1.87,-2.22,2.22,1.92,1.69,4.09,4.09,4.09
158.44,1.84,-2.22,1.84,-2.22,2.22,1.95,1.65,4.06,4.06,4.06
160.03,1.80,-2.22,1.80,-2.22,2.22,1.99,1.61,4.02,4.02,4.02
161.63,1.77,-2.21,1.77,-2.21,2.22,2.03,1.58,3.99,3.99,3.98
163.24,1.74,-2.22,1.74,-2.22,2.22,2.07,1.55,3.95,3.95,3.95
164.88,1.70,-2.22,1.70,-2.22,2.22,2.11,1.51,3.92,3.93,3.92
166.53,1.67,-2.22,1.67,-2.22,2.23,2.16,1.48,3.90,3.90,3.90
168.19,1.64,-2.23,1.64,-2.23,2.23,2.21,1.45,3.88,3.88,3.87
169.87,1.62,-2.24,1.62,-2.24,2.24,2.26,1.42,3.85,3.85,3.85
171.57,1.59,-2.24,1.59,-2.24,2.24,2.31,1.39,3.83,3.83,3.83
173.29,1.56,-2.25,1.56,-2.25,2.25,2.36,1.36,3.81,3.81,3.81
175.02,1.54,-2.25,1.54,-2.25,2.25,2.40,1.33,3.79,3.79,3.79
176.77,1.52,-2.25,1.52,-2.25,2.24,2.44,1.30,3.76,3.76,3.77
178.54,1.50,-2.24,1.50,-2.24,2.24,2.47,1.28,3.74,3.74,3.74
180.32,1.48,-2.23,1.48,-2.23,2.23,2.49,1.25,3.71,3.71,3.71
182.13,1.46,-2.21,1.46,-2.21,2.21,2.49,1.23,3.67,3.67,3.67
183.95,1.44,-2.19,1.44,-2.19,2.19,2.49,1.21,3.63,3.63,3.63
185.79,1.42,-2.17,1.42,-2.17,2.17,2.47,1.19,3.59,3.59,3.59
187.65,1.41,-2.14,1.41,-2.14,2.14,2.44,1.17,3.54,3.55,3.55
189.52,1.40,-2.11,1.40,-2.11,2.11,2.40,1.15,3.50,3.50,3.50
191.42,1.39,-2.07,1.39,-2.07,2.07,2.35,1.13,3.46,3.46,3.46
193.33,1.38,-2.03,1.38,-2.03,2.03,2.28,1.11,3.41,3.41,3.41
195.27,1.38,-1.99,1.38,-1.99,1.99,2.21,1.10,3.37,3.37,3.37
197.22,1.38,-1.94,1.38,-1.94,1.94,2.12,1.08,3.32,3.32,3.32
199.19,1.38,-1.89,1.38,-1.89,1.89,2.03,1.07,3.28,3.28,3.28
201.18,1.39,-1.84,1.39,-1.84,1.84,1.94,1.05,3.23,3.23,3.23
203.19,1.40,-1.79,1.40,-1.79,1.79,1.85,1.04,3.19,3.19,3.19
205.23,1.41,-1.73,1.41,-1.73,1.73,1.75,1.03,3.14,3.14,3.14
207.28,1.43,-1.67,1.43,-1.67,1.67,1.66,1.01,3.10,3.10,3.10
209.35,1.44,-1.62,1.44,-1.61,1.61,1.56,1.00,3.06,3.06,3.06
211.44,1.46,-1.56,1.46,-1.56,1.56,1.47,0.99,3.01,3.01,3.01
213.56,1.47,-1.50,1.47,-1.50,1.50,1.38,0.98,2.97,2.97,2.97
215.69,1.49,-1.44,1.49,-1.44,1.44,1.29,0.97,2.93,2.93,2.93
217.85,1.51,-1.38,1.51,-1.38,1.38,1.21,0.96,2.89,2.89,2.88
220.03,1.52,-1.32,1.52,-1.32,1.32,1.12,0.95,2.85,2.85,2.84
222.23,1.54,-1.26,1.54,-1.26,1.27,1.05,0.94,2.80,2.80,2.80
224.45,1.55,-1.21,1.55,-1.21,1.21,0.97,0.93,2.76,2.76,2.76
226.70,1.56,-1.16,1.56,-1.16,1.16,0.90,0.92,2.72,2.72,2.72
228.96,1.58,-1.10,1.58,-1.10,1.10,0.84,0.90,2.68,2.68,2.68
231.25,1.59,-1.05,1.59,-1.05,1.04,0.77,0.89,2.63,2.63,2.64
233.57,1.60,-0.99,1.60,-0.99,0.99,0.71,0.88,2.59,2.59,2.59
235.90,1.62,-0.93,1.62,-0.93,0.93,0.66,0.87,2.55,2.55,2.55
238.26,1.64,-0.87,1.64,-0.87,0.87,0.60,0.85,2.51,2.51,2.51
240.64,1.66,-0.81,1.66,-0.81,0.80,0.55,0.84,2.47,2.47,2.47
243.05,1.69,-0.74,1.69,-0.74,0.74,0.50,0.82,2.43,2.43,2.43
245.48,1.71,-0.68,1.71,-0.68,0.68,0.46,0.81,2.39,2.39,2.39
247.93,1.74,-0.61,1.74,-0.61,0.61,0.41,0.79,2.35,2.35,2.35
250.41,1.76,-0.55,1.76,-0.55,0.55,0.37,0.77,2.31,2.31,2.31
252.92,1.78,-0.49,1.78,-0.49,0.50,0.33,0.75,2.28,2.28,2.27
255.45,1.80,-0.44,1.80,-0.44,0.45,0.29,0.73,2.24,2.24,2.24
258.00,1.81,-0.39,1.81,-0.39,0.40,0.26,0.71,2.21,2.21,2.20
260.58,1.81,-0.35,1.81,-0.35,0.35,0.22,0.69,2.17,2.17,2.17
263.19,1.82,-0.32,1.82,-0.32,0.32,0.19,0.67,2.13,2.13,2.13
265.82,1.82,-0.28,1.82,-0.28,0.28,0.16,0.65,2.10,2.10,2.10
268.48,1.81,-0.25,1.81,-0.25,0.25,0.13,0.62,2.06,2.06,2.06
271.16,1.81,-0.22,1.81,-0.22,0.22,0.10,0.60,2.03,2.03,2.03
273.87,1.80,-0.19,1.80,-0.19,0.19,0.07,0.57,1.99,1.99,1.99
276.61,1.78,-0.17,1.78,-0.17,0.17,0.05,0.54,1.95,1.95,1.95
279.38,1.77,-0.14,1.77,-0.14,0.14,0.02,0.52,1.92,1.92,1.91
282.17,1.76,-0.12,1.76,-0.12,0.12,-0.01,0.49,1.88,1.88,1.88
284.99,1.74,-0.10,1.74,-0.10,0.10,-0.03,0.46,1.84,1.84,1.84
287.84,1.73,-0.08,1.73,-0.08,0.07,-0.05,0.43,1.80,1.80,1.80
290.72,1.71,-0.05,1.71,-0.05,0.05,-0.07,0.40,1.76,1.76,1.77
293.63,1.70,-0.03,1.70,-0.03,0.03,-0.10,0.37,1.73,1.73,1.73
296.57,1.69,-0.00,1.69,-0.00,0.00,-0.12,0.34,1.69,1.69,1.69
299.53,1.67,0.03,1.67,0.03,-0.02,-0.14,0.31,1.65,1.65,1.65
302.53,1.66,0.05,1.66,0.05,-0.05,-0.16,0.28,1.61,1.61,1.61
305.55,1.65,0.08,1.65,0.08,-0.08,-0.18,0.24,1.57,1.57,1.57
308.61,1.63,0.10,1.63,0.10,-0.10,-0.20,0.21,1.53,1.53,1.53
311.69,1.62,0.13,1.62,0.13,-0.13,-0.22,0.18,1.49,1.49,1.49
314.81,1.60,0.15,1.60,0.15,-0.15,-0.23,0.14,1.45,1.45,1.45
317.96,1.59,0.17,1.59,0.17,-0.18,-0.25,0.11,1.41,1.41,1.42
321.14,1.58,0.20,1.58,0.20,-0.20,-0.27,0.08,1.38,1.38,1.38
324.35,1.56,0.23,1.56,0.23,-0.23,-0.29,0.04,1.34,1.34,1.34
327.59,1.55,0.25,1.55,0.25,-0.25,-0.30,0.01,1.30,1.30,1.30
330.87,1.54,0.28,1.54,0.28,-0.28,-0.32,-0.02,1.26,1.26,1.26
334.18,1.53,0.30,1.53,0.30,-0.30,-0.33,-0.06,1.22,1.22,1.22
337.52,1.51,0.33,1.51,0.33,-0.32,-0.35,-0.09,1.19,1.19,1.18
340.90,1.50,0.35,1.50,0.35,-0.35,-0.37,-0.13,1.15,1.15,1.15
344.30,1.48,0.37,1.48,0.37,-0.37,-0.38,-0.16,1.11,1.11,1.11
347.75,1.46,0.39,1.46,0.39,-0.39,-0.40,-0.20,1.07,1.07,1.08
351.23,1.45,0.41,1.45,0.41,-0.41,-0.41,-0.23,1.04,1.04,1.04
354.74,1.44,0.44,1.44,0.44,-0.44,-0.43,-0.27,1.00,1.00,1.00
358.28,1.42,0.46,1.42,0.46,-0.46,-0.44,-0.30,0.97,0.96,0.96
361.87,1.41,0.48,1.41,0.48,-0.48,-0.46,-0.34,0.93,0.93,0.93
365.49,1.39,0.50,1.39,0.50,-0.50,-0.47,-0.38,0.89,0.89,0.89
369.14,1.38,0.52,1.38,0.52,-0.52,-0.48,-0.41,0.86,0.86,0.86
372.83,1.36,0.54,1.36,0.54,-0.54,-0.50,-0.45,0.82,0.82,0.82
376.56,1.35,0.56,1.35,0.56,-0.56,-0.51,-0.49,0.79,0.79,0.79
380.33,1.33,0.58,1.33,0.58,-0.58,-0.52,-0.52,0.75,0.75,0.75
384.13,1.31,0.60,1.31,0.60,-0.60,-0.54,-0.56,0.71,0.71,0.71
387.97,1.30,0.62,1.30,0.62,-0.62,-0.55,-0.60,0.68,0.68,0.68
391.85,1.28,0.63,1.28,0.63,-0.63,-0.57,-0.64,0.64,0.64,0.64
395.77,1.26,0.65,1.26,0.65,-0.65,-0.58,-0.67,0.61,0.61,0.61
399.73,1.24,0.67,1.24,0.67,-0.67,-0.59,-0.71,0.57,0.57,0.57
403.72,1.23,0.69,1.23,0.69,-0.69,-0.60,-0.75,0.54,0.54,0.54
407.76,1.21,0.70,1.21,0.70,-0.70,-0.62,-0.78,0.50,0.50,0.50
411.84,1.19,0.72,1.19,0.72,-0.72,-0.63,-0.82,0.47,0.47,0.47
415.96,1.17,0.73,1.17,0.73,-0.73,-0.64,-0.86,0.43,0.43,0.43
420.12,1.15,0.75,1.15,0.75,-0.75,-0.66,-0.89,0.40,0.40,0.40
424.32,1.12,0.76,1.12,0.76,-0.76,-0.67,-0.93,0.36,0.36,0.36
428.56,1.10,0.77,1.10,0.77,-0.77,-0.68,-0.96,0.33,0.33,0.33
432.85,1.08,0.79,1.08,0.79,-0.79,-0.69,-0.99,0.30,0.30,0.30
437.18,1.06,0.80,1.06,0.80,-0.80,-0.71,-1.03,0.26,0.26,0.26
441.55,1.04,0.81,1.04,0.81,-0.81,-0.72,-1.06,0.23,0.23,0.23
445.96,1.02,0.82,1.02,0.82,-0.82,-0.73,-1.09,0.20,0.20,0.20
450.42,1.00,0.83,1.00,0.83,-0.83,-0.74,-1.12,0.16,0.16,0.16
454.93,0.98,0.85,0.98,0.85,-0.85,-0.75,-1.14,0.13,0.13,0.13
459.48,0.95,0.86,0.95,0.86,-0.86,-0.77,-1.17,0.10,0.10,0.10
464.07,0.93,0.87,0.93,0.87,-0.87,-0.78,-1.19,0.06,0.06,0.06
468.71,0.91,0.88,0.91,0.88,-0.88,-0.79,-1.22,0.03,0.03,0.03
473.40,0.89,0.89,0.89,0.89,-0.89,-0.80,-1.24,-0.00,-0.00,-0.00
478.13,0.86,0.90,0.86,0.90,-0.90,-0.81,-1.25,-0.04,-0.04,-0.04
482.91,0.84,0.91,0.84,0.91,-0.91,-0.82,-1.27,-0.07,-0.07,-0.07
487.74,0.81,0.92,0.81,0.92,-0.92,-0.84,-1.28,-0.10,-0.10,-0.10
492.62,0.79,0.92,0.79,0.92,-0.92,-0.85,-1.29,-0.13,-0.13,-0.13
497.55,0.76,0.93,0.77,0.93,-0.93,-0.86,-1.30,-0.17,-0.17,-0.17
502.52,0.74,0.94,0.74,0.94,-0.94,-0.87,-1.31,-0.20,-0.20,-0.20
507.55,0.72,0.95,0.72,0.95,-0.95,-0.88,-1.31,-0.23,-0.23,-0.23
512.62,0.69,0.95,0.69,0.95,-0.95,-0.89,-1.31,-0.26,-0.26,-0.26
517.75,0.66,0.96,0.67,0.96,-0.96,-0.90,-1.31,-0.30,-0.30,-0.30
522.93,0.64,0.97,0.64,0.97,-0.97,-0.91,-1.31,-0.33,-0.33,-0.33
528.16,0.61,0.97,0.61,0.97,-0.97,-0.92,-1.30,-0.36,-0.36,-0.36
533.44,0.59,0.98,0.59,0.98,-0.98,-0.93,-1.30,-0.39,-0.39,-0.39
538.77,0.56,0.99,0.56,0.99,-0.99,-0.94,-1.29,-0.43,-0.43,-0.43
544.16,0.53,0.99,0.53,0.99,-0.99,-0.95,-1.28,-0.46,-0.46,-0.46
549.60,0.51,1.00,0.51,1.00,-1.00,-0.96,-1.27,-0.49,-0.49,-0.49
555.10,0.48,1.00,0.48,1.00,-1.00,-0.97,-1.25,-0.52,-0.52,-0.52
