frequency,raw,error,smoothed,error_smoothed,equalization,parametric_eq,fixed_band_eq,equalized_raw,equalized_smoothed,target
20.00,6.73,-1.38,6.73,-1.38,1.34,1.23,0.74,8.07,8.07,8.11
20.20,6.73,-1.43,6.73,-1.43,1.43,1.31,0.76,8.15,8.15,8.16
20.40,6.72,-1.49,6.72,-1.49,1.50,1.39,0.78,8.23,8.23,8.21
20.61,6.72,-1.55,6.72,-1.55,1.57,1.49,0.81,8.29,8.29,8.26
20.81,6.71,-1.61,6.71,-1.61,1.63,1.58,0.83,8.34,8.34,8.32
21.02,6.70,-1.67,6.70,-1.67,1.69,1.68,0.86,8.39,8.39,8.37
21.23,6.69,-1.73,6.69,-1.73,1.74,1.78,0.88,8.43,8.43,8.42
21.44,6.68,-1.78,6.68,-1.78,1.78,1.86,0.91,8.46,8.46,8.46
21.66,6.68,-1.82,6.68,-1.82,1.82,1.93,0.94,8.50,8.50,8.50
21.87,6.68,-1.86,6.68,-1.86,1.85,1.96,0.97,8.52,8.53,8.54
22.09,6.68,-1.87,6.68,-1.87,1.87,1.99,0.99,8.55,8.55,8.56
22.31,6.70,-1.88,6.70,-1.88,1.87,1.96,1.02,8.57,8.57,8.58
22.54,6.71,-1.87,6.71,-1.87,1.87,1.93,1.05,8.58,8.58,8.59
22.76,6.74,-1.86,6.74,-1.86,1.85,1.88,1.09,8.59,8.59,8.59
22.99,6.76,-1.83,6.76,-1.83,1.83,1.82,1.12,8.59,8.59,8.59
23.22,6.80,-1.80,6.80,-1.80,1.80,1.76,1.15,8.60,8.60,8.59
23.45,6.83,-1.76,6.83,-1.76,1.77,1.70,1.18,8.60,8.60,8.59
23.69,6.86,-1.72,6.86,-1.73,1.73,1.64,1.22,8.59,8.59,8.59
23.92,6.89,-1.69,6.89,-1.69,1.69,1.60,1.25,8.59,8.59,8.58
24.16,6.92,-1.65,6.92,-1.65,1.65,1.56,1.29,8.58,8.58,8.58
24.40,6.95,-1.62,6.95,-1.62,1.61,1.53,1.32,8.56,8.56,8.56
24.65,6.96,-1.58,6.96,-1.58,1.58,1.50,1.36,8.54,8.54,8.55
24.89,6.98,-1.54,6.98,-1.54,1.54,1.48,1.40,8.52,8.52,8.52
25.14,6.99,-1.50,6.99,-1.50,1.50,1.47,1.43,8.49,8.49,8.49
25.39,7.00,-1.46,7.00,-1.46,1.47,1.46,1.47,8.47,8.47,8.46
25.65,7.01,-1.43,7.01,-1.43,1.44,1.46,1.51,8.44,8.45,8.44
25.91,7.02,-1.40,7.02,-1.40,1.41,1.45,1.54,8.43,8.43,8.42
26.16,7.02,-1.38,7.02,-1.38,1.39,1.45,1.58,8.41,8.41,8.41
26.43,7.03,-1.37,7.03,-1.37,1.37,1.45,1.62,8.40,8.40,8.40
26.69,7.04,-1.36,7.04,-1.36,1.35,1.46,1.65,8.40,8.40,8.40
26.96,7.05,-1.35,7.05,-1.35,1.34,1.46,1.69,8.39,8.39,8.40
27.23,7.05,-1.35,7.05,-1.35,1.34,1.47,1.72,8.39,8.39,8.40
27.50,7.05,-1.34,7.05,-1.34,1.34,1.48,1.76,8.39,8.39,8.40
27.77,7.05,-1.34,7.05,-1.34,1.35,1.49,1.79,8.40,8.40,8.39
28.05,7.04,-1.35,7.04,-1.35,1.36,1.50,1.82,8.41,8.41,8.39
28.33,7.03,-1.37,7.03,-1.37,1.39,1.50,1.85,8.42,8.42,8.40
28.62,7.02,-1.41,7.02,-1.41,1.42,1.51,1.87,8.44,8.44,8.42
28.90,7.00,-1.45,7.00,-1.45,1.46,1.52,1.90,8.47,8.47,8.45
29.19,6.99,-1.51,6.99,-1.51,1.51,1.53,1.92,8.50,8.50,8.49
29.48,6.97,-1.57,6.97,-1.57,1.56,1.54,1.94,8.53,8.53,8.54
29.78,6.96,-1.62,6.96,-1.62,1.61,1.55,1.96,8.57,8.57,8.58
30.08,6.94,-1.67,6.94,-1.67,1.65,1.56,1.97,8.59,8.59,8.61
30.38,6.93,-1.70,6.93,-1.70,1.69,1.57,1.98,8.62,8.62,8.64
30.68,6.92,-1.73,6.92,-1.73,1.72,1.58,1.99,8.64,8.64,8.65
30.99,6.91,-1.75,6.91,-1.75,1.75,1.58,2.00,8.65,8.65,8.65
31.30,6.89,-1.76,6.89,-1.76,1.77,1.59,2.00,8.67,8.67,8.66
31.61,6.88,-1.78,6.88,-1.78,1.79,1.60,2.00,8.68,8.68,8.66
31.93,6.88,-1.79,6.88,-1.79,1.81,1.60,2.00,8.69,8.69,8.67
32.24,6.88,-1.81,6.88,-1.81,1.82,1.60,2.00,8.70,8.70,8.69
32.57,6.88,-1.83,6.88,-1.83,1.83,1.61,1.99,8.70,8.70,8.70
32.89,6.88,-1.84,6.88,-1.84,1.83,1.61,1.98,8.71,8.71,8.72
33.22,6.89,-1.83,6.89,-1.83,1.81,1.61,1.96,8.70,8.70,8.72
33.55,6.90,-1.81,6.90,-1.81,1.79,1.61,1.95,8.68,8.68,8.71
33.89,6.90,-1.77,6.90,-1.77,1.75,1.61,1.93,8.65,8.65,8.68
34.23,6.91,-1.71,6.91,-1.71,1.70,1.61,1.91,8.61,8.61,8.63
34.57,6.92,-1.65,6.92,-1.65,1.64,1.61,1.88,8.56,8.56,8.57
34.92,6.93,-1.57,6.93,-1.57,1.58,1.61,1.86,8.51,8.51,8.50
35.27,6.94,-1.51,6.94,-1.51,1.53,1.60,1.83,8.46,8.46,8.44
35.62,6.94,-1.45,6.94,-1.45,1.48,1.60,1.81,8.42,8.42,8.40
35.97,6.95,-1.41,6.95,-1.42,1.44,1.59,1.78,8.39,8.39,8.37
36.33,6.96,-1.39,6.96,-1.39,1.41,1.58,1.75,8.37,8.37,8.36
36.70,6.97,-1.38,6.97,-1.38,1.39,1.58,1.72,8.36,8.36,8.35
37.06,6.97,-1.38,6.97,-1.38,1.37,1.57,1.69,8.35,8.35,8.35
37.43,6.97,-1.37,6.97,-1.37,1.36,1.56,1.66,8.33,8.33,8.34
37.81,6.97,-1.36,6.97,-1.37,1.35,1.55,1.63,8.31,8.31,8.33
38.19,6.96,-1.36,6.96,-1.35,1.33,1.54,1.59,8.29,8.29,8.31
38.57,6.95,-1.33,6.95,-1.33,1.31,1.52,1.56,8.26,8.26,8.28
38.95,6.94,-1.30,6.94,-1.30,1.29,1.51,1.53,8.24,8.24,8.24
39.34,6.93,-1.27,6.93,-1.27,1.28,1.50,1.50,8.21,8.21,8.20
39.74,6.92,-1.25,6.92,-1.25,1.26,1.48,1.47,8.18,8.18,8.16
40.14,6.90,-1.23,6.90,-1.23,1.25,1.47,1.44,8.15,8.15,8.13
40.54,6.87,-1.23,6.87,-1.23,1.25,1.45,1.41,8.13,8.13,8.10
40.94,6.84,-1.25,6.84,-1.25,1.26,1.43,1.38,8.11,8.11,8.09
41.35,6.81,-1.28,6.82,-1.28,1.28,1.42,1.35,8.10,8.10,8.09
41.76,6.79,-1.31,6.79,-1.31,1.31,1.40,1.33,8.09,8.09,8.09
42.18,6.76,-1.34,6.76,-1.34,1.33,1.38,1.30,8.10,8.10,8.10
42.60,6.74,-1.37,6.74,-1.37,1.36,1.36,1.28,8.10,8.10,8.11
43.03,6.72,-1.39,6.72,-1.39,1.38,1.34,1.25,8.10,8.10,8.11
43.46,6.69,-1.40,6.69,-1.40,1.39,1.32,1.23,8.08,8.08,8.09
43.90,6.67,-1.40,6.67,-1.40,1.39,1.31,1.20,8.06,8.06,8.07
44.33,6.65,-1.39,6.66,-1.39,1.38,1.29,1.18,8.03,8.03,8.05
44.78,6.64,-1.37,6.64,-1.37,1.36,1.27,1.16,8.00,8.00,8.01
45.23,6.63,-1.33,6.63,-1.33,1.32,1.25,1.14,7.96,7.96,7.96
45.68,6.63,-1.29,6.63,-1.29,1.29,1.23,1.12,7.91,7.91,7.91
46.13,6.63,-1.24,6.63,-1.24,1.24,1.21,1.10,7.87,7.87,7.87
46.60,6.63,-1.19,6.63,-1.19,1.20,1.19,1.09,7.83,7.83,7.82
47.06,6.63,-1.15,6.63,-1.15,1.15,1.16,1.07,7.78,7.78,7.77
47.53,6.62,-1.11,6.62,-1.11,1.12,1.14,1.06,7.74,7.74,7.73
48.01,6.62,-1.08,6.62,-1.08,1.08,1.12,1.04,7.70,7.70,7.70
48.49,6.61,-1.05,6.61,-1.05,1.06,1.10,1.03,7.67,7.67,7.66
48.97,6.60,-1.03,6.60,-1.03,1.04,1.08,1.01,7.64,7.64,7.63
49.46,6.59,-1.02,6.59,-1.02,1.03,1.06,1.00,7.61,7.61,7.60
49.96,6.57,-1.01,6.57,-1.01,1.02,1.04,0.99,7.59,7.59,7.58
50.46,6.55,-1.02,6.55,-1.02,1.02,1.02,0.98,7.57,7.57,7.57
50.96,6.53,-1.02,6.53,-1.02,1.02,1.00,0.97,7.55,7.55,7.55
51.47,6.51,-1.03,6.51,-1.03,1.02,0.98,0.96,7.53,7.53,7.54
51.99,6.49,-1.03,6.49,-1.03,1.03,0.96,0.95,7.52,7.52,7.52
52.51,6.47,-1.03,6.47,-1.03,1.03,0.94,0.94,7.50,7.50,7.50
53.03,6.46,-1.02,6.46,-1.02,1.02,0.93,0.93,7.48,7.48,7.48
53.56,6.45,-1.01,6.45,-1.01,1.01,0.91,0.93,7.45,7.45,7.46
54.10,6.43,-0.99,6.43,-0.99,0.99,0.89,0.92,7.42,7.42,7.43
54.64,6.42,-0.97,6.42,-0.97,0.96,0.87,0.91,7.38,7.38,7.39
55.18,6.41,-0.94,6.41,-0.94,0.93,0.85,0.90,7.35,7.35,7.36
55.74,6.41,-0.91,6.41,-0.91,0.90,0.83,0.90,7.31,7.31,7.32
56.29,6.41,-0.87,6.41,-0.87,0.87,0.82,0.89,7.28,7.28,7.28
56.86,6.40,-0.83,6.40,-0.83,0.85,0.80,0.88,7.25,7.25,7.23
57.42,6.39,-0.81,6.39,-0.81,0.82,0.78,0.87,7.21,7.21,7.19
58.00,6.36,-0.79,6.36,-0.79,0.81,0.76,0.87,7.17,7.17,7.15
58.58,6.33,-0.79,6.33,-0.79,0.79,0.75,0.86,7.12,7.12,7.12
59.16,6.29,-0.79,6.29,-0.79,0.78,0.73,0.85,7.08,7.08,7.08
59.76,6.26,-0.79,6.26,-0.79,0.78,0.72,0.84,7.04,7.04,7.05
60.35,6.23,-0.78,6.23,-0.78,0.78,0.70,0.83,7.01,7.01,7.01
60.96,6.21,-0.78,6.21,-0.78,0.77,0.68,0.82,6.98,6.98,6.98
61.57,6.18,-0.77,6.18,-0.77,0.77,0.67,0.81,6.95,6.95,6.95
62.18,6.15,-0.76,6.15,-0.76,0.76,0.65,0.80,6.91,6.91,6.91
62.80,6.12,-0.75,6.12,-0.75,0.75,0.64,0.79,6.87,6.87,6.87
63.43,6.10,-0.74,6.10,-0.74,0.74,0.62,0.78,6.83,6.83,6.83
64.07,6.07,-0.72,6.07,-0.72,0.72,0.61,0.77,6.79,6.79,6.79
64.71,6.05,-0.70,6.05,-0.70,0.70,0.60,0.75,6.75,6.75,6.75
65.35,6.02,-0.68,6.02,-0.68,0.68,0.58,0.74,6.71,6.71,6.71
66.01,6.00,-0.66,6.00,-0.66,0.66,0.57,0.73,6.66,6.66,6.66
66.67,5.97,-0.64,5.97,-0.64,0.64,0.56,0.71,6.62,6.62,6.61
67.33,5.95,-0.62,5.95,-0.62,0.62,0.54,0.70,6.57,6.57,6.57
68.01,5.92,-0.60,5.92,-0.60,0.60,0.53,0.68,6.52,6.52,6.52
68.69,5.89,-0.58,5.89,-0.58,0.58,0.52,0.67,6.47,6.47,6.47
69.37,5.86,-0.56,5.86,-0.56,0.56,0.51,0.65,6.42,6.42,6.43
70.07,5.84,-0.55,5.84,-0.54,0.54,0.49,0.64,6.38,6.38,6.38
70.77,5.81,-0.52,5.81,-0.52,0.52,0.48,0.62,6.33,6.33,6.34
71.48,5.79,-0.50,5.79,-0.50,0.50,0.47,0.60,6.29,6.29,6.29
72.19,5.77,-0.47,5.77,-0.47,0.47,0.46,0.58,6.24,6.24,6.24
72.91,5.75,-0.45,5.75,-0.45,0.45,0.45,0.57,6.20,6.20,6.19
73.64,5.72,-0.42,5.72,-0.42,0.43,0.44,0.55,6.15,6.15,6.14
74.38,5.69,-0.40,5.69,-0.40,0.41,0.43,0.53,6.10,6.10,6.09
75.12,5.65,-0.39,5.65,-0.39,0.39,0.42,0.52,6.04,6.04,6.04
75.87,5.62,-0.37,5.62,-0.37,0.36,0.40,0.50,5.98,5.99,5.99
76.63,5.59,-0.35,5.59,-0.35,0.34,0.39,0.48,5.93,5.93,5.94
77.40,5.56,-0.32,5.56,-0.32,0.32,0.38,0.46,5.88,5.88,5.88
78.17,5.53,-0.30,5.53,-0.30,0.29,0.37,0.45,5.83,5.83,5.83
78.95,5.51,-0.27,5.51,-0.27,0.27,0.36,0.43,5.78,5.78,5.78
79.74,5.48,-0.24,5.48,-0.24,0.24,0.36,0.41,5.72,5.72,5.72
80.54,5.45,-0.22,5.45,-0.22,0.22,0.35,0.39,5.67,5.67,5.67
81.35,5.42,-0.20,5.42,-0.20,0.19,0.34,0.38,5.62,5.62,5.62
82.16,5.39,-0.18,5.39,-0.18,0.17,0.33,0.36,5.56,5.56,5.57
82.98,5.35,-0.16,5.35,-0.16,0.16,0.32,0.34,5.51,5.51,5.51
83.81,5.31,-0.15,5.31,-0.15,0.16,0.31,0.33,5.47,5.47,5.46
84.65,5.27,-0.14,5.27,-0.14,0.16,0.30,0.31,5.43,5.43,5.42
85.50,5.23,-0.15,5.23,-0.15,0.17,0.29,0.29,5.40,5.40,5.38
86.35,5.19,-0.16,5.19,-0.16,0.18,0.28,0.28,5.37,5.37,5.35
87.22,5.15,-0.19,5.15,-0.19,0.19,0.28,0.26,5.34,5.34,5.34
88.09,5.11,-0.22,5.11,-0.21,0.20,0.27,0.25,5.31,5.31,5.32
88.97,5.07,-0.23,5.07,-0.23,0.20,0.26,0.23,5.27,5.27,5.30
89.86,5.03,-0.24,5.03,-0.23,0.21,0.25,0.22,5.24,5.24,5.27
90.76,5.00,-0.22,5.00,-0.22,0.21,0.24,0.20,5.21,5.21,5.22
91.66,4.97,-0.20,4.97,-0.20,0.20,0.24,0.19,5.17,5.17,5.17
92.58,4.94,-0.18,4.94,-0.18,0.20,0.23,0.17,5.14,5.14,5.12
93.51,4.91,-0.17,4.91,-0.17,0.20,0.22,0.16,5.11,5.11,5.09
94.44,4.88,-0.18,4.88,-0.18,0.20,0.21,0.14,5.08,5.08,5.06
95.39,4.85,-0.19,4.85,-0.19,0.21,0.20,0.13,5.05,5.05,5.04
96.34,4.81,-0.21,4.81,-0.21,0.22,0.20,0.11,5.03,5.03,5.02
97.30,4.78,-0.23,4.78,-0.23,0.23,0.19,0.10,5.01,5.01,5.01
98.28,4.74,-0.26,4.74,-0.26,0.24,0.18,0.09,4.99,4.99,5.00
99.26,4.70,-0.27,4.70,-0.27,0.25,0.17,0.07,4.95,4.95,4.97
100.25,4.66,-0.27,4.66,-0.27,0.25,0.17,0.06,4.91,4.91,4.94
101.25,4.62,-0.25,4.62,-0.25,0.24,0.16,0.04,4.86,4.86,4.88
102.27,4.58,-0.23,4.58,-0.23,0.22,0.15,0.03,4.80,4.80,4.81
103.29,4.54,-0.19,4.54,-0.19,0.20,0.14,0.02,4.74,4.74,4.73
104.32,4.50,-0.16,4.50,-0.16,0.17,0.14,0.01,4.67,4.67,4.66
105.37,4.46,-0.13,4.46,-0.13,0.15,0.13,-0.01,4.60,4.60,4.59
106.42,4.41,-0.11,4.41,-0.11,0.12,0.12,-0.02,4.54,4.54,4.52
107.48,4.37,-0.09,4.37,-0.10,0.11,0.11,-0.03,4.48,4.48,4.47
108.56,4.33,-0.09,4.33,-0.09,0.09,0.11,-0.04,4.42,4.42,4.41
109.64,4.28,-0.08,4.28,-0.08,0.08,0.10,-0.05,4.36,4.36,4.36
110.74,4.24,-0.08,4.24,-0.08,0.07,0.09,-0.06,4.31,4.31,4.31
111.85,4.19,-0.07,4.19,-0.07,0.06,0.08,-0.07,4.25,4.25,4.26
112.97,4.15,-0.06,4.15,-0.06,0.05,0.08,-0.08,4.20,4.20,4.21
114.10,4.10,-0.05,4.10,-0.04,0.04,0.07,-0.09,4.14,4.14,4.15
115.24,4.06,-0.03,4.06,-0.03,0.03,0.06,-0.10,4.09,4.09,4.09
116.39,4.02,-0.01,4.02,-0.01,0.01,0.05,-0.11,4.03,4.03,4.03
117.55,3.98,0.01,3.98,0.01,-0.01,0.04,-0.12,3.98,3.98,3.98
118.73,3.95,0.03,3.95,0.03,-0.02,0.04,-0.13,3.92,3.92,3.92
119.92,3.91,0.04,3.91,0.04,-0.04,0.03,-0.13,3.87,3.87,3.87
121.12,3.88,0.06,3.88,0.06,-0.06,0.02,-0.14,3.82,3.82,3.82
122.33,3.84,0.08,3.84,0.08,-0.08,0.01,-0.14,3.76,3.76,3.76
123.55,3.81,0.10,3.81,0.10,-0.10,0.00,-0.15,3.71,3.71,3.71
124.79,3.77,0.11,3.77,0.11,-0.11,-0.01,-0.15,3.66,3.66,3.66
126.03,3.73,0.13,3.73,0.13,-0.12,-0.02,-0.16,3.60,3.60,3.60
127.29,3.68,0.14,3.68,0.14,-0.14,-0.03,-0.16,3.55,3.55,3.54
128.57,3.63,0.15,3.64,0.15,-0.15,-0.04,-0.16,3.49,3.49,3.49
129.85,3.59,0.15,3.59,0.15,-0.16,-0.05,-0.17,3.43,3.43,3.43
131.15,3.54,0.16,3.54,0.16,-0.16,-0.06,-0.17,3.37,3.37,3.38
132.46,3.49,0.17,3.49,0.17,-0.17,-0.07,-0.17,3.32,3.32,3.32
133.79,3.44,0.17,3.44,0.17,-0.17,-0.08,-0.17,3.27,3.27,3.27
135.12,3.39,0.18,3.39,0.18,-0.17,-0.09,-0.17,3.22,3.22,3.21
136.48,3.34,0.18,3.34,0.18,-0.17,-0.10,-0.17,3.17,3.17,3.16
137.84,3.28,0.18,3.28,0.18,-0.17,-0.11,-0.17,3.12,3.11,3.11
139.22,3.22,0.17,3.22,0.17,-0.17,-0.12,-0.17,3.06,3.06,3.05
140.61,3.16,0.16,3.16,0.16,-0.17,-0.13,-0.17,3.00,3.00,3.00
142.02,3.11,0.16,3.11,0.16,-0.17,-0.14,-0.17,2.94,2.94,2.95
143.44,3.06,0.16,3.06,0.16,-0.18,-0.16,-0.16,2.88,2.88,2.90
144.87,3.02,0.18,3.02,0.18,-0.19,-0.17,-0.16,2.83,2.84,2.84
146.32,2.99,0.20,2.99,0.20,-0.20,-0.18,-0.16,2.79,2.79,2.79
147.78,2.96,0.22,2.95,0.22,-0.20,-0.19,-0.16,2.75,2.75,2.74
149.26,2.92,0.23,2.92,0.23,-0.21,-0.20,-0.15,2.70,2.70,2.69
150.75,2.87,0.23,2.87,0.23,-0.22,-0.22,-0.15,2.65,2.65,2.64
152.26,2.82,0.23,2.82,0.23,-0.22,-0.23,-0.15,2.60,2.59,2.59
153.78,2.76,0.22,2.76,0.22,-0.22,-0.24,-0.14,2.54,2.54,2.54
155.32,2.71,0.22,2.71,0.22,-0.22,-0.25,-0.14,2.49,2.49,2.49
156.88,2.66,0.21,2.66,0.21,-0.22,-0.26,-0.14,2.44,2.44,2.44
158.44,2.61,0.21,2.61,0.21,-0.22,-0.28,-0.14,2.39,2.39,2.40
160.03,2.56,0.22,2.56,0.22,-0.22,-0.29,-0.13,2.34,2.34,2.35
161.63,2.52,0.22,2.52,0.22,-0.22,-0.30,-0.13,2.30,2.30,2.30
163.24,2.47,0.22,2.47,0.22,-0.22,-0.31,-0.13,2.25,2.25,2.24
164.88,2.42,0.23,2.42,0.23,-0.23,-0.32,-0.12,2.19,2.19,2.19
166.53,2.38,0.23,2.38,0.23,-0.23,-0.32,-0.12,2.14,2.14,2.14
168.19,2.33,0.24,2.33,0.24,-0.24,-0.33,-0.12,2.09,2.09,2.09
169.87,2.28,0.25,2.28,0.25,-0.24,-0.34,-0.12,2.03,2.03,2.03
171.57,2.22,0.25,2.22,0.25,-0.25,-0.34,-0.11,1.98,1.98,1.97
173.29,2.17,0.25,2.17,0.25,-0.25,-0.35,-0.11,1.92,1.92,1.92
175.02,2.12,0.26,2.12,0.26,-0.26,-0.35,-0.11,1.86,1.86,1.86
176.77,2.07,0.26,2.07,0.26,-0.26,-0.35,-0.11,1.81,1.81,1.80
178.54,2.01,0.27,2.01,0.27,-0.27,-0.35,-0.10,1.75,1.75,1.75
180.32,1.96,0.27,1.96,0.27,-0.27,-0.35,-0.10,1.69,1.69,1.69
182.13,1.91,0.28,1.91,0.28,-0.28,-0.35,-0.10,1.63,1.63,1.63
183.95,1.86,0.29,1.86,0.29,-0.29,-0.35,-0.10,1.57,1.57,1.57
185.79,1.81,0.30,1.81,0.30,-0.30,-0.34,-0.10,1.51,1.51,1.51
187.65,1.76,0.31,1.76,0.31,-0.31,-0.34,-0.09,1.45,1.45,1.45
189.52,1.71,0.32,1.71,0.32,-0.32,-0.33,-0.09,1.39,1.39,1.39
191.42,1.66,0.33,1.66,0.33,-0.33,-0.32,-0.09,1.33,1.33,1.33
193.33,1.61,0.34,1.61,0.34,-0.34,-0.32,-0.09,1.27,1.27,1.27
195.27,1.57,0.34,1.57,0.34,-0.35,-0.31,-0.09,1.22,1.22,1.22
197.22,1.52,0.35,1.52,0.35,-0.35,-0.30,-0.09,1.17,1.17,1.17
199.19,1.48,0.35,1.48,0.35,-0.35,-0.29,-0.09,1.13,1.13,1.13
201.18,1.45,0.35,1.45,0.35,-0.35,-0.28,-0.09,1.10,1.10,1.10
203.19,1.41,0.34,1.41,0.34,-0.33,-0.27,-0.08,1.08,1.08,1.07
205.23,1.38,0.33,1.38,0.33,-0.31,-0.26,-0.08,1.07,1.06,1.05
207.28,1.34,0.30,1.34,0.30,-0.29,-0.25,-0.08,1.06,1.06,1.04
209.35,1.31,0.26,1.30,0.26,-0.26,-0.24,-0.08,1.05,1.05,1.04
211.44,1.27,0.22,1.27,0.22,-0.22,-0.23,-0.08,1.04,1.04,1.05
213.56,1.23,0.18,1.23,0.18,-0.19,-0.22,-0.08,1.04,1.04,1.05
215.69,1.18,0.15,1.18,0.15,-0.16,-0.21,-0.08,1.03,1.03,1.04
217.85,1.14,0.12,1.14,0.12,-0.13,-0.20,-0.08,1.01,1.01,1.02
220.03,1.10,0.10,1.10,0.10,-0.11,-0.19,-0.08,0.99,0.99,1.00
222.23,1.05,0.09,1.05,0.09,-0.09,-0.18,-0.08,0.96,0.96,0.96
224.45,1.00,0.09,1.00,0.09,-0.09,-0.17,-0.07,0.92,0.92,0.92
226.70,0.96,0.08,0.96,0.08,-0.08,-0.16,-0.07,0.87,0.87,0.87
228.96,0.91,0.08,0.91,0.08,-0.08,-0.15,-0.07,0.83,0.83,0.82
231.25,0.86,0.09,0.86,0.09,-0.08,-0.14,-0.07,0.78,0.78,0.78
233.57,0.82,0.09,0.82,0.09,-0.09,-0.13,-0.07,0.73,0.73,0.73
235.90,0.77,0.09,0.77,0.09,-0.09,-0.12,-0.07,0.68,0.68,0.68
238.26,0.73,0.10,0.73,0.10,-0.10,-0.11,-0.06,0.63,0.63,0.63
240.64,0.69,0.10,0.69,0.10,-0.10,-0.10,-0.06,0.59,0.59,0.59
243.05,0.65,0.10,0.65,0.10,-0.10,-0.10,-0.06,0.54,0.54,0.54
245.48,0.60,0.11,0.60,0.11,-0.10,-0.09,-0.06,0.50,0.50,0.50
247.93,0.56,0.11,0.56,0.11,-0.10,-0.08,-0.05,0.45,0.45,0.45
250.41,0.51,0.11,0.51,0.11,-0.10,-0.07,-0.05,0.41,0.41,0.40
252.92,0.46,0.10,0.46,0.10,-0.10,-0.07,-0.05,0.36,0.36,0.36
255.45,0.41,0.10,0.41,0.10,-0.10,-0.06,-0.04,0.32,0.32,0.32
258.00,0.37,0.09,0.37,0.09,-0.09,-0.05,-0.04,0.27,0.27,0.28
260.58,0.32,0.09,0.32,0.09,-0.09,-0.05,-0.03,0.23,0.23,0.24
263.19,0.28,0.08,0.28,0.08,-0.08,-0.04,-0.03,0.19,0.19,0.20
265.82,0.24,0.08,0.24,0.08,-0.08,-0.03,-0.03,0.16,0.16,0.16
268.48,0.19,0.08,0.19,0.08,-0.08,-0.03,-0.02,0.12,0.12,0.12
271.16,0.15,0.07,0.15,0.07,-0.07,-0.02,-0.02,0.08,0.08,0.08
273.87,0.11,0.07,0.11,0.07,-0.07,-0.02,-0.01,0.04,0.04,0.04
276.61,0.07,0.06,0.07,0.06,-0.06,-0.01,-0.01,0.00,0.00,0.00
279.38,0.02,0.06,0.02,0.06,-0.06,-0.01,0.00,-0.04,-0.04,-0.04
282.17,-0.02,0.06,-0.02,0.06,-0.06,-0.00,0.01,-0.08,-0.08,-0.08
284.99,-0.07,0.05,-0.07,0.05,-0.05,0.00,0.01,-0.12,-0.12,-0.12
287.84,-0.11,0.04,-0.11,0.05,-0.05,0.01,0.02,-0.16,-0.16,-0.16
290.72,-0.15,0.04,-0.15,0.04,-0.04,0.01,0.02,-0.19,-0.19,-0.19
293.63,-0.20,0.03,-0.20,0.03,-0.03,0.02,0.03,-0.23,-0.23,-0.23
296.57,-0.24,0.03,-0.24,0.03,-0.03,0.02,0.04,-0.27,-0.27,-0.27
299.53,-0.28,0.02,-0.28,0.02,-0.02,0.03,0.05,-0.30,-0.30,-0.30
302.53,-0.32,0.02,-0.32,0.02,-0.02,0.03,0.05,-0.34,-0.34,-0.34
305.55,-0.36,0.01,-0.36,0.01,-0.01,0.04,0.06,-0.37,-0.37,-0.37
308.61,-0.40,0.01,-0.40,0.01,-0.01,0.04,0.07,-0.40,-0.40,-0.40
311.69,-0.44,0.00,-0.44,0.00,-0.00,0.04,0.07,-0.44,-0.44,-0.44
314.81,-0.47,-0.00,-0.47,-0.00,0.00,0.05,0.08,-0.47,-0.47,-0.47
317.96,-0.51,-0.01,-0.51,-0.01,0.01,0.05,0.09,-0.50,-0.50,-0.50
321.14,-0.54,-0.01,-0.54,-0.01,0.01,0.06,0.10,-0.53,-0.53,-0.54
324.35,-0.58,-0.01,-0.58,-0.01,0.01,0.06,0.11,-0.57,-0.57,-0.57
327.59,-0.61,-0.02,-0.61,-0.02,0.02,0.06,0.11,-0.60,-0.60,-0.60
330.87,-0.65,-0.02,-0.65,-0.02,0.02,0.07,0.12,-0.63,-0.63,-0.63
334.18,-0.69,-0.03,-0.69,-0.03,0.03,0.07,0.13,-0.66,-0.66,-0.66
337.52,-0.72,-0.03,-0.72,-0.03,0.03,0.08,0.14,-0.69,-0.69,-0.69
340.90,-0.76,-0.04,-0.76,-0.04,0.03,0.08,0.15,-0.72,-0.72,-0.72
344.30,-0.79,-0.04,-0.79,-0.04,0.04,0.08,0.16,-0.75,-0.75,-0.75
347.75,-0.82,-0.04,-0.82,-0.04,0.04,0.09,0.17,-0.78,-0.78,-0.78
351.23,-0.85,-0.04,-0.85,-0.05,0.05,0.09,0.17,-0.80,-0.80,-0.81
354.74,-0.88,-0.05,-0.88,-0.05,0.05,0.09,0.18,-0.83,-0.83,-0.83
358.28,-0.91,-0.05,-0.91,-0.05,0.06,0.10,0.19,-0.86,-0.86,-0.86
361.87,-0.95,-0.06,-0.95,-0.06,0.06,0.10,0.20,-0.89,-0.89,-0.89
365.49,-0.98,-0.06,-0.98,-0.06,0.06,0.11,0.21,-0.92,-0.92,-0.91
369.14,-1.01,-0.07,-1.01,-0.07,0.07,0.11,0.22,-0.94,-0.94,-0.94
372.83,-1.04,-0.07,-1.04,-0.07,0.07,0.11,0.23,-0.97,-0.97,-0.97
376.56,-1.07,-0.08,-1.07,-0.08,0.08,0.12,0.24,-0.99,-0.99,-0.99
380.33,-1.10,-0.08,-1.10,-0.08,0.08,0.12,0.25,-1.02,-1.02,-1.02
384.13,-1.13,-0.09,-1.13,-0.09,0.09,0.12,0.26,-1.04,-1.04,-1.04
387.97,-1.16,-0.09,-1.16,-0.09,0.09,0.13,0.27,-1.07,-1.07,-1.07
391.85,-1.19,-0.10,-1.19,-0.10,0.10,0.13,0.28,-1.09,-1.09,-1.09
395.77,-1.22,-0.10,-1.22,-0.10,0.10,0.13,0.30,-1.12,-1.12,-1.11
399.73,-1.25,-0.11,-1.24,-0.11,0.11,0.14,0.31,-1.14,-1.14,-1.14
403.72,-1.27,-0.11,-1.27,-0.11,0.11,0.14,0.32,-1.16,-1.16,-1.16
407.76,-1.30,-0.12,-1.30,-0.12,0.12,0.14,0.33,-1.18,-1.18,-1.18
411.84,-1.32,-0.12,-1.32,-0.12,0.13,0.15,0.34,-1.20,-1.20,-1.20
415.96,-1.35,-0.13,-1.35,-0.13,0.13,0.15,0.35,-1.22,-1.22,-1.22
420.12,-1.38,-0.14,-1.38,-0.14,0.14,0.15,0.36,-1.24,-1.24,-1.24
424.32,-1.42,-0.15,-1.42,-0.15,0.15,0.16,0.37,-1.26,-1.26,-1.26
428.56,-1.45,-0.17,-1.45,-0.17,0.16,0.16,0.38,-1.29,-1.29,-1.28
432.85,-1.48,-0.18,-1.48,-0.18,0.17,0.17,0.39,-1.31,-1.31,-1.30
437.18,-1.51,-0.19,-1.51,-0.19,0.18,0.17,0.40,-1.33,-1.32,-1.32
441.55,-1.53,-0.19,-1.53,-0.19,0.19,0.17,0.41,-1.34,-1.34,-1.34
445.96,-1.55,-0.19,-1.55,-0.19,0.19,0.18,0.42,-1.36,-1.36,-1.36
450.42,-1.57,-0.20,-1.57,-0.20,0.20,0.18,0.43,-1.38,-1.38,-1.38
454.93,-1.59,-0.20,-1.59,-0.20,0.20,0.18,0.44,-1.40,-1.40,-1.40
459.48,-1.61,-0.20,-1.61,-0.20,0.19,0.19,0.44,-1.42,-1.42,-1.41
464.07,-1.62,-0.20,-1.62,-0.19,0.19,0.19,0.45,-1.43,-1.43,-1.43
468.71,-1.63,-0.19,-1.63,-0.19,0.19,0.20,0.46,-1.45,-1.45,-1.44
473.40,-1.64,-0.18,-1.64,-0.18,0.18,0.20,0.47,-1.46,-1.46,-1.46
478.13,-1.65,-0.18,-1.65,-0.18,0.18,0.20,0.47,-1.47,-1.47,-1.47
482.91,-1.66,-0.17,-1.66,-0.17,0.18,0.21,0.48,-1.48,-1.48,-1.49
487.74,-1.67,-0.17,-1.67,-0.17,0.18,0.21,0.48,-1.50,-1.50,-1.50
492.62,-1.69,-0.17,-1.69,-0.17,0.17,0.21,0.48,-1.52,-1.52,-1.52
497.55,-1.71,-0.18,-1.71,-0.18,0.17,0.22,0.49,-1.53,-1.53,-1.53
502.52,-1.72,-0.18,-1.72,-0.18,0.18,0.22,0.49,-1.54,-1.54,-1.54
507.55,-1.74,-0.18,-1.74,-0.18,0.18,0.23,0.49,-1.56,-1.56,-1.56
512.62,-1.75,-0.18,-1.75,-0.18,0.18,0.23,0.49,-1.57,-1.57,-1.57
517.75,-1.77,-0.19,-1.77,-0.19,0.19,0.23,0.49,-1.58,-1.58,-1.58
522.93,-1.78,-0.19,-1.78,-0.19,0.19,0.24,0.49,-1.59,-1.59,-1.59
528.16,-1.80,-0.19,-1.80,-0.19,0.19,0.24,0.49,-1.60,-1.60,-1.60
533.44,-1.81,-0.20,-1.81,-0.20,0.20,0.24,0.49,-1.61,-1.61,-1.61
538.77,-1.83,-0.20,-1.83,-0.20,0.20,0.25,0.49,-1.62,-1.62,-1.62
