frequency,raw,error,smoothed,error_smoothed,equalization,parametric_eq,fixed_band_eq,equalized_raw,equalized_smoothed,target
20.00,3.81,-2.63,3.81,-2.63,2.58,2.34,0.39,6.39,6.39,6.44
20.20,3.88,-2.56,3.88,-2.55,2.54,2.33,0.40,6.42,6.42,6.43
20.40,3.95,-2.49,3.95,-2.48,2.50,2.32,0.42,6.44,6.44,6.43
20.61,4.02,-2.42,4.02,-2.42,2.45,2.31,0.43,6.47,6.47,6.44
20.81,4.08,-2.37,4.08,-2.37,2.40,2.30,0.44,6.49,6.49,6.45
21.02,4.14,-2.32,4.14,-2.32,2.36,2.27,0.46,6.50,6.50,6.47
21.23,4.20,-2.28,4.20,-2.28,2.31,2.25,0.47,6.51,6.51,6.49
21.44,4.26,-2.25,4.26,-2.26,2.26,2.22,0.48,6.52,6.52,6.51
21.66,4.31,-2.23,4.31,-2.23,2.22,2.19,0.50,6.53,6.53,6.54
21.87,4.36,-2.19,4.36,-2.19,2.18,2.16,0.51,6.54,6.54,6.56
22.09,4.42,-2.15,4.42,-2.15,2.12,2.12,0.53,6.54,6.54,6.57
22.31,4.48,-2.09,4.48,-2.09,2.06,2.08,0.55,6.55,6.55,6.57
22.54,4.55,-2.01,4.55,-2.01,2.00,2.04,0.56,6.55,6.55,6.57
22.76,4.63,-1.93,4.63,-1.93,1.92,1.99,0.58,6.55,6.56,6.56
22.99,4.72,-1.83,4.72,-1.84,1.84,1.95,0.60,6.57,6.57,6.56
23.22,4.81,-1.75,4.81,-1.75,1.77,1.90,0.62,6.58,6.58,6.56
23.45,4.90,-1.67,4.90,-1.67,1.70,1.85,0.63,6.60,6.60,6.57
23.69,4.99,-1.61,4.98,-1.61,1.63,1.81,0.65,6.62,6.62,6.60
23.92,5.06,-1.56,5.06,-1.56,1.57,1.76,0.67,6.64,6.63,6.63
24.16,5.13,-1.52,5.13,-1.52,1.52,1.71,0.69,6.65,6.65,6.65
24.40,5.19,-1.49,5.19,-1.49,1.47,1.66,0.71,6.66,6.66,6.67
24.65,5.24,-1.44,5.25,-1.44,1.42,1.61,0.73,6.66,6.66,6.69
24.89,5.30,-1.39,5.30,-1.39,1.37,1.56,0.75,6.67,6.67,6.69
25.14,5.36,-1.33,5.36,-1.33,1.33,1.51,0.77,6.68,6.68,6.69
25.39,5.41,-1.27,5.41,-1.27,1.28,1.46,0.79,6.70,6.70,6.68
25.65,5.46,-1.22,5.46,-1.22,1.25,1.41,0.81,6.71,6.71,6.68
25.91,5.50,-1.19,5.50,-1.19,1.22,1.36,0.83,6.72,6.72,6.69
26.16,5.54,-1.17,5.53,-1.17,1.19,1.31,0.85,6.72,6.72,6.70
26.43,5.56,-1.16,5.56,-1.16,1.16,1.26,0.87,6.72,6.72,6.72
26.69,5.58,-1.15,5.58,-1.15,1.13,1.22,0.89,6.71,6.71,6.74
26.96,5.61,-1.14,5.61,-1.14,1.10,1.17,0.90,6.71,6.71,6.75
27.23,5.65,-1.11,5.65,-1.10,1.07,1.13,0.92,6.72,6.72,6.76
27.50,5.70,-1.05,5.70,-1.05,1.04,1.08,0.94,6.75,6.75,6.76
27.77,5.76,-1.00,5.76,-1.00,1.02,1.04,0.95,6.78,6.78,6.76
28.05,5.81,-0.96,5.81,-0.96,1.01,1.00,0.97,6.81,6.81,6.77
28.33,5.84,-0.94,5.83,-0.94,1.00,0.96,0.98,6.83,6.83,6.78
28.62,5.85,-0.95,5.84,-0.95,0.99,0.92,0.99,6.84,6.84,6.79
28.90,5.83,-0.98,5.83,-0.98,0.99,0.88,1.01,6.82,6.82,6.81
29.19,5.81,-1.01,5.81,-1.01,0.98,0.84,1.02,6.79,6.79,6.82
29.48,5.79,-1.04,5.80,-1.02,0.97,0.80,1.02,6.76,6.77,6.83
29.78,5.82,-1.00,5.82,-1.00,0.94,0.77,1.03,6.76,6.75,6.82
30.08,5.87,-0.95,5.87,-0.94,0.89,0.73,1.03,6.76,6.77,6.81
30.38,5.96,-0.85,5.96,-0.85,0.84,0.70,1.04,6.80,6.80,6.81
30.68,6.07,-0.75,6.06,-0.76,0.78,0.66,1.04,6.85,6.84,6.81
30.99,6.16,-0.67,6.15,-0.67,0.72,0.63,1.04,6.88,6.87,6.82
31.30,6.22,-0.61,6.22,-0.62,0.67,0.60,1.03,6.89,6.89,6.84
31.61,6.26,-0.59,6.25,-0.59,0.62,0.56,1.03,6.88,6.87,6.84
31.93,6.26,-0.58,6.26,-0.58,0.59,0.53,1.02,6.85,6.85,6.85
32.24,6.26,-0.58,6.26,-0.58,0.56,0.50,1.01,6.83,6.83,6.84
32.57,6.26,-0.58,6.27,-0.57,0.55,0.47,1.00,6.81,6.81,6.84
32.89,6.28,-0.56,6.28,-0.56,0.53,0.45,0.99,6.81,6.82,6.84
33.22,6.31,-0.53,6.31,-0.53,0.52,0.42,0.98,6.83,6.83,6.84
33.55,6.35,-0.49,6.35,-0.49,0.49,0.39,0.96,6.85,6.85,6.85
33.89,6.40,-0.46,6.40,-0.46,0.47,0.36,0.94,6.87,6.86,6.86
34.23,6.44,-0.42,6.44,-0.42,0.43,0.34,0.92,6.87,6.87,6.86
34.57,6.48,-0.39,6.48,-0.39,0.40,0.31,0.90,6.87,6.87,6.87
34.92,6.51,-0.36,6.52,-0.36,0.36,0.29,0.88,6.87,6.87,6.87
35.27,6.55,-0.32,6.55,-0.32,0.32,0.26,0.86,6.87,6.87,6.88
35.62,6.59,-0.28,6.59,-0.28,0.27,0.24,0.83,6.86,6.86,6.87
35.97,6.63,-0.24,6.63,-0.23,0.23,0.22,0.81,6.86,6.86,6.87
36.33,6.68,-0.18,6.68,-0.18,0.18,0.19,0.78,6.86,6.86,6.86
36.70,6.72,-0.13,6.72,-0.13,0.13,0.17,0.76,6.86,6.86,6.85
37.06,6.77,-0.08,6.77,-0.08,0.09,0.15,0.73,6.86,6.86,6.85
37.43,6.81,-0.04,6.81,-0.04,0.05,0.13,0.70,6.86,6.86,6.85
37.81,6.84,-0.01,6.84,-0.01,0.01,0.11,0.67,6.85,6.86,6.85
38.19,6.87,0.02,6.86,0.02,-0.01,0.09,0.65,6.85,6.85,6.85
38.57,6.88,0.04,6.88,0.04,-0.03,0.07,0.62,6.85,6.85,6.84
38.95,6.88,0.05,6.88,0.05,-0.04,0.05,0.59,6.84,6.84,6.83
39.34,6.88,0.05,6.88,0.05,-0.05,0.03,0.56,6.84,6.84,6.83
39.74,6.88,0.05,6.88,0.05,-0.05,0.01,0.53,6.83,6.83,6.83
40.14,6.89,0.05,6.89,0.05,-0.05,-0.01,0.50,6.83,6.83,6.84
40.54,6.89,0.04,6.89,0.05,-0.06,-0.03,0.47,6.83,6.83,6.84
40.94,6.89,0.05,6.89,0.05,-0.07,-0.04,0.44,6.83,6.83,6.84
41.35,6.90,0.07,6.90,0.07,-0.08,-0.06,0.41,6.83,6.83,6.84
41.76,6.92,0.09,6.92,0.09,-0.09,-0.08,0.38,6.83,6.83,6.83
42.18,6.94,0.11,6.94,0.11,-0.10,-0.09,0.35,6.83,6.83,6.82
42.60,6.95,0.13,6.95,0.13,-0.12,-0.11,0.32,6.83,6.83,6.82
43.03,6.97,0.14,6.97,0.14,-0.14,-0.12,0.29,6.83,6.83,6.83
43.46,6.98,0.15,6.98,0.15,-0.15,-0.13,0.26,6.82,6.82,6.83
43.90,6.99,0.16,6.99,0.16,-0.17,-0.15,0.24,6.82,6.82,6.83
44.33,7.00,0.18,7.00,0.18,-0.18,-0.16,0.21,6.82,6.82,6.82
44.78,7.00,0.19,7.00,0.19,-0.19,-0.17,0.18,6.81,6.81,6.81
45.23,7.00,0.20,7.00,0.20,-0.20,-0.18,0.15,6.81,6.81,6.80
45.68,7.01,0.21,7.01,0.21,-0.21,-0.20,0.12,6.80,6.80,6.80
46.13,7.01,0.21,7.01,0.21,-0.22,-0.21,0.09,6.79,6.79,6.80
46.60,7.00,0.22,7.00,0.22,-0.22,-0.22,0.07,6.78,6.78,6.79
47.06,7.00,0.22,7.00,0.22,-0.22,-0.23,0.04,6.78,6.78,6.78
47.53,7.00,0.23,7.00,0.23,-0.23,-0.23,0.01,6.77,6.77,6.77
48.01,7.00,0.23,6.99,0.23,-0.23,-0.24,-0.02,6.77,6.77,6.76
48.49,6.99,0.23,6.99,0.23,-0.23,-0.25,-0.04,6.77,6.77,6.76
48.97,6.99,0.22,6.99,0.22,-0.22,-0.26,-0.07,6.76,6.76,6.76
49.46,6.98,0.22,6.98,0.22,-0.22,-0.26,-0.10,6.76,6.76,6.77
49.96,6.98,0.22,6.98,0.22,-0.22,-0.27,-0.12,6.76,6.76,6.76
50.46,6.97,0.22,6.97,0.22,-0.22,-0.27,-0.15,6.75,6.75,6.75
50.96,6.97,0.22,6.97,0.22,-0.23,-0.28,-0.17,6.75,6.75,6.75
51.47,6.97,0.23,6.97,0.23,-0.23,-0.28,-0.20,6.74,6.74,6.74
51.99,6.96,0.23,6.96,0.23,-0.23,-0.28,-0.22,6.73,6.73,6.73
52.51,6.96,0.24,6.96,0.24,-0.24,-0.29,-0.25,6.72,6.72,6.72
53.03,6.95,0.25,6.95,0.25,-0.24,-0.29,-0.27,6.71,6.71,6.70
53.56,6.94,0.25,6.94,0.25,-0.24,-0.29,-0.29,6.70,6.70,6.70
54.10,6.94,0.25,6.94,0.25,-0.25,-0.29,-0.31,6.69,6.69,6.69
54.64,6.93,0.24,6.93,0.24,-0.25,-0.29,-0.33,6.68,6.68,6.69
55.18,6.92,0.25,6.92,0.24,-0.25,-0.29,-0.35,6.67,6.67,6.67
55.74,6.91,0.24,6.91,0.24,-0.24,-0.28,-0.37,6.66,6.67,6.67
56.29,6.89,0.24,6.89,0.24,-0.24,-0.28,-0.39,6.66,6.66,6.65
56.86,6.88,0.25,6.88,0.25,-0.24,-0.28,-0.41,6.64,6.64,6.63
57.42,6.87,0.25,6.87,0.24,-0.24,-0.28,-0.42,6.63,6.63,6.62
58.00,6.86,0.24,6.86,0.23,-0.25,-0.27,-0.44,6.61,6.61,6.61
58.58,6.85,0.22,6.85,0.23,-0.26,-0.27,-0.45,6.59,6.59,6.62
59.16,6.83,0.23,6.83,0.25,-0.26,-0.26,-0.46,6.57,6.57,6.61
59.76,6.82,0.29,6.82,0.28,-0.27,-0.26,-0.47,6.55,6.55,6.53
60.35,6.81,0.32,6.81,0.30,-0.27,-0.25,-0.48,6.54,6.54,6.49
60.96,6.79,0.31,6.79,0.29,-0.26,-0.24,-0.49,6.53,6.53,6.49
61.57,6.78,0.25,6.78,0.26,-0.26,-0.24,-0.49,6.52,6.52,6.53
62.18,6.77,0.22,6.77,0.23,-0.25,-0.23,-0.50,6.52,6.52,6.55
62.80,6.75,0.22,6.75,0.21,-0.24,-0.22,-0.50,6.52,6.52,6.53
63.43,6.74,0.21,6.74,0.21,-0.22,-0.21,-0.50,6.51,6.51,6.52
64.07,6.72,0.20,6.72,0.21,-0.21,-0.21,-0.50,6.51,6.51,6.51
64.71,6.70,0.20,6.70,0.20,-0.19,-0.20,-0.50,6.50,6.50,6.50
65.35,6.68,0.19,6.68,0.19,-0.19,-0.19,-0.49,6.49,6.49,6.49
66.01,6.66,0.18,6.66,0.18,-0.18,-0.18,-0.49,6.47,6.47,6.48
66.67,6.64,0.18,6.64,0.18,-0.18,-0.17,-0.48,6.46,6.46,6.46
67.33,6.62,0.17,6.62,0.17,-0.18,-0.16,-0.47,6.44,6.44,6.44
68.01,6.60,0.17,6.60,0.17,-0.17,-0.15,-0.46,6.43,6.43,6.43
68.69,6.58,0.17,6.58,0.17,-0.16,-0.14,-0.45,6.41,6.41,6.41
69.37,6.55,0.16,6.55,0.16,-0.16,-0.13,-0.44,6.40,6.40,6.39
70.07,6.53,0.15,6.53,0.15,-0.15,-0.12,-0.43,6.38,6.38,6.38
70.77,6.50,0.14,6.50,0.14,-0.14,-0.11,-0.41,6.37,6.36,6.36
71.48,6.47,0.13,6.47,0.12,-0.13,-0.10,-0.40,6.35,6.35,6.35
72.19,6.45,0.11,6.45,0.11,-0.11,-0.09,-0.38,6.33,6.33,6.34
72.91,6.42,0.09,6.42,0.10,-0.10,-0.08,-0.36,6.32,6.32,6.32
73.64,6.39,0.09,6.39,0.09,-0.09,-0.07,-0.35,6.30,6.30,6.30
74.38,6.37,0.08,6.37,0.08,-0.08,-0.05,-0.33,6.29,6.29,6.29
75.12,6.34,0.07,6.34,0.07,-0.07,-0.04,-0.31,6.27,6.27,6.27
75.87,6.32,0.06,6.32,0.06,-0.06,-0.03,-0.29,6.26,6.26,6.25
76.63,6.29,0.05,6.29,0.05,-0.05,-0.02,-0.27,6.24,6.24,6.24
77.40,6.26,0.04,6.26,0.04,-0.04,-0.01,-0.25,6.22,6.22,6.22
78.17,6.23,0.03,6.23,0.03,-0.03,0.00,-0.23,6.20,6.20,6.20
78.95,6.20,0.02,6.20,0.02,-0.02,0.01,-0.21,6.18,6.18,6.18
79.74,6.17,0.01,6.17,0.01,-0.01,0.02,-0.19,6.16,6.16,6.16
80.54,6.14,-0.00,6.14,-0.00,0.00,0.04,-0.17,6.14,6.14,6.14
81.35,6.11,-0.01,6.11,-0.01,0.01,0.05,-0.15,6.12,6.12,6.12
82.16,6.08,-0.03,6.08,-0.03,0.02,0.06,-0.13,6.10,6.10,6.11
82.98,6.05,-0.04,6.05,-0.04,0.04,0.07,-0.11,6.08,6.08,6.09
83.81,6.02,-0.05,6.02,-0.05,0.05,0.08,-0.09,6.06,6.06,6.07
84.65,5.99,-0.06,5.99,-0.06,0.06,0.09,-0.07,6.05,6.05,6.05
85.50,5.96,-0.07,5.96,-0.07,0.07,0.10,-0.04,6.03,6.03,6.02
86.35,5.92,-0.08,5.92,-0.08,0.08,0.11,-0.02,6.01,6.01,6.00
87.22,5.89,-0.09,5.89,-0.09,0.10,0.13,-0.00,5.98,5.98,5.98
88.09,5.85,-0.11,5.85,-0.11,0.11,0.14,0.02,5.96,5.96,5.96
88.97,5.82,-0.13,5.82,-0.12,0.12,0.15,0.04,5.93,5.93,5.94
89.86,5.78,-0.14,5.78,-0.14,0.13,0.16,0.06,5.91,5.91,5.92
90.76,5.75,-0.14,5.75,-0.15,0.14,0.17,0.08,5.88,5.89,5.89
91.66,5.72,-0.15,5.72,-0.15,0.15,0.18,0.10,5.87,5.87,5.87
92.58,5.69,-0.16,5.69,-0.16,0.16,0.19,0.12,5.85,5.85,5.85
93.51,5.65,-0.17,5.65,-0.17,0.18,0.20,0.14,5.83,5.83,5.82
94.44,5.61,-0.18,5.61,-0.19,0.20,0.22,0.17,5.81,5.81,5.80
95.39,5.57,-0.21,5.56,-0.21,0.23,0.23,0.19,5.79,5.79,5.78
96.34,5.51,-0.24,5.51,-0.24,0.25,0.24,0.21,5.76,5.76,5.75
97.30,5.44,-0.28,5.44,-0.28,0.28,0.25,0.23,5.72,5.72,5.72
98.28,5.38,-0.32,5.38,-0.32,0.31,0.26,0.25,5.68,5.68,5.70
99.26,5.32,-0.35,5.32,-0.35,0.33,0.27,0.27,5.65,5.65,5.67
100.25,5.28,-0.37,5.28,-0.36,0.35,0.28,0.29,5.63,5.63,5.65
101.25,5.26,-0.37,5.26,-0.37,0.36,0.29,0.31,5.62,5.62,5.62
102.27,5.23,-0.36,5.23,-0.37,0.37,0.30,0.33,5.60,5.60,5.60
103.29,5.21,-0.36,5.21,-0.36,0.37,0.31,0.35,5.58,5.58,5.57
104.32,5.18,-0.37,5.18,-0.37,0.37,0.32,0.37,5.55,5.55,5.55
105.37,5.15,-0.37,5.15,-0.37,0.37,0.34,0.39,5.52,5.53,5.52
106.42,5.12,-0.37,5.12,-0.37,0.38,0.35,0.41,5.50,5.50,5.49
107.48,5.09,-0.37,5.09,-0.38,0.38,0.36,0.43,5.47,5.47,5.46
108.56,5.05,-0.39,5.05,-0.39,0.39,0.37,0.45,5.44,5.44,5.44
109.64,5.01,-0.40,5.01,-0.40,0.40,0.38,0.46,5.41,5.41,5.41
110.74,4.96,-0.42,4.96,-0.42,0.42,0.39,0.48,5.38,5.38,5.38
111.85,4.92,-0.44,4.92,-0.44,0.43,0.40,0.50,5.35,5.35,5.35
112.97,4.87,-0.45,4.87,-0.45,0.45,0.41,0.52,5.32,5.32,5.32
114.10,4.83,-0.46,4.83,-0.46,0.46,0.42,0.53,5.29,5.29,5.29
115.24,4.78,-0.47,4.78,-0.48,0.48,0.43,0.55,5.26,5.26,5.26
116.39,4.74,-0.49,4.74,-0.49,0.49,0.44,0.56,5.23,5.23,5.23
117.55,4.70,-0.51,4.70,-0.50,0.50,0.45,0.58,5.20,5.20,5.21
118.73,4.66,-0.52,4.66,-0.52,0.51,0.46,0.59,5.18,5.18,5.18
119.92,4.62,-0.53,4.62,-0.53,0.53,0.47,0.60,5.14,5.14,5.15
121.12,4.58,-0.54,4.58,-0.54,0.54,0.48,0.61,5.11,5.11,5.12
122.33,4.54,-0.54,4.54,-0.55,0.55,0.49,0.62,5.08,5.08,5.08
123.55,4.49,-0.55,4.49,-0.55,0.56,0.50,0.63,5.05,5.05,5.05
124.79,4.45,-0.57,4.45,-0.56,0.57,0.52,0.64,5.02,5.02,5.02
126.03,4.41,-0.58,4.41,-0.58,0.58,0.53,0.65,4.98,4.98,4.98
127.29,4.36,-0.59,4.36,-0.59,0.59,0.54,0.66,4.95,4.95,4.95
128.57,4.31,-0.60,4.31,-0.60,0.60,0.55,0.66,4.91,4.91,4.91
129.85,4.26,-0.61,4.27,-0.61,0.61,0.56,0.67,4.88,4.88,4.88
131.15,4.22,-0.63,4.22,-0.63,0.63,0.57,0.67,4.84,4.84,4.85
132.46,4.17,-0.64,4.17,-0.64,0.64,0.58,0.68,4.81,4.81,4.81
133.79,4.12,-0.65,4.12,-0.65,0.66,0.59,0.68,4.77,4.77,4.77
135.12,4.07,-0.67,4.07,-0.67,0.67,0.60,0.68,4.74,4.74,4.74
136.48,4.02,-0.68,4.02,-0.68,0.68,0.61,0.68,4.70,4.70,4.70
137.84,3.97,-0.69,3.97,-0.69,0.69,0.61,0.68,4.66,4.66,4.67
139.22,3.93,-0.70,3.93,-0.70,0.70,0.62,0.69,4.63,4.63,4.63
140.61,3.88,-0.71,3.88,-0.71,0.71,0.63,0.69,4.59,4.59,4.59
142.02,3.83,-0.72,3.83,-0.72,0.72,0.64,0.69,4.55,4.55,4.55
143.44,3.79,-0.73,3.79,-0.73,0.73,0.65,0.69,4.51,4.51,4.51
144.87,3.74,-0.74,3.74,-0.74,0.74,0.66,0.69,4.48,4.48,4.47
146.32,3.69,-0.74,3.69,-0.75,0.75,0.67,0.69,4.44,4.44,4.43
147.78,3.64,-0.76,3.64,-0.76,0.76,0.68,0.69,4.40,4.40,4.40
149.26,3.59,-0.77,3.59,-0.77,0.77,0.69,0.69,4.36,4.36,4.36
150.75,3.54,-0.78,3.54,-0.78,0.78,0.70,0.69,4.32,4.32,4.32
152.26,3.49,-0.79,3.49,-0.79,0.79,0.71,0.69,4.28,4.28,4.28
153.78,3.43,-0.80,3.43,-0.80,0.80,0.72,0.69,4.23,4.23,4.23
155.32,3.38,-0.81,3.38,-0.81,0.81,0.72,0.69,4.19,4.19,4.19
156.88,3.32,-0.82,3.32,-0.82,0.82,0.73,0.69,4.15,4.15,4.15
158.44,3.27,-0.83,3.27,-0.83,0.83,0.74,0.69,4.10,4.10,4.10
160.03,3.21,-0.85,3.21,-0.85,0.85,0.75,0.69,4.06,4.06,4.06
161.63,3.16,-0.86,3.16,-0.86,0.86,0.76,0.69,4.02,4.02,4.02
163.24,3.10,-0.87,3.10,-0.87,0.87,0.77,0.69,3.97,3.97,3.97
164.88,3.05,-0.88,3.05,-0.88,0.89,0.77,0.70,3.93,3.93,3.93
166.53,2.99,-0.89,2.99,-0.89,0.90,0.78,0.70,3.89,3.89,3.88
168.19,2.94,-0.89,2.94,-0.89,0.90,0.79,0.70,3.84,3.84,3.83
169.87,2.88,-0.90,2.88,-0.90,0.89,0.80,0.71,3.78,3.78,3.78
171.57,2.84,-0.90,2.84,-0.90,0.88,0.80,0.71,3.71,3.71,3.74
173.29,2.79,-0.89,2.79,-0.89,0.85,0.81,0.72,3.64,3.64,3.68
175.02,2.75,-0.86,2.76,-0.86,0.83,0.82,0.73,3.58,3.58,3.61
176.77,2.73,-0.82,2.73,-0.79,0.80,0.82,0.73,3.52,3.52,3.54
178.54,2.70,-0.73,2.70,-0.74,0.77,0.83,0.74,3.47,3.47,3.44
180.32,2.68,-0.66,2.68,-0.71,0.75,0.84,0.75,3.43,3.43,3.34
182.13,2.66,-0.72,2.66,-0.70,0.73,0.84,0.76,3.39,3.39,3.38
183.95,2.64,-0.73,2.64,-0.72,0.72,0.85,0.76,3.36,3.36,3.37
185.79,2.61,-0.73,2.61,-0.73,0.72,0.85,0.77,3.33,3.33,3.34
187.65,2.59,-0.73,2.58,-0.73,0.73,0.86,0.78,3.31,3.31,3.31
189.52,2.55,-0.74,2.55,-0.74,0.74,0.86,0.80,3.29,3.29,3.29
191.42,2.52,-0.76,2.52,-0.76,0.76,0.87,0.81,3.28,3.28,3.28
193.33,2.48,-0.78,2.48,-0.78,0.78,0.87,0.82,3.25,3.25,3.26
195.27,2.44,-0.79,2.44,-0.79,0.79,0.88,0.83,3.22,3.22,3.23
197.22,2.40,-0.80,2.40,-0.80,0.80,0.88,0.84,3.19,3.19,3.20
199.19,2.35,-0.81,2.35,-0.81,0.80,0.88,0.86,3.16,3.16,3.16
201.18,2.31,-0.81,2.31,-0.81,0.81,0.89,0.87,3.12,3.12,3.12
203.19,2.27,-0.82,2.27,-0.81,0.81,0.89,0.88,3.08,3.08,3.08
205.23,2.23,-0.81,2.22,-0.81,0.81,0.89,0.90,3.04,3.04,3.04
207.28,2.18,-0.81,2.18,-0.81,0.81,0.90,0.91,2.99,2.99,2.99
209.35,2.13,-0.81,2.13,-0.81,0.81,0.90,0.92,2.95,2.95,2.95
211.44,2.09,-0.81,2.09,-0.81,0.81,0.90,0.94,2.90,2.90,2.90
213.56,2.04,-0.81,2.04,-0.81,0.81,0.90,0.95,2.85,2.85,2.85
215.69,1.99,-0.81,1.99,-0.81,0.81,0.91,0.96,2.80,2.80,2.80
217.85,1.94,-0.81,1.94,-0.81,0.81,0.91,0.97,2.75,2.75,2.75
220.03,1.89,-0.81,1.89,-0.81,0.81,0.91,0.99,2.70,2.70,2.70
222.23,1.84,-0.81,1.84,-0.81,0.81,0.91,1.00,2.65,2.65,2.65
224.45,1.79,-0.81,1.79,-0.81,0.81,0.91,1.01,2.60,2.60,2.60
226.70,1.74,-0.81,1.74,-0.81,0.81,0.91,1.02,2.55,2.55,2.55
228.96,1.70,-0.81,1.70,-0.81,0.81,0.91,1.03,2.50,2.50,2.50
231.25,1.65,-0.81,1.65,-0.81,0.81,0.91,1.04,2.46,2.46,2.46
233.57,1.60,-0.81,1.60,-0.81,0.81,0.91,1.05,2.41,2.41,2.41
235.90,1.55,-0.81,1.55,-0.81,0.81,0.91,1.05,2.36,2.36,2.36
238.26,1.51,-0.81,1.51,-0.81,0.81,0.91,1.06,2.31,2.31,2.31
240.64,1.46,-0.81,1.46,-0.81,0.81,0.91,1.06,2.27,2.27,2.27
243.05,1.41,-0.81,1.41,-0.81,0.82,0.91,1.06,2.23,2.23,2.22
245.48,1.37,-0.82,1.37,-0.82,0.82,0.90,1.06,2.19,2.19,2.19
247.93,1.32,-0.83,1.32,-0.83,0.83,0.90,1.06,2.15,2.15,2.15
250.41,1.27,-0.83,1.27,-0.83,0.83,0.90,1.06,2.11,2.11,2.11
252.92,1.23,-0.84,1.23,-0.84,0.84,0.90,1.06,2.07,2.07,2.07
255.45,1.19,-0.84,1.19,-0.84,0.84,0.89,1.05,2.03,2.03,2.03
258.00,1.14,-0.85,1.14,-0.84,0.84,0.89,1.05,1.99,1.99,1.99
260.58,1.10,-0.84,1.10,-0.85,0.85,0.89,1.04,1.94,1.94,1.94
263.19,1.05,-0.84,1.05,-0.85,0.85,0.88,1.03,1.90,1.90,1.90
265.82,1.01,-0.85,1.01,-0.84,0.85,0.88,1.02,1.85,1.85,1.85
268.48,0.96,-0.84,0.96,-0.84,0.84,0.88,1.01,1.81,1.81,1.80
271.16,0.92,-0.84,0.92,-0.84,0.84,0.87,0.99,1.76,1.76,1.76
273.87,0.88,-0.84,0.87,-0.84,0.84,0.87,0.98,1.71,1.71,1.71
276.61,0.83,-0.83,0.83,-0.83,0.83,0.86,0.97,1.66,1.66,1.66
279.38,0.79,-0.83,0.79,-0.83,0.82,0.85,0.95,1.61,1.61,1.62
282.17,0.75,-0.82,0.75,-0.82,0.82,0.85,0.93,1.56,1.56,1.57
284.99,0.70,-0.81,0.70,-0.81,0.81,0.84,0.92,1.51,1.51,1.52
287.84,0.66,-0.80,0.66,-0.80,0.80,0.84,0.90,1.46,1.46,1.46
290.72,0.62,-0.79,0.62,-0.80,0.80,0.83,0.88,1.42,1.42,1.42
293.63,0.58,-0.79,0.58,-0.79,0.79,0.82,0.86,1.37,1.37,1.37
296.57,0.54,-0.79,0.54,-0.79,0.79,0.82,0.84,1.33,1.33,1.33
299.53,0.50,-0.78,0.50,-0.78,0.79,0.81,0.82,1.29,1.29,1.27
302.53,0.45,-0.78,0.45,-0.79,0.79,0.80,0.80,1.25,1.25,1.24
305.55,0.41,-0.80,0.41,-0.80,0.80,0.79,0.78,1.21,1.21,1.21
308.61,0.37,-0.81,0.37,-0.81,0.80,0.79,0.76,1.18,1.18,1.18
311.69,0.33,-0.82,0.33,-0.81,0.81,0.78,0.74,1.14,1.14,1.15
314.81,0.29,-0.81,0.29,-0.82,0.82,0.77,0.73,1.11,1.11,1.11
317.96,0.25,-0.82,0.25,-0.82,0.83,0.76,0.71,1.08,1.08,1.08
321.14,0.21,-0.83,0.21,-0.83,0.83,0.75,0.69,1.05,1.05,1.05
324.35,0.18,-0.84,0.18,-0.84,0.84,0.74,0.67,1.01,1.01,1.02
327.59,0.14,-0.85,0.14,-0.85,0.84,0.73,0.65,0.98,0.98,0.98
330.87,0.10,-0.85,0.10,-0.85,0.84,0.73,0.63,0.95,0.95,0.95
334.18,0.07,-0.84,0.07,-0.85,0.84,0.72,0.62,0.91,0.91,0.91
337.52,0.03,-0.84,0.03,-0.84,0.84,0.71,0.60,0.87,0.87,0.87
340.90,-0.01,-0.84,-0.01,-0.84,0.84,0.70,0.58,0.83,0.83,0.84
344.30,-0.04,-0.83,-0.04,-0.83,0.83,0.69,0.56,0.79,0.79,0.79
347.75,-0.08,-0.82,-0.08,-0.82,0.83,0.68,0.55,0.75,0.75,0.75
351.23,-0.11,-0.82,-0.11,-0.82,0.82,0.67,0.53,0.71,0.71,0.70
354.74,-0.15,-0.81,-0.15,-0.81,0.81,0.65,0.52,0.66,0.66,0.66
358.28,-0.18,-0.80,-0.18,-0.80,0.80,0.64,0.50,0.62,0.62,0.62
361.87,-0.22,-0.79,-0.22,-0.79,0.79,0.63,0.49,0.57,0.57,0.57
365.49,-0.25,-0.78,-0.25,-0.78,0.77,0.62,0.48,0.52,0.52,0.52
369.14,-0.29,-0.76,-0.29,-0.76,0.76,0.61,0.46,0.47,0.47,0.47
372.83,-0.32,-0.74,-0.32,-0.74,0.74,0.60,0.45,0.43,0.43,0.42
376.56,-0.35,-0.73,-0.35,-0.73,0.73,0.59,0.44,0.38,0.38,0.38
380.33,-0.38,-0.71,-0.38,-0.71,0.71,0.58,0.42,0.33,0.33,0.33
384.13,-0.41,-0.69,-0.41,-0.69,0.69,0.57,0.41,0.28,0.28,0.28
387.97,-0.44,-0.68,-0.44,-0.68,0.68,0.55,0.40,0.23,0.23,0.23
391.85,-0.48,-0.66,-0.48,-0.66,0.66,0.54,0.39,0.19,0.19,0.19
395.77,-0.51,-0.65,-0.51,-0.65,0.65,0.53,0.38,0.14,0.14,0.14
399.73,-0.54,-0.63,-0.54,-0.63,0.63,0.52,0.37,0.09,0.09,0.09
403.72,-0.57,-0.62,-0.57,-0.62,0.62,0.51,0.36,0.05,0.05,0.05
407.76,-0.60,-0.60,-0.60,-0.60,0.60,0.49,0.35,0.00,0.00,0.00
411.84,-0.63,-0.59,-0.63,-0.58,0.58,0.48,0.34,-0.04,-0.04,-0.04
415.96,-0.66,-0.56,-0.66,-0.57,0.57,0.47,0.33,-0.09,-0.09,-0.09
420.12,-0.69,-0.55,-0.69,-0.55,0.55,0.46,0.32,-0.13,-0.13,-0.14
424.32,-0.72,-0.55,-0.72,-0.54,0.54,0.44,0.31,-0.18,-0.18,-0.17
428.56,-0.75,-0.52,-0.75,-0.52,0.52,0.43,0.30,-0.22,-0.22,-0.22
432.85,-0.78,-0.50,-0.78,-0.51,0.51,0.42,0.29,-0.27,-0.27,-0.27
437.18,-0.80,-0.49,-0.80,-0.49,0.49,0.41,0.28,-0.31,-0.31,-0.31
441.55,-0.83,-0.48,-0.83,-0.48,0.48,0.39,0.28,-0.35,-0.35,-0.35
445.96,-0.86,-0.46,-0.86,-0.46,0.46,0.38,0.27,-0.40,-0.40,-0.40
450.42,-0.88,-0.45,-0.88,-0.45,0.45,0.37,0.26,-0.44,-0.44,-0.44
454.93,-0.91,-0.43,-0.91,-0.43,0.43,0.35,0.25,-0.48,-0.48,-0.48
459.48,-0.94,-0.41,-0.94,-0.41,0.41,0.34,0.24,-0.52,-0.52,-0.53
464.07,-0.96,-0.39,-0.96,-0.40,0.40,0.33,0.23,-0.57,-0.57,-0.57
468.71,-0.99,-0.38,-0.99,-0.38,0.38,0.31,0.22,-0.61,-0.61,-0.61
473.40,-1.01,-0.36,-1.01,-0.36,0.36,0.30,0.22,-0.65,-0.65,-0.65
478.13,-1.03,-0.34,-1.03,-0.34,0.34,0.29,0.21,-0.69,-0.69,-0.69
482.91,-1.06,-0.32,-1.06,-0.32,0.32,0.27,0.20,-0.74,-0.74,-0.74
487.74,-1.08,-0.30,-1.08,-0.30,0.30,0.26,0.19,-0.78,-0.78,-0.78
492.62,-1.10,-0.28,-1.10,-0.28,0.28,0.25,0.18,-0.82,-0.82,-0.82
497.55,-1.12,-0.26,-1.12,-0.26,0.26,0.23,0.17,-0.86,-0.86,-0.87
502.52,-1.14,-0.23,-1.14,-0.23,0.24,0.22,0.16,-0.91,-0.91,-0.91
507.55,-1.16,-0.21,-1.16,-0.21,0.21,0.21,0.15,-0.95,-0.95,-0.95
512.62,-1.18,-0.19,-1.18,-0.19,0.19,0.19,0.14,-0.99,-0.99,-0.99
517.75,-1.21,-0.17,-1.20,-0.17,0.17,0.18,0.13,-1.04,-1.04,-1.04
522.93,-1.22,-0.15,-1.22,-0.15,0.14,0.17,0.12,-1.08,-1.08,-1.08
528.16,-1.24,-0.12,-1.24,-0.12,0.12,0.15,0.11,-1.13,-1.13,-1.12
533.44,-1.26,-0.09,-1.26,-0.09,0.09,0.14,0.09,-1.17,-1.17,-1.17
538.77,-1.28,-0.06,-1.28,-0.07,0.07,0.12,0.08,-1.21,-1.21,-1.22
544.16,-1.30,-0.05,-1.30,-0.05,0.05,0.11,0.07,-1.25,-1.25,-1.25
549.60,-1.31,-0.03,-1.31,-0.03,0.03,0.10,0.06,-1.29,-1.29,-1.29
555.10,-1.33,-0.01,-1.33,-0.01,0.01,0.08,0.05,-1.32,-1.32,-1.32
