frequency,raw,error,smoothed,error_smoothed,equalization,parametric_eq,fixed_band_eq,equalized_raw,equalized_smoothed,target
20.00,3.35,-7.13,3.35,-7.13,6.00,7.97,2.59,9.35,9.35,10.48
20.20,3.40,-7.07,3.40,-7.07,6.00,7.90,2.66,9.40,9.40,10.46
20.40,3.43,-7.01,3.44,-7.01,6.00,7.83,2.74,9.43,9.44,10.45
20.61,3.47,-6.97,3.46,-6.97,6.00,7.59,2.82,9.47,9.46,10.43
20.81,3.49,-6.93,3.49,-6.93,6.00,7.35,2.90,9.49,9.49,10.42
21.02,3.50,-6.90,3.50,-6.90,6.00,7.06,2.98,9.50,9.50,10.40
21.23,3.50,-6.88,3.50,-6.88,6.00,6.78,3.07,9.50,9.50,10.38
21.44,3.50,-6.86,3.50,-6.86,6.00,6.53,3.16,9.50,9.50,10.37
21.66,3.50,-6.85,3.50,-6.85,6.00,6.29,3.25,9.50,9.50,10.35
21.87,3.50,-6.83,3.51,-6.83,6.00,6.10,3.34,9.50,9.51,10.34
22.09,3.51,-6.81,3.51,-6.81,6.00,5.92,3.44,9.51,9.51,10.32
22.31,3.52,-6.79,3.52,-6.79,6.00,5.79,3.54,9.52,9.52,10.31
22.54,3.53,-6.75,3.54,-6.75,6.00,5.66,3.64,9.53,9.54,10.29
22.76,3.56,-6.71,3.56,-6.71,6.00,5.58,3.74,9.56,9.56,10.27
22.99,3.58,-6.67,3.58,-6.67,6.00,5.50,3.85,9.58,9.58,10.25
23.22,3.61,-6.62,3.61,-6.62,6.00,5.44,3.96,9.61,9.61,10.23
23.45,3.63,-6.57,3.63,-6.57,6.00,5.40,4.07,9.63,9.63,10.20
23.69,3.66,-6.52,3.66,-6.52,6.00,5.37,4.18,9.66,9.66,10.18
23.92,3.68,-6.48,3.68,-6.48,6.00,5.34,4.30,9.68,9.68,10.16
24.16,3.70,-6.44,3.70,-6.45,6.00,5.33,4.42,9.70,9.70,10.14
24.40,3.71,-6.41,3.71,-6.42,6.00,5.33,4.54,9.71,9.71,10.13
24.65,3.72,-6.39,3.72,-6.39,6.00,5.33,4.66,9.72,9.72,10.11
24.89,3.73,-6.37,3.73,-6.37,6.00,5.33,4.78,9.73,9.73,10.10
25.14,3.74,-6.34,3.74,-6.34,6.00,5.34,4.91,9.74,9.74,10.08
25.39,3.75,-6.32,3.75,-6.32,6.00,5.35,5.03,9.75,9.75,10.06
25.65,3.75,-6.29,3.75,-6.29,6.00,5.37,5.16,9.75,9.75,10.04
25.91,3.76,-6.26,3.76,-6.26,6.00,5.39,5.29,9.76,9.76,10.02
26.16,3.77,-6.23,3.77,-6.23,6.00,5.41,5.41,9.77,9.77,10.00
26.43,3.78,-6.19,3.78,-6.19,6.00,5.43,5.54,9.79,9.79,9.98
26.69,3.80,-6.16,3.80,-6.16,6.01,5.45,5.66,9.80,9.80,9.96
26.96,3.81,-6.13,3.81,-6.13,6.01,5.47,5.79,9.81,9.81,9.93
27.23,3.82,-6.09,3.82,-6.09,6.00,5.49,5.91,9.82,9.82,9.91
27.50,3.83,-6.06,3.83,-6.06,6.00,5.52,6.02,9.82,9.82,9.89
27.77,3.84,-6.02,3.84,-6.02,5.98,5.54,6.14,9.82,9.82,9.86
28.05,3.85,-5.99,3.85,-5.99,5.96,5.56,6.25,9.81,9.81,9.83
28.33,3.86,-5.95,3.86,-5.95,5.94,5.58,6.35,9.80,9.80,9.80
28.62,3.87,-5.91,3.87,-5.91,5.91,5.59,6.45,9.78,9.78,9.77
28.90,3.87,-5.87,3.87,-5.87,5.88,5.61,6.53,9.75,9.75,9.74
29.19,3.88,-5.83,3.88,-5.83,5.84,5.63,6.62,9.73,9.73,9.72
29.48,3.89,-5.80,3.89,-5.80,5.81,5.64,6.69,9.70,9.70,9.69
29.78,3.90,-5.77,3.90,-5.77,5.77,5.65,6.76,9.67,9.67,9.67
30.08,3.91,-5.74,3.91,-5.74,5.74,5.66,6.81,9.64,9.64,9.65
30.38,3.91,-5.71,3.91,-5.71,5.71,5.67,6.85,9.62,9.62,9.62
30.68,3.92,-5.68,3.92,-5.68,5.68,5.67,6.88,9.60,9.60,9.60
30.99,3.93,-5.65,3.93,-5.65,5.65,5.67,6.91,9.57,9.57,9.57
31.30,3.93,-5.61,3.93,-5.61,5.61,5.67,6.92,9.55,9.55,9.55
31.61,3.94,-5.58,3.94,-5.58,5.58,5.67,6.92,9.52,9.52,9.52
31.93,3.94,-5.54,3.94,-5.54,5.54,5.66,6.90,9.49,9.49,9.49
32.24,3.95,-5.51,3.95,-5.51,5.50,5.66,6.88,9.46,9.46,9.46
32.57,3.96,-5.47,3.96,-5.47,5.47,5.65,6.85,9.42,9.43,9.43
32.89,3.97,-5.43,3.97,-5.43,5.43,5.63,6.80,9.40,9.40,9.40
33.22,3.98,-5.39,3.98,-5.39,5.39,5.62,6.75,9.37,9.37,9.37
33.55,3.99,-5.35,3.99,-5.35,5.35,5.60,6.69,9.34,9.34,9.34
33.89,4.00,-5.30,4.00,-5.30,5.31,5.58,6.61,9.31,9.31,9.31
34.23,4.01,-5.27,4.01,-5.27,5.27,5.55,6.54,9.28,9.28,9.28
34.57,4.02,-5.23,4.02,-5.23,5.23,5.53,6.45,9.25,9.25,9.24
34.92,4.02,-5.19,4.02,-5.19,5.19,5.50,6.36,9.21,9.21,9.21
35.27,4.03,-5.15,4.03,-5.15,5.15,5.47,6.26,9.18,9.18,9.18
35.62,4.03,-5.11,4.03,-5.11,5.11,5.44,6.16,9.14,9.14,9.15
35.97,4.04,-5.07,4.04,-5.07,5.07,5.40,6.06,9.11,9.11,9.11
36.33,4.05,-5.03,4.05,-5.03,5.03,5.36,5.95,9.08,9.08,9.08
36.70,4.06,-4.98,4.06,-4.98,4.98,5.32,5.84,9.05,9.05,9.05
37.06,4.07,-4.94,4.07,-4.94,4.94,5.28,5.73,9.01,9.01,9.01
37.43,4.08,-4.90,4.08,-4.90,4.90,5.24,5.62,8.98,8.98,8.98
37.81,4.09,-4.85,4.09,-4.85,4.85,5.20,5.51,8.95,8.95,8.94
38.19,4.10,-4.81,4.10,-4.81,4.81,5.15,5.40,8.91,8.91,8.91
38.57,4.10,-4.77,4.10,-4.77,4.77,5.10,5.29,8.88,8.88,8.87
38.95,4.11,-4.73,4.11,-4.73,4.73,5.05,5.18,8.84,8.84,8.84
39.34,4.11,-4.69,4.11,-4.69,4.69,5.00,5.07,8.80,8.80,8.80
39.74,4.11,-4.66,4.11,-4.66,4.66,4.95,4.97,8.77,8.77,8.77
40.14,4.11,-4.62,4.11,-4.62,4.62,4.89,4.86,8.73,8.73,8.74
40.54,4.11,-4.59,4.11,-4.59,4.58,4.84,4.76,8.70,8.70,8.70
40.94,4.11,-4.55,4.11,-4.55,4.55,4.78,4.66,8.66,8.66,8.66
41.35,4.11,-4.51,4.11,-4.51,4.51,4.73,4.56,8.63,8.63,8.62
41.76,4.11,-4.47,4.11,-4.47,4.48,4.67,4.47,8.59,8.59,8.58
42.18,4.11,-4.44,4.11,-4.44,4.44,4.61,4.38,8.55,8.55,8.55
42.60,4.11,-4.40,4.11,-4.40,4.39,4.55,4.29,8.51,8.51,8.51
43.03,4.12,-4.36,4.12,-4.36,4.35,4.49,4.20,8.47,8.47,8.48
43.46,4.13,-4.31,4.13,-4.31,4.31,4.43,4.12,8.43,8.43,8.44
43.90,4.14,-4.26,4.14,-4.26,4.26,4.37,4.04,8.39,8.39,8.40
44.33,4.15,-4.21,4.15,-4.21,4.21,4.31,3.97,8.36,8.36,8.35
44.78,4.16,-4.16,4.16,-4.16,4.16,4.25,3.89,8.32,8.32,8.31
45.23,4.17,-4.11,4.17,-4.11,4.11,4.19,3.82,8.28,8.28,8.27
45.68,4.17,-4.06,4.17,-4.06,4.06,4.13,3.76,8.23,8.23,8.23
46.13,4.18,-4.01,4.18,-4.01,4.01,4.07,3.69,8.19,8.19,8.19
46.60,4.19,-3.96,4.19,-3.96,3.96,4.01,3.63,8.15,8.15,8.15
47.06,4.19,-3.91,4.19,-3.91,3.91,3.95,3.57,8.10,8.10,8.11
47.53,4.20,-3.87,4.20,-3.87,3.86,3.88,3.52,8.06,8.06,8.07
48.01,4.21,-3.82,4.21,-3.81,3.81,3.82,3.46,8.02,8.02,8.03
48.49,4.22,-3.76,4.22,-3.76,3.77,3.76,3.41,7.99,7.99,7.98
48.97,4.22,-3.72,4.22,-3.72,3.73,3.70,3.36,7.95,7.95,7.94
49.46,4.22,-3.68,4.22,-3.68,3.69,3.64,3.32,7.91,7.91,7.89
49.96,4.20,-3.65,4.20,-3.66,3.66,3.59,3.27,7.86,7.86,7.86
50.46,4.18,-3.64,4.18,-3.64,3.63,3.53,3.23,7.81,7.81,7.82
50.96,4.15,-3.63,4.15,-3.62,3.61,3.47,3.19,7.77,7.77,7.78
51.47,4.13,-3.61,4.13,-3.61,3.60,3.41,3.16,7.73,7.73,7.74
51.99,4.10,-3.59,4.10,-3.59,3.60,3.35,3.12,7.70,7.70,7.69
52.51,4.07,-3.57,4.07,-3.57,3.60,3.30,3.09,7.67,7.67,7.64
53.03,4.04,-3.56,4.03,-3.57,3.60,3.24,3.05,7.64,7.63,7.60
53.56,3.98,-3.58,3.98,-3.58,3.60,3.18,3.02,7.58,7.58,7.56
54.10,3.92,-3.59,3.91,-3.60,3.59,3.13,2.99,7.50,7.50,7.51
54.64,3.86,-3.60,3.86,-3.60,3.56,3.07,2.96,7.42,7.42,7.46
55.18,3.83,-3.58,3.85,-3.57,3.52,3.02,2.93,7.35,7.36,7.42
55.74,3.87,-3.50,3.87,-3.50,3.46,2.97,2.90,7.33,7.33,7.37
56.29,3.93,-3.40,3.93,-3.40,3.38,2.91,2.87,7.31,7.31,7.33
56.86,4.00,-3.28,4.00,-3.28,3.29,2.86,2.85,7.30,7.29,7.28
57.42,4.07,-3.17,4.07,-3.17,3.20,2.81,2.82,7.26,7.26,7.24
58.00,4.13,-3.06,4.12,-3.07,3.10,2.76,2.79,7.22,7.22,7.19
58.58,4.17,-2.98,4.17,-2.98,3.00,2.71,2.76,7.17,7.17,7.15
59.16,4.20,-2.90,4.20,-2.90,2.91,2.66,2.73,7.11,7.11,7.10
59.76,4.22,-2.83,4.22,-2.83,2.84,2.61,2.70,7.06,7.06,7.05
60.35,4.23,-2.77,4.23,-2.78,2.78,2.56,2.67,7.01,7.01,7.01
60.96,4.24,-2.73,4.24,-2.73,2.73,2.52,2.64,6.97,6.97,6.96
61.57,4.23,-2.69,4.23,-2.69,2.69,2.47,2.60,6.92,6.92,6.92
62.18,4.23,-2.65,4.23,-2.65,2.64,2.42,2.57,6.87,6.87,6.88
62.80,4.22,-2.61,4.22,-2.61,2.61,2.38,2.53,6.82,6.82,6.83
63.43,4.21,-2.57,4.21,-2.57,2.57,2.33,2.50,6.78,6.78,6.78
64.07,4.20,-2.53,4.20,-2.53,2.53,2.29,2.46,6.73,6.73,6.74
64.71,4.20,-2.49,4.20,-2.49,2.49,2.25,2.42,6.69,6.69,6.69
65.35,4.20,-2.44,4.20,-2.44,2.44,2.20,2.38,6.64,6.64,6.64
66.01,4.20,-2.40,4.20,-2.40,2.39,2.16,2.34,6.59,6.59,6.60
66.67,4.20,-2.35,4.20,-2.35,2.34,2.12,2.29,6.55,6.54,6.55
67.33,4.21,-2.29,4.21,-2.29,2.29,2.08,2.25,6.50,6.50,6.50
68.01,4.21,-2.24,4.21,-2.24,2.24,2.04,2.20,6.45,6.45,6.45
68.69,4.22,-2.18,4.22,-2.18,2.19,2.00,2.16,6.41,6.41,6.41
69.37,4.23,-2.13,4.23,-2.13,2.14,1.96,2.11,6.36,6.36,6.36
70.07,4.23,-2.08,4.23,-2.08,2.09,1.92,2.07,6.32,6.32,6.31
70.77,4.23,-2.04,4.23,-2.04,2.04,1.89,2.02,6.27,6.27,6.27
71.48,4.22,-1.99,4.22,-1.99,2.00,1.85,1.97,6.22,6.22,6.21
72.19,4.21,-1.95,4.21,-1.95,1.96,1.81,1.92,6.16,6.16,6.16
72.91,4.20,-1.91,4.20,-1.92,1.92,1.78,1.87,6.11,6.11,6.11
73.64,4.19,-1.88,4.19,-1.88,1.87,1.74,1.82,6.06,6.06,6.07
74.38,4.18,-1.84,4.18,-1.84,1.83,1.71,1.77,6.01,6.01,6.02
75.12,4.17,-1.79,4.18,-1.79,1.79,1.67,1.72,5.96,5.96,5.97
75.87,4.17,-1.74,4.17,-1.75,1.74,1.64,1.68,5.92,5.92,5.92
76.63,4.17,-1.70,4.17,-1.70,1.70,1.61,1.63,5.87,5.87,5.87
77.40,4.17,-1.65,4.17,-1.65,1.65,1.58,1.58,5.82,5.82,5.82
78.17,4.17,-1.59,4.17,-1.60,1.60,1.54,1.53,5.77,5.77,5.76
78.95,4.16,-1.54,4.16,-1.54,1.55,1.51,1.48,5.71,5.71,5.71
79.74,4.16,-1.50,4.16,-1.50,1.50,1.48,1.44,5.66,5.66,5.65
80.54,4.15,-1.45,4.15,-1.45,1.45,1.45,1.39,5.60,5.60,5.60
81.35,4.14,-1.41,4.14,-1.41,1.40,1.42,1.34,5.55,5.55,5.55
82.16,4.14,-1.36,4.14,-1.36,1.35,1.39,1.30,5.49,5.49,5.50
82.98,4.13,-1.31,4.13,-1.31,1.30,1.37,1.26,5.43,5.43,5.44
83.81,4.13,-1.25,4.13,-1.25,1.25,1.34,1.21,5.38,5.38,5.38
84.65,4.13,-1.20,4.13,-1.20,1.20,1.31,1.17,5.32,5.32,5.33
85.50,4.13,-1.15,4.13,-1.14,1.15,1.28,1.13,5.27,5.27,5.27
86.35,4.13,-1.09,4.13,-1.09,1.09,1.26,1.08,5.22,5.22,5.21
87.22,4.12,-1.04,4.12,-1.04,1.05,1.23,1.04,5.17,5.17,5.16
88.09,4.12,-1.00,4.12,-1.00,1.00,1.20,1.00,5.12,5.12,5.11
88.97,4.11,-0.96,4.11,-0.96,0.96,1.18,0.96,5.07,5.07,5.07
89.86,4.10,-0.92,4.10,-0.92,0.92,1.15,0.92,5.02,5.02,5.01
90.76,4.09,-0.89,4.09,-0.89,0.88,1.13,0.88,4.97,4.97,4.97
91.66,4.08,-0.86,4.08,-0.86,0.85,1.10,0.85,4.93,4.93,4.94
92.58,4.08,-0.83,4.08,-0.82,0.81,1.08,0.81,4.89,4.89,4.90
93.51,4.09,-0.79,4.09,-0.79,0.78,1.05,0.77,4.87,4.87,4.87
94.44,4.10,-0.75,4.10,-0.75,0.75,1.03,0.74,4.85,4.85,4.85
95.39,4.12,-0.71,4.11,-0.71,0.72,1.01,0.70,4.83,4.83,4.83
96.34,4.13,-0.68,4.13,-0.69,0.69,0.99,0.67,4.82,4.82,4.81
97.30,4.15,-0.68,4.15,-0.67,0.67,0.96,0.63,4.82,4.82,4.83
98.28,4.18,-0.65,4.18,-0.65,0.65,0.94,0.60,4.83,4.83,4.83
99.26,4.21,-0.63,4.21,-0.64,0.64,0.92,0.57,4.85,4.85,4.84
100.25,4.23,-0.63,4.22,-0.63,0.65,0.90,0.53,4.87,4.87,4.85
101.25,4.23,-0.64,4.22,-0.64,0.66,0.87,0.50,4.89,4.88,4.87
102.27,4.20,-0.66,4.20,-0.66,0.67,0.85,0.47,4.88,4.88,4.86
103.29,4.17,-0.69,4.17,-0.69,0.69,0.83,0.44,4.86,4.86,4.85
104.32,4.12,-0.72,4.12,-0.72,0.71,0.81,0.41,4.83,4.84,4.84
105.37,4.08,-0.75,4.08,-0.75,0.73,0.79,0.38,4.81,4.81,4.83
106.42,4.05,-0.76,4.05,-0.76,0.74,0.77,0.35,4.79,4.79,4.82
107.48,4.03,-0.77,4.03,-0.76,0.74,0.75,0.33,4.77,4.78,4.80
108.56,4.02,-0.74,4.02,-0.75,0.74,0.73,0.30,4.76,4.76,4.77
109.64,4.02,-0.72,4.02,-0.72,0.72,0.71,0.27,4.74,4.74,4.74
110.74,4.02,-0.70,4.02,-0.69,0.70,0.69,0.25,4.72,4.72,4.71
111.85,4.02,-0.66,4.02,-0.66,0.67,0.67,0.23,4.69,4.69,4.68
112.97,4.01,-0.63,4.01,-0.63,0.64,0.65,0.20,4.66,4.66,4.65
114.10,4.01,-0.61,4.00,-0.61,0.62,0.63,0.18,4.63,4.63,4.61
115.24,3.99,-0.58,3.99,-0.59,0.60,0.61,0.16,4.59,4.59,4.58
116.39,3.98,-0.58,3.98,-0.57,0.58,0.59,0.14,4.56,4.56,4.56
117.55,3.96,-0.56,3.96,-0.56,0.56,0.57,0.12,4.53,4.53,4.52
118.73,3.95,-0.54,3.95,-0.55,0.54,0.55,0.10,4.49,4.49,4.49
119.92,3.93,-0.54,3.93,-0.54,0.52,0.53,0.08,4.45,4.45,4.47
121.12,3.92,-0.52,3.92,-0.51,0.50,0.51,0.07,4.41,4.41,4.44
122.33,3.91,-0.47,3.91,-0.48,0.47,0.48,0.05,4.37,4.38,4.38
123.55,3.90,-0.43,3.90,-0.43,0.44,0.46,0.04,4.34,4.34,4.33
124.79,3.90,-0.40,3.90,-0.39,0.40,0.44,0.03,4.30,4.30,4.29
126.03,3.89,-0.36,3.89,-0.36,0.37,0.42,0.02,4.26,4.26,4.25
127.29,3.88,-0.33,3.88,-0.33,0.33,0.40,0.01,4.22,4.22,4.21
128.57,3.88,-0.30,3.88,-0.30,0.30,0.38,-0.00,4.17,4.17,4.17
129.85,3.87,-0.27,3.87,-0.27,0.27,0.35,-0.01,4.14,4.13,4.14
131.15,3.86,-0.24,3.86,-0.24,0.23,0.33,-0.02,4.10,4.10,4.11
132.46,3.86,-0.21,3.86,-0.21,0.20,0.31,-0.03,4.06,4.06,4.07
133.79,3.86,-0.18,3.86,-0.18,0.17,0.28,-0.03,4.03,4.03,4.03
135.12,3.85,-0.14,3.85,-0.14,0.14,0.26,-0.04,4.00,4.00,4.00
136.48,3.85,-0.11,3.85,-0.11,0.12,0.23,-0.04,3.97,3.97,3.96
137.84,3.84,-0.08,3.84,-0.08,0.09,0.20,-0.04,3.93,3.93,3.92
139.22,3.83,-0.06,3.83,-0.06,0.07,0.18,-0.04,3.90,3.90,3.89
140.61,3.81,-0.05,3.81,-0.05,0.05,0.15,-0.04,3.86,3.86,3.86
142.02,3.78,-0.04,3.79,-0.04,0.03,0.12,-0.05,3.82,3.82,3.82
143.44,3.76,-0.02,3.76,-0.02,0.02,0.09,-0.05,3.78,3.78,3.79
144.87,3.74,-0.01,3.74,-0.01,0.01,0.07,-0.05,3.75,3.75,3.75
146.32,3.72,0.00,3.72,0.00,-0.01,0.04,-0.04,3.72,3.72,3.72
147.78,3.71,0.02,3.71,0.02,-0.02,0.01,-0.04,3.69,3.69,3.69
149.26,3.69,0.04,3.69,0.04,-0.04,-0.03,-0.04,3.66,3.66,3.65
150.75,3.68,0.05,3.68,0.05,-0.05,-0.06,-0.04,3.63,3.63,3.62
152.26,3.66,0.07,3.66,0.07,-0.07,-0.09,-0.04,3.59,3.59,3.60
153.78,3.65,0.08,3.65,0.09,-0.09,-0.12,-0.04,3.56,3.56,3.56
155.32,3.63,0.10,3.63,0.10,-0.10,-0.15,-0.03,3.53,3.53,3.53
156.88,3.61,0.13,3.61,0.12,-0.12,-0.18,-0.03,3.50,3.50,3.49
158.44,3.59,0.14,3.59,0.14,-0.13,-0.21,-0.03,3.46,3.46,3.46
160.03,3.58,0.15,3.58,0.15,-0.15,-0.23,-0.02,3.43,3.43,3.43
161.63,3.56,0.16,3.56,0.16,-0.16,-0.26,-0.02,3.39,3.39,3.40
163.24,3.54,0.17,3.54,0.18,-0.18,-0.28,-0.02,3.36,3.36,3.37
164.88,3.53,0.19,3.53,0.19,-0.20,-0.30,-0.02,3.34,3.34,3.34
166.53,3.52,0.21,3.52,0.21,-0.21,-0.32,-0.01,3.31,3.31,3.31
168.19,3.51,0.23,3.51,0.23,-0.23,-0.34,-0.01,3.28,3.28,3.28
169.87,3.49,0.24,3.49,0.24,-0.24,-0.35,-0.01,3.25,3.25,3.25
171.57,3.48,0.26,3.48,0.26,-0.26,-0.36,-0.00,3.22,3.22,3.22
173.29,3.46,0.27,3.46,0.27,-0.27,-0.37,-0.00,3.19,3.19,3.19
175.02,3.44,0.29,3.44,0.29,-0.29,-0.37,0.00,3.16,3.15,3.15
176.77,3.42,0.30,3.42,0.30,-0.30,-0.37,0.00,3.12,3.12,3.12
178.54,3.40,0.31,3.40,0.31,-0.31,-0.36,0.01,3.09,3.09,3.09
180.32,3.38,0.32,3.38,0.32,-0.32,-0.35,0.01,3.06,3.06,3.07
182.13,3.36,0.32,3.36,0.32,-0.33,-0.34,0.01,3.04,3.04,3.04
183.95,3.34,0.33,3.34,0.33,-0.33,-0.33,0.01,3.01,3.01,3.01
185.79,3.33,0.34,3.32,0.34,-0.34,-0.31,0.01,2.99,2.99,2.99
187.65,3.31,0.34,3.31,0.34,-0.34,-0.29,0.02,2.97,2.97,2.97
189.52,3.28,0.34,3.29,0.34,-0.33,-0.27,0.02,2.95,2.95,2.95
191.42,3.26,0.33,3.26,0.33,-0.32,-0.25,0.02,2.94,2.94,2.94
193.33,3.24,0.32,3.24,0.32,-0.31,-0.23,0.02,2.93,2.93,2.93
195.27,3.22,0.30,3.22,0.30,-0.29,-0.21,0.02,2.93,2.93,2.92
197.22,3.20,0.28,3.20,0.28,-0.27,-0.19,0.03,2.93,2.93,2.93
199.19,3.18,0.25,3.18,0.25,-0.25,-0.17,0.03,2.93,2.93,2.93
201.18,3.16,0.23,3.16,0.23,-0.23,-0.15,0.03,2.93,2.92,2.93
203.19,3.13,0.21,3.13,0.21,-0.21,-0.13,0.03,2.92,2.92,2.92
205.23,3.09,0.19,3.10,0.19,-0.19,-0.10,0.03,2.90,2.90,2.91
207.28,3.07,0.17,3.07,0.17,-0.18,-0.08,0.04,2.89,2.89,2.89
209.35,3.04,0.16,3.04,0.16,-0.17,-0.06,0.04,2.87,2.87,2.88
211.44,3.02,0.16,3.02,0.16,-0.17,-0.05,0.04,2.85,2.85,2.86
213.56,3.00,0.16,3.00,0.16,-0.16,-0.03,0.04,2.83,2.83,2.83
215.69,2.98,0.17,2.98,0.17,-0.16,-0.01,0.04,2.81,2.81,2.81
217.85,2.95,0.17,2.95,0.17,-0.17,0.01,0.05,2.79,2.79,2.78
220.03,2.93,0.17,2.93,0.17,-0.17,0.02,0.05,2.76,2.76,2.76
222.23,2.90,0.17,2.90,0.17,-0.17,0.04,0.05,2.73,2.73,2.73
224.45,2.87,0.16,2.87,0.16,-0.16,0.05,0.05,2.71,2.71,2.70
226.70,2.84,0.16,2.84,0.16,-0.15,0.07,0.05,2.69,2.69,2.68
228.96,2.81,0.15,2.81,0.15,-0.14,0.08,0.06,2.67,2.67,2.66
231.25,2.78,0.14,2.78,0.13,-0.13,0.10,0.06,2.65,2.65,2.65
233.57,2.76,0.12,2.76,0.12,-0.12,0.11,0.06,2.64,2.64,2.64
235.90,2.73,0.09,2.73,0.10,-0.10,0.12,0.07,2.63,2.63,2.64
238.26,2.70,0.08,2.70,0.08,-0.08,0.13,0.07,2.61,2.61,2.62
240.64,2.67,0.07,2.67,0.07,-0.07,0.14,0.07,2.60,2.60,2.60
243.05,2.64,0.05,2.64,0.05,-0.05,0.15,0.08,2.59,2.59,2.59
245.48,2.61,0.03,2.61,0.03,-0.03,0.16,0.08,2.58,2.58,2.58
247.93,2.57,0.01,2.57,0.01,-0.01,0.17,0.09,2.56,2.56,2.56
250.41,2.54,-0.00,2.54,-0.00,0.00,0.18,0.09,2.54,2.54,2.54
252.92,2.50,-0.02,2.50,-0.02,0.02,0.19,0.10,2.52,2.52,2.52
255.45,2.46,-0.04,2.46,-0.04,0.03,0.20,0.10,2.49,2.49,2.50
258.00,2.42,-0.06,2.42,-0.06,0.05,0.21,0.11,2.47,2.47,2.47
260.58,2.38,-0.07,2.38,-0.07,0.07,0.22,0.12,2.45,2.45,2.45
263.19,2.34,-0.09,2.34,-0.09,0.09,0.23,0.12,2.43,2.43,2.43
265.82,2.29,-0.11,2.29,-0.11,0.12,0.24,0.13,2.41,2.41,2.41
268.48,2.24,-0.14,2.24,-0.14,0.15,0.25,0.14,2.39,2.39,2.38
271.16,2.19,-0.18,2.19,-0.18,0.19,0.26,0.14,2.38,2.38,2.37
273.87,2.14,-0.23,2.14,-0.23,0.23,0.26,0.15,2.37,2.37,2.36
276.61,2.08,-0.28,2.08,-0.28,0.28,0.27,0.16,2.36,2.36,2.35
279.38,2.01,-0.33,2.01,-0.33,0.34,0.28,0.17,2.35,2.35,2.34
282.17,1.94,-0.39,1.94,-0.39,0.40,0.29,0.18,2.34,2.34,2.33
284.99,1.86,-0.45,1.86,-0.45,0.46,0.30,0.19,2.33,2.32,2.32
287.84,1.79,-0.51,1.79,-0.51,0.52,0.30,0.19,2.31,2.31,2.30
290.72,1.72,-0.57,1.72,-0.57,0.57,0.31,0.20,2.28,2.28,2.28
293.63,1.65,-0.62,1.65,-0.62,0.60,0.32,0.21,2.26,2.26,2.27
296.57,1.61,-0.65,1.61,-0.64,0.62,0.33,0.22,2.23,2.23,2.26
299.53,1.58,-0.65,1.59,-0.65,0.62,0.34,0.23,2.21,2.21,2.24
302.53,1.59,-0.63,1.59,-0.63,0.61,0.35,0.25,2.20,2.20,2.22
305.55,1.62,-0.59,1.62,-0.59,0.58,0.35,0.26,2.19,2.19,2.21
308.61,1.66,-0.53,1.66,-0.53,0.53,0.36,0.27,2.19,2.19,2.19
311.69,1.71,-0.47,1.70,-0.47,0.48,0.37,0.28,2.19,2.19,2.18
314.81,1.75,-0.41,1.75,-0.41,0.43,0.38,0.29,2.18,2.18,2.16
317.96,1.78,-0.36,1.78,-0.36,0.38,0.39,0.30,2.16,2.16,2.14
321.14,1.80,-0.33,1.80,-0.33,0.34,0.40,0.31,2.14,2.14,2.13
324.35,1.81,-0.30,1.81,-0.30,0.31,0.41,0.33,2.12,2.12,2.11
327.59,1.81,-0.29,1.81,-0.29,0.29,0.42,0.34,2.10,2.10,2.10
330.87,1.80,-0.28,1.80,-0.28,0.28,0.43,0.35,2.08,2.08,2.09
334.18,1.79,-0.28,1.79,-0.28,0.28,0.44,0.37,2.07,2.07,2.07
337.52,1.77,-0.29,1.77,-0.28,0.28,0.45,0.38,2.05,2.05,2.05
340.90,1.75,-0.29,1.75,-0.29,0.29,0.46,0.39,2.04,2.04,2.04
344.30,1.72,-0.30,1.72,-0.30,0.30,0.47,0.41,2.02,2.02,2.02
347.75,1.69,-0.32,1.69,-0.32,0.31,0.48,0.42,2.01,2.01,2.01
351.23,1.67,-0.33,1.67,-0.33,0.33,0.49,0.44,2.00,2.00,2.00
354.74,1.64,-0.35,1.64,-0.35,0.35,0.50,0.45,1.98,1.98,1.98
358.28,1.60,-0.37,1.60,-0.37,0.36,0.52,0.47,1.97,1.97,1.97
361.87,1.57,-0.38,1.57,-0.38,0.38,0.53,0.48,1.95,1.95,1.95
365.49,1.54,-0.40,1.54,-0.40,0.41,0.54,0.50,1.94,1.94,1.94
369.14,1.50,-0.43,1.50,-0.43,0.43,0.55,0.52,1.93,1.93,1.93
372.83,1.46,-0.45,1.46,-0.45,0.45,0.57,0.53,1.91,1.91,1.91
376.56,1.43,-0.47,1.43,-0.47,0.47,0.58,0.55,1.90,1.90,1.90
380.33,1.39,-0.50,1.39,-0.50,0.50,0.60,0.57,1.88,1.88,1.89
384.13,1.35,-0.52,1.35,-0.52,0.52,0.61,0.59,1.87,1.87,1.87
387.97,1.32,-0.54,1.32,-0.54,0.54,0.63,0.60,1.86,1.86,1.86
391.85,1.28,-0.57,1.28,-0.57,0.56,0.64,0.62,1.85,1.85,1.85
395.77,1.25,-0.59,1.25,-0.59,0.59,0.66,0.64,1.83,1.83,1.83
399.73,1.21,-0.61,1.21,-0.61,0.61,0.68,0.66,1.82,1.82,1.82
403.72,1.17,-0.63,1.17,-0.63,0.64,0.70,0.68,1.81,1.81,1.81
407.76,1.13,-0.66,1.13,-0.66,0.66,0.71,0.70,1.79,1.79,1.79
411.84,1.10,-0.69,1.10,-0.69,0.68,0.73,0.71,1.78,1.78,1.78
415.96,1.06,-0.71,1.06,-0.71,0.71,0.75,0.73,1.77,1.77,1.77
420.12,1.02,-0.74,1.02,-0.74,0.73,0.77,0.75,1.75,1.75,1.76
424.32,0.98,-0.76,0.98,-0.76,0.76,0.80,0.77,1.74,1.74,1.74
428.56,0.95,-0.78,0.95,-0.78,0.78,0.82,0.79,1.73,1.73,1.73
432.85,0.91,-0.81,0.91,-0.81,0.81,0.84,0.81,1.72,1.72,1.72
437.18,0.88,-0.83,0.88,-0.83,0.83,0.86,0.83,1.71,1.71,1.71
441.55,0.84,-0.85,0.84,-0.85,0.85,0.88,0.85,1.70,1.70,1.70
445.96,0.81,-0.87,0.81,-0.87,0.87,0.91,0.86,1.68,1.68,1.68
450.42,0.77,-0.90,0.77,-0.90,0.90,0.93,0.88,1.67,1.67,1.67
454.93,0.74,-0.92,0.74,-0.92,0.92,0.95,0.90,1.66,1.66,1.66
459.48,0.71,-0.94,0.71,-0.94,0.94,0.98,0.92,1.65,1.65,1.65
464.07,0.67,-0.96,0.67,-0.96,0.96,1.00,0.93,1.64,1.64,1.64
468.71,0.64,-0.99,0.64,-0.99,0.99,1.02,0.95,1.62,1.62,1.62
473.40,0.60,-1.01,0.60,-1.01,1.01,1.04,0.96,1.61,1.61,1.61
478.13,0.57,-1.03,0.57,-1.03,1.03,1.06,0.98,1.60,1.60,1.60
482.91,0.53,-1.06,0.53,-1.06,1.06,1.08,0.99,1.59,1.59,1.59
487.74,0.50,-1.08,0.50,-1.08,1.08,1.10,1.01,1.58,1.58,1.58
492.62,0.47,-1.10,0.47,-1.10,1.10,1.12,1.02,1.57,1.57,1.57
497.55,0.43,-1.12,0.43,-1.12,1.12,1.14,1.03,1.56,1.56,1.56
502.52,0.40,-1.14,0.40,-1.14,1.14,1.15,1.04,1.55,1.54,1.55
507.55,0.37,-1.16,0.37,-1.16,1.16,1.16,1.05,1.53,1.53,1.53
512.62,0.34,-1.18,0.34,-1.18,1.18,1.17,1.06,1.52,1.52,1.52
517.75,0.31,-1.20,0.31,-1.20,1.20,1.18,1.07,1.51,1.51,1.51
522.93,0.28,-1.22,0.28,-1.22,1.22,1.19,1.08,1.50,1.50,1.50
528.16,0.25,-1.24,0.25,-1.24,1.24,1.20,1.09,1.49,1.49,1.49
533.44,0.22,-1.26,0.22,-1.26,1.26,1.20,1.10,1.48,1.48,1.48
538.77,0.19,-1.27,0.19,-1.28,1.28,1.21,1.10,1.47,1.47,1.47
544.16,0.16,-1.29,0.16,-1.29,1.29,1.21,1.11,1.46,1.46,1.45
549.60,0.14,-1.31,0.14,-1.31,1.31,1.21,1.12,1.45,1.45,1.44
555.10,0.11,-1.32,0.11,-1.32,1.32,1.22,1.12,1.44,1.44,1.43
560.65,0.09,-1.33,0.09,-1.33,1.34,1.22,1.13,1.43,1.43,1.42
566.25,0.07,-1.35,0.07,-1.35,1.35,1.22,1.14,1.42,1.42,1.41
571.92,0.05,-1.35,0.05,-1.35,1.36,1.23,1.14,1.40,1.40,1.40
