frequency,raw,error,smoothed,error_smoothed,equalization,parametric_eq,fixed_band_eq,equalized_raw,equalized_smoothed,target
20.00,19.43,8.87,19.42,8.87,-8.87,-8.87,-4.10,10.56,10.56,10.55
20.20,19.44,8.88,19.44,8.89,-8.89,-8.90,-4.22,10.55,10.55,10.56
20.40,19.45,8.90,19.46,8.90,-8.90,-8.94,-4.33,10.55,10.55,10.56
20.61,19.47,8.92,19.47,8.92,-8.92,-8.96,-4.44,10.55,10.55,10.56
20.81,19.49,8.93,19.49,8.93,-8.93,-8.98,-4.56,10.56,10.56,10.56
21.02,19.50,8.95,19.50,8.95,-8.94,-9.00,-4.69,10.56,10.56,10.55
21.23,19.51,8.96,19.51,8.96,-8.96,-9.01,-4.81,10.56,10.56,10.55
21.44,19.52,8.97,19.52,8.97,-8.96,-9.02,-4.94,10.56,10.55,10.55
21.66,19.52,8.97,19.52,8.97,-8.97,-9.02,-5.08,10.55,10.55,10.55
21.87,19.52,8.98,19.52,8.98,-8.98,-9.03,-5.21,10.55,10.55,10.55
22.09,19.52,8.98,19.52,8.98,-8.98,-9.03,-5.35,10.54,10.54,10.54
22.31,19.52,8.98,19.52,8.98,-8.98,-9.03,-5.50,10.54,10.54,10.54
22.54,19.52,8.98,19.52,8.98,-8.99,-9.03,-5.65,10.53,10.53,10.54
22.76,19.52,8.99,19.52,8.99,-8.99,-9.02,-5.80,10.53,10.53,10.53
22.99,19.52,8.99,19.52,8.99,-8.99,-9.02,-5.96,10.53,10.53,10.53
23.22,19.51,8.99,19.51,8.99,-8.99,-9.01,-6.12,10.52,10.52,10.52
23.45,19.51,8.99,19.51,8.99,-8.99,-9.00,-6.28,10.52,10.52,10.52
23.69,19.50,8.99,19.50,8.99,-8.99,-9.00,-6.45,10.51,10.51,10.51
23.92,19.49,8.98,19.49,8.98,-8.98,-8.99,-6.62,10.51,10.51,10.50
24.16,19.48,8.98,19.48,8.98,-8.98,-8.97,-6.80,10.50,10.50,10.50
24.40,19.46,8.97,19.46,8.97,-8.97,-8.96,-6.97,10.49,10.49,10.49
24.65,19.44,8.96,19.44,8.96,-8.96,-8.95,-7.16,10.48,10.48,10.48
24.89,19.42,8.95,19.42,8.95,-8.95,-8.93,-7.34,10.48,10.48,10.47
25.14,19.40,8.93,19.40,8.93,-8.93,-8.92,-7.53,10.47,10.47,10.47
25.39,19.37,8.92,19.37,8.92,-8.92,-8.91,-7.72,10.46,10.46,10.46
25.65,19.35,8.90,19.35,8.90,-8.90,-8.89,-7.91,10.45,10.45,10.45
25.91,19.32,8.88,19.32,8.88,-8.88,-8.88,-8.10,10.44,10.44,10.44
26.16,19.29,8.86,19.29,8.86,-8.86,-8.87,-8.30,10.43,10.43,10.43
26.43,19.26,8.84,19.26,8.84,-8.84,-8.85,-8.49,10.41,10.41,10.42
26.69,19.23,8.82,19.23,8.82,-8.83,-8.84,-8.69,10.40,10.40,10.41
26.96,19.20,8.81,19.20,8.81,-8.81,-8.83,-8.88,10.39,10.39,10.39
27.23,19.18,8.80,19.18,8.80,-8.80,-8.82,-9.07,10.38,10.38,10.38
27.50,19.15,8.78,19.15,8.78,-8.79,-8.81,-9.26,10.37,10.37,10.37
27.77,19.13,8.78,19.13,8.77,-8.77,-8.80,-9.45,10.36,10.35,10.35
28.05,19.11,8.77,19.11,8.77,-8.77,-8.79,-9.63,10.34,10.34,10.34
28.33,19.08,8.76,19.08,8.76,-8.76,-8.79,-9.80,10.33,10.33,10.33
28.62,19.06,8.75,19.06,8.75,-8.75,-8.78,-9.97,10.31,10.31,10.31
28.90,19.04,8.75,19.04,8.75,-8.74,-8.78,-10.12,10.29,10.29,10.29
29.19,19.02,8.74,19.02,8.74,-8.74,-8.77,-10.27,10.28,10.28,10.28
29.48,19.00,8.74,19.00,8.74,-8.74,-8.77,-10.40,10.26,10.26,10.26
29.78,18.97,8.73,18.97,8.73,-8.73,-8.77,-10.52,10.24,10.24,10.24
30.08,18.95,8.73,18.95,8.73,-8.73,-8.76,-10.63,10.22,10.22,10.22
30.38,18.93,8.73,18.93,8.73,-8.73,-8.76,-10.72,10.20,10.20,10.20
30.68,18.91,8.73,18.91,8.73,-8.73,-8.76,-10.79,10.18,10.18,10.18
30.99,18.90,8.73,18.90,8.73,-8.73,-8.76,-10.86,10.16,10.16,10.16
31.30,18.88,8.74,18.88,8.74,-8.74,-8.76,-10.90,10.14,10.14,10.14
31.61,18.86,8.74,18.86,8.74,-8.74,-8.77,-10.93,10.12,10.12,10.12
31.93,18.85,8.75,18.85,8.75,-8.75,-8.77,-10.93,10.10,10.10,10.10
32.24,18.84,8.76,18.84,8.76,-8.76,-8.77,-10.93,10.08,10.08,10.08
32.57,18.82,8.77,18.82,8.77,-8.77,-8.77,-10.90,10.05,10.05,10.05
32.89,18.81,8.78,18.81,8.78,-8.78,-8.78,-10.86,10.03,10.03,10.03
33.22,18.80,8.79,18.80,8.79,-8.79,-8.78,-10.81,10.01,10.01,10.01
33.55,18.79,8.80,18.79,8.80,-8.80,-8.79,-10.75,9.99,9.99,9.99
33.89,18.78,8.81,18.78,8.81,-8.81,-8.79,-10.67,9.96,9.96,9.96
34.23,18.77,8.82,18.77,8.82,-8.82,-8.80,-10.59,9.94,9.94,9.94
34.57,18.75,8.84,18.75,8.83,-8.83,-8.80,-10.50,9.92,9.92,9.92
34.92,18.74,8.85,18.74,8.85,-8.85,-8.81,-10.40,9.90,9.90,9.90
35.27,18.73,8.86,18.73,8.86,-8.86,-8.81,-10.29,9.88,9.88,9.88
35.62,18.72,8.87,18.72,8.87,-8.87,-8.82,-10.19,9.85,9.85,9.85
35.97,18.71,8.88,18.71,8.88,-8.88,-8.82,-10.07,9.83,9.83,9.83
36.33,18.70,8.89,18.70,8.89,-8.89,-8.83,-9.96,9.81,9.81,9.81
36.70,18.69,8.90,18.69,8.90,-8.90,-8.84,-9.85,9.79,9.79,9.79
37.06,18.67,8.91,18.67,8.91,-8.91,-8.84,-9.74,9.77,9.77,9.77
37.43,18.66,8.92,18.66,8.92,-8.92,-8.85,-9.62,9.74,9.74,9.74
37.81,18.65,8.93,18.65,8.93,-8.93,-8.85,-9.51,9.72,9.72,9.72
38.19,18.64,8.94,18.64,8.94,-8.94,-8.86,-9.41,9.70,9.70,9.70
38.57,18.62,8.95,18.62,8.95,-8.95,-8.87,-9.30,9.68,9.68,9.68
38.95,18.61,8.96,18.61,8.96,-8.96,-8.87,-9.20,9.65,9.65,9.65
39.34,18.60,8.97,18.60,8.97,-8.97,-8.88,-9.11,9.63,9.63,9.63
39.74,18.58,8.98,18.58,8.98,-8.98,-8.88,-9.02,9.61,9.61,9.61
40.14,18.57,8.99,18.57,8.99,-8.99,-8.89,-8.93,9.58,9.58,9.58
40.54,18.56,9.00,18.56,9.00,-9.00,-8.90,-8.85,9.56,9.56,9.56
40.94,18.54,9.01,18.54,9.01,-9.01,-8.90,-8.77,9.53,9.53,9.53
41.35,18.52,9.02,18.52,9.02,-9.01,-8.91,-8.70,9.51,9.51,9.51
41.76,18.51,9.02,18.51,9.02,-9.02,-8.91,-8.64,9.48,9.48,9.48
42.18,18.49,9.03,18.49,9.03,-9.03,-8.92,-8.58,9.46,9.46,9.46
42.60,18.47,9.04,18.47,9.04,-9.04,-8.92,-8.52,9.43,9.43,9.43
43.03,18.45,9.04,18.45,9.04,-9.04,-8.92,-8.48,9.41,9.41,9.41
43.46,18.42,9.04,18.42,9.04,-9.04,-8.93,-8.44,9.38,9.38,9.38
43.90,18.40,9.05,18.40,9.05,-9.05,-8.93,-8.40,9.35,9.35,9.35
44.33,18.37,9.05,18.37,9.05,-9.05,-8.94,-8.37,9.32,9.32,9.32
44.78,18.35,9.05,18.35,9.05,-9.05,-8.94,-8.35,9.30,9.30,9.30
45.23,18.32,9.05,18.32,9.05,-9.05,-8.94,-8.33,9.27,9.27,9.27
45.68,18.29,9.05,18.29,9.05,-9.05,-8.94,-8.32,9.24,9.24,9.24
46.13,18.26,9.05,18.26,9.05,-9.05,-8.95,-8.32,9.21,9.21,9.21
46.60,18.23,9.05,18.23,9.05,-9.04,-8.95,-8.32,9.18,9.18,9.18
47.06,18.19,9.04,18.19,9.04,-9.04,-8.95,-8.33,9.15,9.15,9.15
47.53,18.16,9.04,18.16,9.04,-9.04,-8.95,-8.34,9.12,9.12,9.12
48.01,18.12,9.03,18.12,9.03,-9.03,-8.95,-8.36,9.09,9.09,9.09
48.49,18.09,9.02,18.09,9.02,-9.03,-8.95,-8.38,9.06,9.06,9.06
48.97,18.05,9.02,18.05,9.02,-9.02,-8.95,-8.41,9.03,9.03,9.03
49.46,18.01,9.01,18.01,9.01,-9.01,-8.95,-8.44,9.00,9.00,9.00
49.96,17.98,9.00,17.98,9.00,-9.00,-8.95,-8.48,8.97,8.97,8.97
50.46,17.94,8.99,17.94,8.99,-8.99,-8.95,-8.52,8.94,8.94,8.94
50.96,17.89,8.98,17.89,8.98,-8.98,-8.95,-8.56,8.91,8.91,8.91
51.47,17.85,8.97,17.85,8.97,-8.97,-8.95,-8.61,8.88,8.88,8.88
51.99,17.81,8.96,17.81,8.96,-8.96,-8.95,-8.66,8.85,8.85,8.85
52.51,17.76,8.95,17.76,8.95,-8.95,-8.94,-8.71,8.82,8.82,8.82
53.03,17.72,8.93,17.72,8.93,-8.93,-8.94,-8.77,8.78,8.78,8.78
53.56,17.67,8.92,17.67,8.92,-8.92,-8.94,-8.83,8.75,8.75,8.75
54.10,17.62,8.90,17.62,8.90,-8.90,-8.94,-8.88,8.72,8.72,8.72
54.64,17.57,8.88,17.57,8.88,-8.89,-8.93,-8.94,8.68,8.68,8.68
55.18,17.52,8.87,17.52,8.87,-8.87,-8.93,-9.00,8.65,8.65,8.65
55.74,17.47,8.85,17.47,8.85,-8.85,-8.92,-9.05,8.61,8.61,8.61
56.29,17.41,8.83,17.41,8.83,-8.83,-8.92,-9.11,8.58,8.58,8.58
56.86,17.36,8.82,17.36,8.82,-8.82,-8.91,-9.16,8.55,8.54,8.54
57.42,17.31,8.80,17.31,8.80,-8.80,-8.91,-9.20,8.51,8.51,8.51
58.00,17.26,8.78,17.26,8.79,-8.79,-8.90,-9.25,8.47,8.47,8.47
58.58,17.21,8.77,17.21,8.77,-8.77,-8.89,-9.28,8.44,8.44,8.44
59.16,17.15,8.75,17.15,8.75,-8.75,-8.89,-9.32,8.40,8.40,8.40
59.76,17.10,8.74,17.10,8.74,-8.74,-8.88,-9.34,8.36,8.36,8.36
60.35,17.05,8.72,17.05,8.72,-8.72,-8.87,-9.36,8.33,8.33,8.33
60.96,17.00,8.71,17.00,8.71,-8.70,-8.86,-9.37,8.29,8.29,8.29
61.57,16.94,8.69,16.94,8.69,-8.69,-8.85,-9.37,8.25,8.25,8.25
62.18,16.89,8.67,16.89,8.67,-8.67,-8.84,-9.37,8.22,8.22,8.22
62.80,16.83,8.65,16.83,8.65,-8.66,-8.83,-9.36,8.18,8.18,8.18
63.43,16.78,8.64,16.78,8.64,-8.64,-8.82,-9.34,8.14,8.14,8.14
64.07,16.73,8.62,16.73,8.62,-8.62,-8.81,-9.31,8.10,8.10,8.10
64.71,16.68,8.61,16.68,8.61,-8.61,-8.80,-9.27,8.07,8.07,8.07
65.35,16.63,8.60,16.63,8.60,-8.59,-8.79,-9.23,8.03,8.03,8.03
66.01,16.57,8.58,16.57,8.58,-8.58,-8.78,-9.18,7.99,7.99,7.99
66.67,16.52,8.57,16.52,8.57,-8.57,-8.77,-9.12,7.95,7.95,7.95
67.33,16.47,8.55,16.47,8.55,-8.55,-8.76,-9.06,7.92,7.92,7.92
68.01,16.42,8.54,16.42,8.54,-8.54,-8.75,-8.99,7.88,7.88,7.88
68.69,16.36,8.52,16.36,8.52,-8.52,-8.73,-8.92,7.84,7.84,7.84
69.37,16.31,8.51,16.31,8.51,-8.51,-8.72,-8.84,7.80,7.80,7.80
70.07,16.26,8.50,16.26,8.50,-8.49,-8.71,-8.76,7.76,7.76,7.76
70.77,16.20,8.48,16.20,8.48,-8.48,-8.69,-8.68,7.72,7.72,7.72
71.48,16.15,8.47,16.15,8.47,-8.47,-8.68,-8.60,7.68,7.68,7.68
72.19,16.10,8.45,16.10,8.45,-8.45,-8.66,-8.51,7.64,7.64,7.64
72.91,16.04,8.44,16.04,8.44,-8.44,-8.65,-8.43,7.60,7.60,7.60
73.64,15.99,8.43,15.99,8.43,-8.43,-8.63,-8.34,7.56,7.56,7.56
74.38,15.94,8.42,15.94,8.42,-8.42,-8.62,-8.26,7.52,7.52,7.52
75.12,15.89,8.41,15.89,8.41,-8.41,-8.60,-8.18,7.48,7.48,7.48
75.87,15.84,8.41,15.84,8.41,-8.41,-8.59,-8.10,7.44,7.44,7.44
76.63,15.80,8.40,15.80,8.40,-8.40,-8.57,-8.02,7.40,7.40,7.39
77.40,15.75,8.40,15.75,8.40,-8.39,-8.55,-7.95,7.35,7.35,7.35
78.17,15.70,8.39,15.70,8.39,-8.39,-8.54,-7.88,7.31,7.31,7.31
78.95,15.65,8.38,15.65,8.38,-8.38,-8.52,-7.81,7.26,7.26,7.26
79.74,15.60,8.38,15.60,8.38,-8.38,-8.50,-7.75,7.22,7.22,7.22
80.54,15.55,8.38,15.55,8.38,-8.38,-8.49,-7.69,7.17,7.17,7.17
81.35,15.50,8.37,15.50,8.37,-8.37,-8.47,-7.64,7.13,7.13,7.13
82.16,15.45,8.37,15.45,8.37,-8.37,-8.45,-7.59,7.08,7.08,7.09
82.98,15.41,8.37,15.41,8.37,-8.37,-8.43,-7.54,7.04,7.04,7.04
83.81,15.36,8.37,15.36,8.37,-8.36,-8.41,-7.50,7.00,7.00,6.99
84.65,15.31,8.36,15.31,8.36,-8.36,-8.40,-7.47,6.95,6.95,6.95
85.50,15.26,8.36,15.26,8.36,-8.36,-8.38,-7.44,6.91,6.91,6.91
86.35,15.22,8.35,15.21,8.35,-8.35,-8.36,-7.42,6.87,6.87,6.86
87.22,15.16,8.34,15.16,8.34,-8.34,-8.34,-7.40,6.82,6.82,6.82
88.09,15.11,8.33,15.11,8.33,-8.33,-8.32,-7.38,6.78,6.78,6.78
88.97,15.06,8.32,15.06,8.32,-8.32,-8.30,-7.38,6.74,6.74,6.74
89.86,15.01,8.31,15.01,8.31,-8.31,-8.28,-7.38,6.70,6.70,6.70
90.76,14.96,8.30,14.96,8.30,-8.30,-8.26,-7.38,6.66,6.66,6.66
91.66,14.91,8.28,14.91,8.28,-8.28,-8.24,-7.39,6.63,6.63,6.63
92.58,14.86,8.27,14.86,8.27,-8.27,-8.22,-7.40,6.59,6.59,6.59
93.51,14.81,8.25,14.81,8.25,-8.25,-8.20,-7.42,6.56,6.56,6.56
94.44,14.76,8.23,14.76,8.23,-8.23,-8.18,-7.44,6.53,6.53,6.53
95.39,14.72,8.22,14.72,8.22,-8.22,-8.16,-7.47,6.50,6.50,6.50
96.34,14.67,8.20,14.67,8.20,-8.20,-8.14,-7.51,6.47,6.47,6.47
97.30,14.62,8.18,14.62,8.18,-8.18,-8.12,-7.54,6.44,6.44,6.44
98.28,14.57,8.16,14.57,8.16,-8.16,-8.10,-7.59,6.41,6.41,6.41
99.26,14.52,8.14,14.52,8.14,-8.14,-8.07,-7.63,6.38,6.38,6.38
100.25,14.47,8.12,14.47,8.12,-8.12,-8.05,-7.68,6.35,6.35,6.35
101.25,14.42,8.10,14.42,8.10,-8.10,-8.03,-7.74,6.32,6.32,6.32
102.27,14.37,8.08,14.37,8.08,-8.08,-8.01,-7.79,6.29,6.29,6.29
103.29,14.32,8.05,14.32,8.06,-8.06,-7.99,-7.85,6.26,6.26,6.26
104.32,14.26,8.03,14.26,8.03,-8.04,-7.97,-7.91,6.23,6.23,6.23
105.37,14.21,8.01,14.21,8.01,-8.02,-7.95,-7.98,6.20,6.20,6.20
106.42,14.16,7.99,14.16,7.99,-8.00,-7.93,-8.04,6.16,6.16,6.17
107.48,14.11,7.98,14.11,7.98,-7.98,-7.90,-8.11,6.13,6.13,6.13
108.56,14.05,7.96,14.05,7.96,-7.96,-7.88,-8.17,6.10,6.10,6.10
109.64,14.00,7.94,14.00,7.94,-7.94,-7.86,-8.24,6.06,6.06,6.06
110.74,13.95,7.92,13.95,7.92,-7.92,-7.84,-8.30,6.03,6.03,6.03
111.85,13.89,7.90,13.89,7.90,-7.90,-7.82,-8.36,5.99,5.99,5.99
112.97,13.83,7.88,13.83,7.88,-7.88,-7.80,-8.42,5.96,5.96,5.96
114.10,13.78,7.86,13.78,7.86,-7.86,-7.78,-8.47,5.92,5.92,5.92
115.24,13.72,7.83,13.72,7.83,-7.83,-7.75,-8.52,5.89,5.89,5.89
116.39,13.66,7.81,13.66,7.81,-7.81,-7.73,-8.56,5.86,5.86,5.86
117.55,13.61,7.78,13.61,7.78,-7.78,-7.71,-8.60,5.82,5.82,5.82
118.73,13.54,7.75,13.54,7.75,-7.75,-7.69,-8.63,5.79,5.79,5.79
119.92,13.48,7.72,13.48,7.72,-7.72,-7.67,-8.65,5.76,5.76,5.76
121.12,13.41,7.69,13.41,7.69,-7.68,-7.65,-8.67,5.73,5.73,5.73
122.33,13.35,7.65,13.35,7.65,-7.65,-7.63,-8.68,5.70,5.70,5.70
123.55,13.28,7.60,13.28,7.60,-7.61,-7.60,-8.68,5.67,5.67,5.67
124.79,13.20,7.56,13.20,7.56,-7.56,-7.58,-8.67,5.64,5.64,5.64
126.03,13.13,7.52,13.13,7.52,-7.52,-7.56,-8.65,5.62,5.62,5.62
127.29,13.06,7.47,13.06,7.47,-7.47,-7.54,-8.62,5.59,5.59,5.59
128.57,12.99,7.42,12.99,7.42,-7.42,-7.52,-8.59,5.57,5.57,5.57
129.85,12.92,7.37,12.92,7.37,-7.36,-7.50,-8.54,5.55,5.55,5.54
131.15,12.84,7.32,12.84,7.32,-7.31,-7.48,-8.49,5.53,5.53,5.52
132.46,12.77,7.27,12.77,7.27,-7.26,-7.46,-8.43,5.51,5.51,5.50
133.79,12.69,7.22,12.69,7.22,-7.21,-7.44,-8.36,5.48,5.48,5.48
135.12,12.62,7.17,12.62,7.17,-7.17,-7.41,-8.29,5.46,5.45,5.46
136.48,12.56,7.13,12.56,7.13,-7.14,-7.39,-8.21,5.42,5.42,5.43
137.84,12.51,7.10,12.52,7.10,-7.12,-7.37,-8.12,5.39,5.39,5.41
139.22,12.49,7.10,12.49,7.10,-7.13,-7.35,-8.03,5.36,5.36,5.39
140.61,12.49,7.12,12.49,7.12,-7.14,-7.33,-7.94,5.34,5.35,5.37
142.02,12.51,7.16,12.51,7.16,-7.17,-7.31,-7.85,5.34,5.34,5.35
143.44,12.54,7.21,12.54,7.21,-7.21,-7.29,-7.75,5.33,5.33,5.33
144.87,12.58,7.27,12.58,7.27,-7.26,-7.27,-7.65,5.33,5.32,5.31
146.32,12.61,7.32,12.61,7.32,-7.30,-7.24,-7.55,5.31,5.31,5.29
147.78,12.63,7.36,12.62,7.35,-7.33,-7.22,-7.45,5.30,5.29,5.27
149.26,12.62,7.37,12.62,7.37,-7.35,-7.20,-7.35,5.27,5.27,5.25
150.75,12.60,7.37,12.60,7.37,-7.36,-7.18,-7.26,5.24,5.24,5.23
152.26,12.57,7.36,12.57,7.36,-7.36,-7.16,-7.16,5.21,5.21,5.21
153.78,12.53,7.35,12.53,7.35,-7.35,-7.14,-7.07,5.18,5.18,5.19
155.32,12.49,7.33,12.49,7.33,-7.33,-7.11,-6.98,5.16,5.16,5.16
156.88,12.44,7.30,12.44,7.30,-7.30,-7.09,-6.89,5.14,5.14,5.14
158.44,12.39,7.27,12.39,7.27,-7.27,-7.07,-6.80,5.12,5.12,5.12
160.03,12.34,7.24,12.34,7.24,-7.24,-7.05,-6.72,5.10,5.10,5.10
161.63,12.28,7.20,12.28,7.21,-7.21,-7.02,-6.64,5.07,5.07,5.07
163.24,12.22,7.17,12.22,7.17,-7.17,-7.00,-6.57,5.05,5.05,5.05
164.88,12.15,7.13,12.15,7.13,-7.13,-6.98,-6.50,5.02,5.02,5.03
166.53,12.09,7.09,12.09,7.09,-7.09,-6.95,-6.43,5.00,5.00,5.00
168.19,12.03,7.06,12.03,7.06,-7.06,-6.93,-6.37,4.97,4.97,4.98
169.87,11.97,7.02,11.97,7.02,-7.02,-6.91,-6.31,4.95,4.95,4.95
171.57,11.91,6.98,11.91,6.98,-6.98,-6.88,-6.26,4.92,4.92,4.92
173.29,11.84,6.95,11.84,6.95,-6.94,-6.86,-6.21,4.90,4.90,4.90
175.02,11.78,6.91,11.78,6.91,-6.91,-6.83,-6.17,4.87,4.87,4.87
176.77,11.72,6.87,11.72,6.87,-6.87,-6.80,-6.12,4.84,4.84,4.84
178.54,11.65,6.84,11.65,6.84,-6.84,-6.78,-6.09,4.82,4.82,4.82
180.32,11.59,6.80,11.59,6.80,-6.80,-6.75,-6.06,4.79,4.79,4.79
182.13,11.53,6.76,11.53,6.76,-6.76,-6.72,-6.03,4.76,4.76,4.76
183.95,11.46,6.73,11.46,6.73,-6.73,-6.69,-6.01,4.73,4.74,4.74
185.79,11.40,6.69,11.40,6.69,-6.69,-6.67,-6.00,4.71,4.71,4.71
187.65,11.34,6.65,11.34,6.65,-6.65,-6.64,-5.98,4.68,4.68,4.68
189.52,11.27,6.62,11.27,6.62,-6.61,-6.61,-5.97,4.66,4.66,4.66
191.42,11.21,6.58,11.21,6.58,-6.57,-6.58,-5.97,4.63,4.63,4.63
193.33,11.14,6.54,11.14,6.54,-6.53,-6.54,-5.97,4.61,4.61,4.61
195.27,11.08,6.49,11.08,6.49,-6.49,-6.51,-5.97,4.58,4.58,4.58
197.22,11.01,6.45,11.01,6.45,-6.45,-6.48,-5.98,4.56,4.56,4.56
199.19,10.94,6.41,10.94,6.41,-6.41,-6.45,-5.99,4.53,4.53,4.53
201.18,10.88,6.37,10.88,6.37,-6.37,-6.41,-6.00,4.51,4.51,4.51
203.19,10.81,6.33,10.81,6.33,-6.33,-6.38,-6.01,4.48,4.48,4.49
205.23,10.75,6.29,10.75,6.29,-6.29,-6.34,-6.03,4.46,4.46,4.46
207.28,10.69,6.25,10.69,6.25,-6.25,-6.31,-6.05,4.44,4.44,4.44
209.35,10.62,6.21,10.62,6.21,-6.21,-6.27,-6.07,4.42,4.42,4.41
211.44,10.56,6.17,10.56,6.17,-6.17,-6.23,-6.09,4.39,4.39,4.39
213.56,10.49,6.13,10.49,6.13,-6.13,-6.19,-6.11,4.37,4.37,4.37
215.69,10.43,6.08,10.43,6.08,-6.08,-6.15,-6.14,4.35,4.35,4.35
217.85,10.36,6.04,10.36,6.04,-6.04,-6.11,-6.16,4.32,4.32,4.32
220.03,10.30,6.00,10.30,6.00,-6.00,-6.07,-6.18,4.30,4.30,4.30
222.23,10.24,5.96,10.24,5.96,-5.95,-6.03,-6.20,4.28,4.28,4.28
224.45,10.17,5.91,10.17,5.91,-5.91,-5.98,-6.22,4.26,4.26,4.26
226.70,10.10,5.87,10.10,5.87,-5.87,-5.94,-6.23,4.24,4.24,4.24
228.96,10.04,5.82,10.04,5.82,-5.82,-5.89,-6.25,4.22,4.22,4.22
231.25,9.97,5.77,9.97,5.77,-5.78,-5.85,-6.26,4.20,4.20,4.20
233.57,9.91,5.73,9.91,5.73,-5.73,-5.80,-6.26,4.18,4.18,4.18
235.90,9.84,5.68,9.84,5.68,-5.68,-5.75,-6.26,4.16,4.16,4.16
238.26,9.78,5.64,9.78,5.64,-5.64,-5.71,-6.26,4.14,4.14,4.14
240.64,9.71,5.59,9.71,5.59,-5.59,-5.66,-6.24,4.12,4.12,4.12
243.05,9.65,5.54,9.65,5.54,-5.54,-5.61,-6.23,4.11,4.11,4.10
245.48,9.58,5.49,9.58,5.49,-5.49,-5.55,-6.21,4.09,4.09,4.09
247.93,9.51,5.44,9.51,5.44,-5.44,-5.50,-6.18,4.07,4.07,4.07
250.41,9.44,5.39,9.44,5.39,-5.39,-5.45,-6.14,4.05,4.05,4.05
252.92,9.38,5.34,9.38,5.34,-5.34,-5.40,-6.10,4.03,4.03,4.03
255.45,9.31,5.29,9.31,5.29,-5.29,-5.34,-6.05,4.02,4.02,4.02
258.00,9.24,5.24,9.24,5.24,-5.24,-5.29,-6.00,4.00,4.00,4.00
260.58,9.17,5.19,9.17,5.19,-5.19,-5.23,-5.93,3.98,3.98,3.98
263.19,9.10,5.14,9.10,5.14,-5.14,-5.18,-5.87,3.97,3.97,3.97
265.82,9.04,5.08,9.03,5.08,-5.08,-5.12,-5.79,3.95,3.95,3.95
268.48,8.96,5.03,8.97,5.03,-5.03,-5.06,-5.72,3.93,3.93,3.93
271.16,8.89,4.98,8.89,4.98,-4.98,-5.00,-5.63,3.92,3.92,3.92
273.87,8.82,4.92,8.82,4.92,-4.92,-4.95,-5.54,3.90,3.90,3.90
276.61,8.75,4.87,8.75,4.87,-4.87,-4.89,-5.45,3.89,3.89,3.89
279.38,8.68,4.81,8.68,4.81,-4.81,-4.83,-5.36,3.87,3.87,3.87
282.17,8.61,4.75,8.61,4.75,-4.75,-4.77,-5.26,3.86,3.86,3.86
284.99,8.54,4.69,8.54,4.70,-4.70,-4.71,-5.16,3.84,3.84,3.84
287.84,8.47,4.64,8.47,4.64,-4.64,-4.65,-5.05,3.83,3.83,3.83
290.72,8.40,4.58,8.40,4.58,-4.58,-4.58,-4.95,3.82,3.82,3.82
293.63,8.33,4.53,8.33,4.53,-4.53,-4.52,-4.84,3.80,3.80,3.80
296.57,8.26,4.47,8.26,4.47,-4.47,-4.46,-4.73,3.79,3.79,3.79
299.53,8.19,4.41,8.19,4.41,-4.41,-4.40,-4.63,3.78,3.78,3.78
302.53,8.12,4.35,8.12,4.35,-4.35,-4.34,-4.52,3.76,3.76,3.76
305.55,8.05,4.30,8.05,4.30,-4.30,-4.27,-4.41,3.75,3.75,3.75
308.61,7.97,4.24,7.97,4.24,-4.24,-4.21,-4.31,3.74,3.74,3.74
311.69,7.90,4.18,7.90,4.18,-4.18,-4.15,-4.20,3.72,3.72,3.72
314.81,7.83,4.12,7.83,4.12,-4.12,-4.08,-4.10,3.71,3.71,3.71
317.96,7.76,4.06,7.76,4.06,-4.06,-4.02,-3.99,3.70,3.70,3.70
321.14,7.69,4.00,7.69,4.00,-4.00,-3.96,-3.89,3.69,3.69,3.69
324.35,7.62,3.94,7.62,3.94,-3.94,-3.89,-3.79,3.68,3.68,3.67
327.59,7.55,3.88,7.55,3.88,-3.88,-3.83,-3.69,3.66,3.66,3.66
330.87,7.47,3.82,7.47,3.82,-3.82,-3.76,-3.60,3.65,3.65,3.65
334.18,7.40,3.76,7.40,3.76,-3.76,-3.70,-3.51,3.64,3.64,3.64
337.52,7.33,3.70,7.33,3.70,-3.70,-3.64,-3.41,3.63,3.63,3.63
340.90,7.25,3.64,7.25,3.64,-3.64,-3.57,-3.33,3.62,3.62,3.62
344.30,7.18,3.57,7.18,3.57,-3.57,-3.51,-3.24,3.60,3.60,3.60
347.75,7.10,3.51,7.10,3.51,-3.51,-3.44,-3.15,3.59,3.59,3.59
351.23,7.03,3.45,7.03,3.45,-3.45,-3.38,-3.07,3.58,3.58,3.58
354.74,6.96,3.39,6.96,3.39,-3.39,-3.32,-2.99,3.57,3.57,3.57
358.28,6.88,3.32,6.88,3.32,-3.32,-3.25,-2.91,3.56,3.56,3.56
361.87,6.81,3.26,6.81,3.26,-3.26,-3.19,-2.84,3.55,3.55,3.55
365.49,6.74,3.20,6.74,3.20,-3.20,-3.13,-2.76,3.54,3.54,3.54
369.14,6.67,3.14,6.67,3.14,-3.14,-3.06,-2.69,3.53,3.53,3.53
372.83,6.60,3.08,6.60,3.08,-3.08,-3.00,-2.62,3.52,3.52,3.52
376.56,6.53,3.02,6.53,3.02,-3.02,-2.94,-2.56,3.51,3.51,3.51
380.33,6.46,2.96,6.46,2.96,-2.96,-2.87,-2.49,3.50,3.50,3.50
384.13,6.39,2.90,6.39,2.90,-2.89,-2.81,-2.43,3.49,3.49,3.49
387.97,6.32,2.83,6.32,2.83,-2.83,-2.75,-2.37,3.49,3.48,3.48
391.85,6.24,2.77,6.24,2.77,-2.77,-2.68,-2.31,3.48,3.48,3.48
395.77,6.17,2.70,6.17,2.70,-2.70,-2.62,-2.25,3.47,3.47,3.47
399.73,6.10,2.64,6.09,2.64,-2.64,-2.56,-2.19,3.46,3.46,3.46
403.72,6.02,2.57,6.02,2.57,-2.57,-2.49,-2.14,3.45,3.45,3.45
407.76,5.95,2.50,5.95,2.50,-2.50,-2.43,-2.09,3.44,3.44,3.44
411.84,5.87,2.43,5.87,2.43,-2.43,-2.37,-2.03,3.44,3.44,3.44
415.96,5.80,2.37,5.80,2.37,-2.37,-2.31,-1.98,3.43,3.43,3.43
420.12,5.72,2.30,5.72,2.30,-2.30,-2.24,-1.93,3.42,3.42,3.42
424.32,5.64,2.23,5.64,2.23,-2.23,-2.18,-1.88,3.42,3.42,3.42
428.56,5.57,2.16,5.57,2.16,-2.16,-2.12,-1.84,3.41,3.41,3.41
432.85,5.49,2.09,5.49,2.09,-2.09,-2.06,-1.79,3.40,3.40,3.40
437.18,5.42,2.02,5.42,2.02,-2.02,-1.99,-1.74,3.40,3.40,3.40
441.55,5.35,1.96,5.35,1.96,-1.96,-1.93,-1.69,3.39,3.39,3.39
445.96,5.27,1.89,5.27,1.89,-1.89,-1.87,-1.65,3.38,3.38,3.39
450.42,5.20,1.82,5.20,1.82,-1.82,-1.80,-1.60,3.38,3.38,3.38
454.93,5.12,1.75,5.12,1.75,-1.75,-1.74,-1.55,3.37,3.37,3.37
459.48,5.05,1.68,5.05,1.68,-1.68,-1.68,-1.51,3.37,3.37,3.37
464.07,4.98,1.61,4.98,1.61,-1.61,-1.61,-1.46,3.37,3.37,3.36
468.71,4.90,1.54,4.90,1.54,-1.54,-1.55,-1.41,3.36,3.36,3.36
473.40,4.82,1.47,4.82,1.47,-1.47,-1.48,-1.36,3.36,3.36,3.36
478.13,4.75,1.40,4.75,1.40,-1.39,-1.42,-1.31,3.35,3.35,3.35
482.91,4.67,1.32,4.67,1.32,-1.32,-1.35,-1.27,3.35,3.35,3.35
487.74,4.59,1.25,4.59,1.25,-1.25,-1.29,-1.21,3.34,3.34,3.34
