frequency,raw,error,smoothed,error_smoothed,equalization,parametric_eq,fixed_band_eq,equalized_raw,equalized_smoothed,target
20.00,7.42,3.33,7.42,3.33,-3.33,-3.08,-0.93,4.09,4.09,4.09
20.20,7.44,3.30,7.44,3.29,-3.30,-3.07,-0.96,4.15,4.15,4.14
20.40,7.46,3.24,7.46,3.25,-3.26,-3.07,-0.99,4.20,4.20,4.22
20.61,7.48,3.19,7.48,3.21,-3.22,-3.07,-1.02,4.25,4.25,4.29
20.81,7.49,3.20,7.49,3.19,-3.19,-3.06,-1.05,4.31,4.31,4.29
21.02,7.51,3.18,7.51,3.16,-3.15,-3.05,-1.08,4.36,4.36,4.33
21.23,7.52,3.12,7.52,3.13,-3.11,-3.04,-1.12,4.41,4.41,4.40
21.44,7.53,3.08,7.53,3.08,-3.07,-3.03,-1.15,4.47,4.47,4.45
21.66,7.55,3.04,7.55,3.03,-3.02,-3.02,-1.19,4.52,4.52,4.51
21.87,7.56,2.98,7.56,2.98,-2.98,-3.01,-1.22,4.58,4.58,4.58
22.09,7.57,2.92,7.57,2.91,-2.93,-2.99,-1.26,4.64,4.64,4.65
22.31,7.59,2.86,7.59,2.87,-2.89,-2.98,-1.30,4.70,4.70,4.73
22.54,7.60,2.81,7.60,2.83,-2.84,-2.96,-1.34,4.77,4.77,4.79
22.76,7.62,2.83,7.62,2.81,-2.80,-2.94,-1.38,4.82,4.82,4.79
22.99,7.63,2.79,7.63,2.78,-2.76,-2.92,-1.42,4.87,4.87,4.84
23.22,7.64,2.74,7.64,2.74,-2.74,-2.90,-1.46,4.90,4.90,4.90
23.45,7.65,2.67,7.65,2.69,-2.71,-2.88,-1.50,4.93,4.93,4.97
23.69,7.66,2.67,7.66,2.67,-2.70,-2.86,-1.55,4.96,4.96,4.99
23.92,7.66,2.67,7.66,2.67,-2.68,-2.84,-1.59,4.98,4.98,4.99
24.16,7.67,2.68,7.67,2.68,-2.67,-2.81,-1.64,5.00,5.00,4.99
24.40,7.68,2.69,7.68,2.67,-2.66,-2.79,-1.68,5.02,5.02,4.99
24.65,7.68,2.66,7.68,2.65,-2.65,-2.76,-1.73,5.04,5.04,5.03
24.89,7.69,2.60,7.69,2.63,-2.64,-2.74,-1.78,5.06,5.06,5.09
25.14,7.70,2.61,7.70,2.62,-2.62,-2.71,-1.82,5.08,5.08,5.09
25.39,7.71,2.62,7.71,2.61,-2.60,-2.68,-1.87,5.11,5.11,5.09
25.65,7.72,2.62,7.72,2.60,-2.58,-2.65,-1.92,5.14,5.14,5.10
25.91,7.73,2.56,7.73,2.56,-2.55,-2.62,-1.97,5.18,5.18,5.17
26.16,7.74,2.51,7.74,2.52,-2.52,-2.59,-2.01,5.22,5.22,5.23
26.43,7.75,2.46,7.75,2.48,-2.49,-2.56,-2.06,5.26,5.26,5.29
26.69,7.76,2.47,7.76,2.45,-2.46,-2.53,-2.10,5.29,5.29,5.29
26.96,7.77,2.44,7.77,2.42,-2.44,-2.50,-2.15,5.33,5.32,5.33
27.23,7.78,2.39,7.78,2.41,-2.42,-2.46,-2.19,5.35,5.35,5.39
27.50,7.78,2.39,7.78,2.39,-2.41,-2.43,-2.23,5.37,5.37,5.39
27.77,7.79,2.40,7.79,2.40,-2.41,-2.40,-2.27,5.39,5.39,5.39
28.05,7.80,2.41,7.80,2.41,-2.40,-2.36,-2.31,5.40,5.40,5.39
28.33,7.81,2.42,7.81,2.40,-2.39,-2.33,-2.35,5.42,5.42,5.39
28.62,7.82,2.37,7.82,2.38,-2.37,-2.30,-2.38,5.45,5.45,5.44
28.90,7.82,2.33,7.82,2.35,-2.34,-2.26,-2.41,5.48,5.48,5.49
29.19,7.82,2.33,7.82,2.31,-2.30,-2.23,-2.44,5.52,5.52,5.49
29.48,7.82,2.26,7.82,2.26,-2.25,-2.19,-2.46,5.58,5.58,5.56
29.78,7.82,2.19,7.82,2.19,-2.18,-2.16,-2.48,5.64,5.64,5.63
30.08,7.82,2.11,7.82,2.12,-2.11,-2.12,-2.49,5.71,5.71,5.71
30.38,7.81,2.05,7.81,2.04,-2.04,-2.09,-2.51,5.77,5.77,5.77
30.68,7.81,1.97,7.81,1.97,-1.98,-2.05,-2.51,5.83,5.83,5.84
30.99,7.80,1.90,7.81,1.90,-1.92,-2.02,-2.52,5.88,5.88,5.91
31.30,7.80,1.83,7.80,1.84,-1.88,-1.98,-2.52,5.92,5.92,5.97
31.61,7.80,1.81,7.80,1.81,-1.84,-1.95,-2.51,5.96,5.96,5.99
31.93,7.80,1.81,7.80,1.80,-1.81,-1.91,-2.50,5.99,5.99,5.99
32.24,7.79,1.80,7.79,1.81,-1.79,-1.88,-2.49,6.00,6.00,5.99
32.57,7.79,1.80,7.79,1.79,-1.77,-1.84,-2.47,6.02,6.02,5.99
32.89,7.79,1.77,7.79,1.76,-1.75,-1.80,-2.45,6.04,6.04,6.01
33.22,7.79,1.70,7.79,1.73,-1.72,-1.77,-2.43,6.07,6.07,6.09
33.55,7.79,1.70,7.79,1.69,-1.68,-1.74,-2.40,6.11,6.11,6.09
33.89,7.78,1.66,7.78,1.64,-1.63,-1.70,-2.37,6.16,6.16,6.13
34.23,7.78,1.59,7.78,1.59,-1.57,-1.67,-2.33,6.22,6.22,6.20
34.57,7.78,1.52,7.78,1.52,-1.50,-1.63,-2.30,6.28,6.28,6.26
34.92,7.78,1.44,7.78,1.44,-1.44,-1.60,-2.26,6.33,6.33,6.33
35.27,7.77,1.37,7.77,1.37,-1.39,-1.56,-2.21,6.38,6.38,6.40
35.62,7.77,1.29,7.77,1.31,-1.34,-1.53,-2.17,6.43,6.43,6.47
35.97,7.76,1.27,7.76,1.27,-1.30,-1.50,-2.12,6.46,6.46,6.49
36.33,7.75,1.26,7.75,1.26,-1.27,-1.46,-2.08,6.48,6.48,6.49
36.70,7.75,1.25,7.75,1.25,-1.25,-1.43,-2.03,6.49,6.49,6.49
37.06,7.74,1.25,7.74,1.25,-1.24,-1.40,-1.98,6.50,6.50,6.49
37.43,7.73,1.24,7.73,1.24,-1.22,-1.36,-1.93,6.51,6.51,6.49
37.81,7.72,1.23,7.72,1.23,-1.20,-1.33,-1.88,6.51,6.51,6.49
38.19,7.71,1.22,7.71,1.21,-1.18,-1.30,-1.83,6.52,6.52,6.49
38.57,7.70,1.18,7.70,1.17,-1.16,-1.27,-1.77,6.54,6.54,6.52
38.95,7.69,1.11,7.69,1.13,-1.14,-1.24,-1.72,6.55,6.55,6.58
39.34,7.68,1.09,7.68,1.09,-1.12,-1.20,-1.67,6.56,6.56,6.59
39.74,7.67,1.08,7.67,1.07,-1.10,-1.17,-1.62,6.57,6.57,6.59
40.14,7.66,1.07,7.66,1.07,-1.08,-1.14,-1.57,6.58,6.57,6.59
40.54,7.65,1.06,7.65,1.06,-1.07,-1.11,-1.52,6.58,6.58,6.59
40.94,7.63,1.04,7.63,1.05,-1.04,-1.08,-1.47,6.59,6.59,6.59
41.35,7.62,1.03,7.62,1.03,-1.01,-1.05,-1.42,6.61,6.61,6.59
41.76,7.60,1.01,7.60,1.00,-0.96,-1.02,-1.37,6.64,6.64,6.59
42.18,7.59,0.95,7.59,0.95,-0.89,-0.99,-1.33,6.69,6.69,6.64
42.60,7.57,0.86,7.57,0.87,-0.82,-0.96,-1.28,6.75,6.75,6.71
43.03,7.56,0.78,7.56,0.75,-0.75,-0.93,-1.23,6.81,6.81,6.78
43.46,7.54,0.63,7.54,0.65,-0.68,-0.90,-1.19,6.86,6.86,6.91
43.90,7.53,0.54,7.53,0.56,-0.63,-0.88,-1.14,6.90,6.90,6.99
44.33,7.52,0.53,7.52,0.52,-0.59,-0.85,-1.10,6.93,6.93,6.99
44.78,7.51,0.52,7.51,0.52,-0.58,-0.82,-1.06,6.93,6.93,6.99
45.23,7.50,0.54,7.50,0.56,-0.57,-0.79,-1.02,6.93,6.93,6.96
45.68,7.49,0.60,7.49,0.60,-0.58,-0.76,-0.98,6.92,6.92,6.89
46.13,7.48,0.67,7.48,0.65,-0.59,-0.73,-0.94,6.90,6.90,6.82
46.60,7.47,0.68,7.47,0.67,-0.60,-0.71,-0.90,6.88,6.88,6.79
47.06,7.46,0.66,7.46,0.64,-0.60,-0.68,-0.86,6.85,6.85,6.80
47.53,7.44,0.57,7.44,0.58,-0.60,-0.65,-0.82,6.84,6.84,6.87
48.01,7.42,0.53,7.42,0.55,-0.60,-0.63,-0.79,6.82,6.82,6.89
48.49,7.40,0.52,7.40,0.53,-0.58,-0.60,-0.75,6.82,6.82,6.88
48.97,7.38,0.57,7.38,0.55,-0.56,-0.57,-0.72,6.81,6.82,6.81
49.46,7.36,0.57,7.36,0.56,-0.54,-0.55,-0.68,6.82,6.82,6.79
49.96,7.35,0.56,7.35,0.56,-0.53,-0.52,-0.65,6.82,6.82,6.79
50.46,7.33,0.54,7.33,0.54,-0.52,-0.49,-0.62,6.81,6.81,6.79
50.96,7.31,0.52,7.31,0.52,-0.51,-0.47,-0.59,6.80,6.80,6.79
51.47,7.29,0.50,7.29,0.49,-0.50,-0.44,-0.56,6.79,6.79,6.79
51.99,7.26,0.47,7.26,0.47,-0.49,-0.42,-0.53,6.78,6.78,6.79
52.51,7.24,0.45,7.24,0.46,-0.48,-0.39,-0.50,6.76,6.76,6.79
53.03,7.22,0.46,7.22,0.47,-0.48,-0.37,-0.47,6.74,6.74,6.76
53.56,7.19,0.50,7.19,0.48,-0.49,-0.34,-0.44,6.71,6.71,6.69
54.10,7.17,0.48,7.17,0.49,-0.50,-0.32,-0.41,6.67,6.67,6.69
54.64,7.15,0.50,7.15,0.52,-0.52,-0.29,-0.38,6.63,6.63,6.65
55.18,7.12,0.54,7.12,0.54,-0.54,-0.27,-0.35,6.58,6.58,6.58
55.74,7.10,0.59,7.10,0.58,-0.56,-0.24,-0.33,6.54,6.54,6.51
56.29,7.08,0.59,7.08,0.59,-0.57,-0.22,-0.30,6.52,6.52,6.49
56.86,7.06,0.57,7.06,0.58,-0.56,-0.19,-0.27,6.50,6.50,6.49
57.42,7.04,0.55,7.04,0.55,-0.55,-0.17,-0.25,6.49,6.49,6.49
58.00,7.02,0.53,7.02,0.53,-0.52,-0.14,-0.22,6.49,6.49,6.49
58.58,6.99,0.50,6.99,0.50,-0.49,-0.12,-0.20,6.50,6.50,6.49
59.16,6.97,0.48,6.97,0.46,-0.46,-0.09,-0.17,6.52,6.52,6.49
59.76,6.95,0.39,6.95,0.40,-0.41,-0.07,-0.15,6.53,6.53,6.55
60.35,6.92,0.33,6.92,0.35,-0.37,-0.05,-0.12,6.55,6.55,6.59
60.96,6.90,0.31,6.90,0.30,-0.33,-0.02,-0.10,6.57,6.57,6.59
61.57,6.87,0.28,6.87,0.29,-0.28,0.00,-0.07,6.59,6.59,6.59
62.18,6.85,0.26,6.85,0.26,-0.23,0.03,-0.05,6.62,6.62,6.59
62.80,6.82,0.22,6.82,0.21,-0.19,0.05,-0.03,6.64,6.64,6.60
63.43,6.80,0.14,6.80,0.15,-0.15,0.08,-0.00,6.65,6.65,6.66
64.07,6.77,0.08,6.77,0.09,-0.12,0.10,0.02,6.66,6.66,6.69
64.71,6.75,0.05,6.75,0.05,-0.08,0.13,0.05,6.66,6.66,6.69
65.35,6.72,0.03,6.72,0.02,-0.04,0.15,0.07,6.68,6.68,6.69
66.01,6.69,-0.00,6.69,0.00,0.01,0.17,0.09,6.70,6.69,6.69
66.67,6.65,-0.04,6.65,-0.03,0.07,0.20,0.12,6.72,6.72,6.69
67.33,6.62,-0.07,6.62,-0.08,0.13,0.22,0.14,6.75,6.75,6.69
68.01,6.59,-0.16,6.59,-0.16,0.20,0.25,0.17,6.79,6.79,6.75
68.69,6.56,-0.26,6.56,-0.26,0.27,0.27,0.19,6.83,6.83,6.82
69.37,6.53,-0.36,6.53,-0.36,0.35,0.30,0.22,6.88,6.88,6.89
70.07,6.50,-0.46,6.50,-0.45,0.43,0.33,0.24,6.93,6.93,6.96
70.77,6.47,-0.52,6.47,-0.51,0.50,0.35,0.27,6.97,6.97,6.99
71.48,6.44,-0.55,6.44,-0.56,0.54,0.38,0.29,6.98,6.98,6.99
72.19,6.41,-0.58,6.41,-0.59,0.56,0.40,0.32,6.97,6.97,6.99
72.91,6.38,-0.61,6.38,-0.61,0.55,0.43,0.34,6.93,6.93,6.99
73.64,6.35,-0.62,6.35,-0.59,0.53,0.46,0.37,6.88,6.88,6.96
74.38,6.31,-0.52,6.31,-0.51,0.51,0.48,0.40,6.82,6.82,6.83
75.12,6.28,-0.42,6.28,-0.43,0.48,0.51,0.42,6.76,6.76,6.69
75.87,6.24,-0.35,6.24,-0.38,0.46,0.54,0.45,6.70,6.70,6.59
76.63,6.21,-0.38,6.21,-0.37,0.44,0.57,0.48,6.64,6.64,6.59
77.40,6.17,-0.42,6.18,-0.41,0.42,0.60,0.51,6.60,6.60,6.59
78.17,6.14,-0.45,6.14,-0.45,0.42,0.62,0.54,6.56,6.56,6.59
78.95,6.11,-0.48,6.11,-0.46,0.42,0.65,0.56,6.53,6.53,6.59
79.74,6.07,-0.46,6.07,-0.47,0.43,0.68,0.59,6.50,6.50,6.53
80.54,6.03,-0.46,6.03,-0.48,0.45,0.72,0.63,6.48,6.48,6.49
81.35,5.99,-0.50,5.99,-0.47,0.47,0.75,0.66,6.46,6.46,6.49
82.16,5.95,-0.48,5.95,-0.48,0.50,0.78,0.69,6.45,6.45,6.43
82.98,5.91,-0.48,5.91,-0.49,0.54,0.81,0.72,6.45,6.45,6.39
83.81,5.87,-0.52,5.87,-0.53,0.60,0.84,0.75,6.47,6.47,6.39
84.65,5.83,-0.63,5.83,-0.64,0.67,0.88,0.79,6.50,6.50,6.46
85.50,5.80,-0.77,5.80,-0.77,0.75,0.91,0.82,6.55,6.55,6.57
86.35,5.77,-0.92,5.77,-0.88,0.84,0.95,0.86,6.61,6.61,6.69
87.22,5.73,-0.96,5.73,-0.95,0.94,0.99,0.89,6.67,6.67,6.69
88.09,5.69,-1.00,5.69,-1.03,1.03,1.02,0.93,6.72,6.72,6.69
88.97,5.65,-1.08,5.65,-1.12,1.11,1.06,0.97,6.76,6.76,6.73
89.86,5.60,-1.27,5.60,-1.21,1.19,1.10,1.00,6.79,6.79,6.87
90.76,5.55,-1.28,5.55,-1.27,1.25,1.14,1.04,6.80,6.80,6.83
91.66,5.51,-1.28,5.51,-1.31,1.31,1.19,1.08,6.82,6.82,6.79
92.58,5.47,-1.32,5.47,-1.34,1.36,1.23,1.12,6.83,6.83,6.79
93.51,5.43,-1.42,5.43,-1.41,1.43,1.28,1.16,6.86,6.86,6.85
94.44,5.39,-1.50,5.39,-1.48,1.49,1.32,1.21,6.88,6.88,6.89
95.39,5.35,-1.54,5.35,-1.54,1.56,1.37,1.25,6.91,6.90,6.89
96.34,5.30,-1.59,5.30,-1.61,1.63,1.42,1.29,6.93,6.93,6.89
97.30,5.26,-1.67,5.26,-1.68,1.69,1.47,1.33,6.95,6.95,6.93
98.28,5.21,-1.78,5.21,-1.76,1.75,1.52,1.38,6.96,6.96,6.99
99.26,5.16,-1.83,5.16,-1.83,1.80,1.57,1.42,6.97,6.97,6.99
100.25,5.12,-1.87,5.12,-1.88,1.84,1.62,1.47,6.96,6.96,6.99
101.25,5.07,-1.91,5.07,-1.90,1.87,1.67,1.51,6.94,6.94,6.98
102.27,5.03,-1.90,5.03,-1.89,1.89,1.72,1.56,6.92,6.92,6.93
103.29,4.99,-1.87,4.99,-1.87,1.89,1.77,1.60,6.88,6.88,6.86
104.32,4.95,-1.84,4.95,-1.87,1.88,1.82,1.65,6.83,6.83,6.79
105.37,4.91,-1.88,4.91,-1.86,1.87,1.87,1.69,6.78,6.78,6.79
106.42,4.87,-1.88,4.87,-1.86,1.85,1.92,1.73,6.72,6.72,6.75
107.48,4.83,-1.84,4.82,-1.85,1.83,1.96,1.78,6.66,6.66,6.67
108.56,4.78,-1.84,4.78,-1.82,1.83,2.00,1.82,6.60,6.60,6.61
109.64,4.72,-1.80,4.72,-1.82,1.83,2.03,1.86,6.55,6.55,6.53
110.74,4.67,-1.82,4.67,-1.82,1.84,2.06,1.90,6.51,6.51,6.49
111.85,4.62,-1.87,4.62,-1.83,1.87,2.09,1.94,6.48,6.48,6.49
112.97,4.56,-1.83,4.56,-1.88,1.90,2.11,1.98,6.47,6.47,6.39
114.10,4.51,-1.93,4.51,-1.94,1.95,2.13,2.02,6.46,6.46,6.45
115.24,4.46,-2.03,4.46,-2.00,2.01,2.14,2.05,6.47,6.47,6.49
116.39,4.41,-2.08,4.41,-2.08,2.08,2.15,2.09,6.49,6.49,6.49
117.55,4.36,-2.13,4.36,-2.14,2.14,2.15,2.12,6.50,6.50,6.49
118.73,4.31,-2.18,4.31,-2.19,2.18,2.15,2.15,6.49,6.49,6.49
119.92,4.26,-2.23,4.26,-2.24,2.21,2.15,2.17,6.47,6.47,6.49
121.12,4.21,-2.28,4.21,-2.27,2.21,2.14,2.20,6.42,6.43,6.49
122.33,4.17,-2.28,4.17,-2.26,2.20,2.14,2.22,6.37,6.37,6.46
123.55,4.14,-2.20,4.14,-2.20,2.17,2.13,2.24,6.31,6.31,6.34
124.79,4.11,-2.10,4.12,-2.11,2.13,2.12,2.25,6.25,6.25,6.21
126.03,4.10,-2.04,4.10,-2.04,2.09,2.11,2.26,6.19,6.19,6.14
127.29,4.09,-2.00,4.09,-2.01,2.06,2.11,2.27,6.15,6.15,6.09
128.57,4.08,-2.01,4.08,-2.00,2.03,2.10,2.28,6.12,6.12,6.09
129.85,4.08,-2.02,4.08,-2.01,2.02,2.09,2.29,6.10,6.10,6.09
131.15,4.07,-2.02,4.07,-2.02,2.03,2.09,2.29,6.10,6.10,6.09
132.46,4.05,-2.04,4.05,-2.04,2.05,2.08,2.29,6.10,6.10,6.09
133.79,4.03,-2.06,4.03,-2.07,2.06,2.08,2.29,6.09,6.09,6.09
135.12,4.00,-2.09,4.00,-2.10,2.07,2.07,2.28,6.07,6.07,6.09
136.48,3.97,-2.12,3.97,-2.12,2.06,2.07,2.28,6.02,6.02,6.09
137.84,3.93,-2.12,3.93,-2.11,2.04,2.07,2.27,5.97,5.97,6.05
139.22,3.89,-2.08,3.89,-2.06,2.03,2.07,2.26,5.92,5.92,5.97
140.61,3.85,-1.98,3.85,-1.99,2.02,2.07,2.25,5.87,5.87,5.83
142.02,3.80,-1.93,3.81,-1.94,2.02,2.08,2.24,5.83,5.83,5.74
143.44,3.76,-1.93,3.76,-1.94,2.03,2.08,2.23,5.79,5.79,5.69
144.87,3.71,-1.98,3.71,-2.00,2.04,2.09,2.22,5.76,5.76,5.69
146.32,3.66,-2.09,3.66,-2.08,2.07,2.09,2.20,5.73,5.73,5.76
147.78,3.61,-2.18,3.61,-2.16,2.10,2.10,2.19,5.71,5.71,5.79
149.26,3.56,-2.21,3.56,-2.20,2.13,2.11,2.18,5.70,5.70,5.78
150.75,3.51,-2.19,3.51,-2.20,2.17,2.11,2.17,5.69,5.69,5.70
152.26,3.46,-2.19,3.46,-2.19,2.21,2.12,2.15,5.67,5.67,5.65
153.78,3.41,-2.19,3.41,-2.20,2.23,2.13,2.14,5.64,5.64,5.60
155.32,3.36,-2.23,3.36,-2.21,2.24,2.14,2.13,5.60,5.60,5.59
156.88,3.31,-2.24,3.31,-2.24,2.24,2.15,2.12,5.55,5.55,5.55
158.44,3.26,-2.23,3.26,-2.26,2.24,2.16,2.11,5.49,5.49,5.49
160.03,3.21,-2.28,3.21,-2.27,2.24,2.17,2.11,5.45,5.45,5.49
161.63,3.16,-2.28,3.16,-2.27,2.26,2.18,2.10,5.42,5.42,5.44
163.24,3.11,-2.27,3.11,-2.27,2.28,2.20,2.09,5.39,5.39,5.38
164.88,3.06,-2.24,3.06,-2.26,2.30,2.21,2.09,5.36,5.36,5.30
166.53,3.00,-2.29,3.00,-2.29,2.33,2.22,2.09,5.33,5.33,5.29
168.19,2.95,-2.34,2.95,-2.33,2.35,2.23,2.09,5.30,5.30,5.29
169.87,2.90,-2.39,2.90,-2.39,2.37,2.25,2.09,5.27,5.27,5.29
171.57,2.85,-2.44,2.85,-2.43,2.38,2.26,2.09,5.24,5.24,5.29
173.29,2.80,-2.44,2.80,-2.44,2.40,2.27,2.09,5.20,5.20,5.25
175.02,2.75,-2.44,2.75,-2.43,2.41,2.29,2.10,5.16,5.16,5.19
176.77,2.70,-2.40,2.70,-2.40,2.41,2.30,2.10,5.12,5.12,5.10
178.54,2.66,-2.38,2.66,-2.39,2.41,2.31,2.11,5.07,5.07,5.04
180.32,2.61,-2.38,2.61,-2.39,2.41,2.33,2.12,5.02,5.02,4.99
182.13,2.57,-2.42,2.57,-2.40,2.41,2.34,2.13,4.98,4.98,4.99
183.95,2.52,-2.42,2.52,-2.41,2.43,2.35,2.15,4.95,4.95,4.94
185.79,2.48,-2.41,2.48,-2.43,2.45,2.36,2.16,4.93,4.93,4.89
187.65,2.44,-2.45,2.44,-2.44,2.48,2.38,2.18,4.92,4.92,4.89
189.52,2.40,-2.49,2.40,-2.51,2.50,2.39,2.20,4.90,4.90,4.89
191.42,2.36,-2.55,2.36,-2.57,2.52,2.40,2.22,4.88,4.88,4.90
193.33,2.31,-2.65,2.31,-2.60,2.54,2.42,2.24,4.85,4.85,4.97
195.27,2.27,-2.59,2.27,-2.58,2.56,2.43,2.26,4.83,4.83,4.86
197.22,2.23,-2.52,2.23,-2.55,2.57,2.44,2.28,4.80,4.80,4.75
199.19,2.19,-2.50,2.19,-2.52,2.58,2.45,2.31,4.77,4.77,4.69
201.18,2.14,-2.55,2.14,-2.55,2.59,2.47,2.33,4.73,4.73,4.69
203.19,2.09,-2.60,2.09,-2.59,2.59,2.48,2.36,4.68,4.68,4.69
205.23,2.05,-2.63,2.05,-2.62,2.59,2.49,2.39,4.64,4.64,4.68
207.28,2.00,-2.61,2.00,-2.61,2.59,2.50,2.41,4.59,4.59,4.61
209.35,1.95,-2.59,1.95,-2.61,2.59,2.51,2.44,4.54,4.54,4.55
211.44,1.90,-2.59,1.90,-2.60,2.59,2.52,2.47,4.49,4.49,4.49
213.56,1.85,-2.64,1.85,-2.59,2.59,2.53,2.50,4.45,4.45,4.49
215.69,1.81,-2.57,1.81,-2.57,2.59,2.55,2.53,4.40,4.40,4.38
217.85,1.76,-2.53,1.76,-2.57,2.60,2.56,2.55,4.36,4.36,4.29
220.03,1.71,-2.58,1.71,-2.57,2.61,2.57,2.58,4.32,4.32,4.29
222.23,1.67,-2.62,1.67,-2.62,2.62,2.57,2.61,4.29,4.29,4.29
224.45,1.63,-2.66,1.63,-2.66,2.64,2.58,2.63,4.27,4.27,4.29
226.70,1.58,-2.71,1.58,-2.68,2.66,2.59,2.65,4.24,4.24,4.29
228.96,1.54,-2.68,1.54,-2.70,2.68,2.60,2.68,4.22,4.22,4.22
231.25,1.50,-2.69,1.50,-2.70,2.70,2.61,2.70,4.20,4.20,4.19
233.57,1.46,-2.73,1.46,-2.70,2.71,2.62,2.72,4.17,4.17,4.19
235.90,1.43,-2.70,1.42,-2.71,2.72,2.63,2.73,4.14,4.14,4.13
238.26,1.38,-2.71,1.38,-2.71,2.72,2.63,2.75,4.11,4.11,4.09
240.64,1.34,-2.73,1.34,-2.71,2.73,2.64,2.76,4.07,4.07,4.07
243.05,1.30,-2.71,1.30,-2.73,2.73,2.65,2.77,4.03,4.03,4.01
245.48,1.26,-2.73,1.26,-2.74,2.73,2.65,2.77,3.99,3.99,3.99
247.93,1.22,-2.75,1.22,-2.74,2.72,2.66,2.77,3.93,3.93,3.97
250.41,1.17,-2.73,1.17,-2.73,2.70,2.66,2.77,3.88,3.88,3.90
252.92,1.13,-2.71,1.13,-2.71,2.69,2.67,2.77,3.82,3.82,3.84
255.45,1.09,-2.69,1.09,-2.68,2.68,2.67,2.76,3.77,3.77,3.78
258.00,1.05,-2.64,1.05,-2.64,2.67,2.68,2.76,3.72,3.72,3.69
260.58,1.01,-2.62,1.01,-2.63,2.67,2.68,2.75,3.68,3.68,3.63
263.19,0.97,-2.62,0.97,-2.63,2.68,2.68,2.73,3.64,3.64,3.59
265.82,0.93,-2.66,0.93,-2.66,2.69,2.69,2.72,3.61,3.61,3.59
268.48,0.88,-2.71,0.88,-2.71,2.70,2.69,2.70,3.58,3.58,3.59
271.16,0.84,-2.75,0.84,-2.75,2.71,2.69,2.68,3.55,3.55,3.59
273.87,0.80,-2.79,0.80,-2.77,2.72,2.69,2.65,3.53,3.53,3.59
276.61,0.76,-2.76,0.76,-2.76,2.73,2.69,2.63,3.50,3.49,3.52
279.38,0.72,-2.73,0.72,-2.74,2.73,2.69,2.60,3.46,3.46,3.46
282.17,0.68,-2.70,0.68,-2.70,2.73,2.69,2.58,3.41,3.41,3.39
284.99,0.64,-2.67,0.64,-2.69,2.71,2.69,2.55,3.36,3.36,3.32
287.84,0.61,-2.69,0.61,-2.69,2.69,2.69,2.52,3.30,3.30,3.29
290.72,0.57,-2.70,0.57,-2.68,2.68,2.69,2.49,3.25,3.25,3.27
293.63,0.53,-2.67,0.53,-2.67,2.67,2.69,2.46,3.20,3.20,3.20
296.57,0.49,-2.63,0.49,-2.65,2.66,2.69,2.43,3.15,3.15,3.13
299.53,0.45,-2.64,0.45,-2.65,2.65,2.69,2.40,3.10,3.10,3.09
302.53,0.42,-2.67,0.42,-2.65,2.64,2.68,2.37,3.06,3.06,3.09
305.55,0.38,-2.65,0.38,-2.64,2.63,2.68,2.34,3.01,3.01,3.03
308.61,0.34,-2.61,0.34,-2.62,2.63,2.68,2.31,2.97,2.97,2.96
311.69,0.31,-2.59,0.31,-2.61,2.63,2.67,2.28,2.94,2.94,2.90
314.81,0.27,-2.62,0.27,-2.60,2.63,2.67,2.26,2.90,2.90,2.89
317.96,0.24,-2.61,0.24,-2.61,2.62,2.66,2.23,2.86,2.86,2.85
321.14,0.20,-2.59,0.20,-2.62,2.61,2.65,2.21,2.81,2.81,2.79
324.35,0.17,-2.62,0.17,-2.62,2.58,2.65,2.18,2.74,2.74,2.79
327.59,0.13,-2.61,0.13,-2.60,2.54,2.64,2.16,2.67,2.67,2.74
330.87,0.09,-2.56,0.09,-2.55,2.49,2.63,2.14,2.59,2.59,2.66
334.18,0.06,-2.46,0.06,-2.46,2.44,2.62,2.12,2.50,2.50,2.52
337.52,0.03,-2.36,0.03,-2.37,2.40,2.62,2.10,2.42,2.42,2.39
340.90,-0.01,-2.28,-0.01,-2.29,2.36,2.61,2.08,2.35,2.35,2.27
344.30,-0.04,-2.24,-0.04,-2.26,2.32,2.60,2.07,2.28,2.28,2.20
347.75,-0.07,-2.26,-0.07,-2.26,2.30,2.59,2.05,2.22,2.22,2.19
351.23,-0.11,-2.30,-0.11,-2.29,2.29,2.58,2.04,2.18,2.18,2.19
354.74,-0.14,-2.33,-0.14,-2.33,2.30,2.57,2.03,2.16,2.16,2.19
358.28,-0.17,-2.36,-0.17,-2.35,2.32,2.56,2.02,2.15,2.15,2.19
361.87,-0.20,-2.36,-0.20,-2.35,2.34,2.54,2.01,2.14,2.14,2.15
365.49,-0.24,-2.33,-0.24,-2.35,2.37,2.53,2.01,2.13,2.13,2.09
369.14,-0.27,-2.36,-0.27,-2.36,2.38,2.52,2.00,2.11,2.11,2.09
372.83,-0.30,-2.39,-0.30,-2.38,2.37,2.51,2.00,2.08,2.08,2.09
376.56,-0.33,-2.41,-0.33,-2.39,2.36,2.49,2.00,2.03,2.03,2.08
380.33,-0.36,-2.38,-0.36,-2.38,2.34,2.48,2.00,1.98,1.98,2.02
384.13,-0.39,-2.33,-0.39,-2.34,2.32,2.46,2.00,1.93,1.93,1.95
387.97,-0.42,-2.29,-0.42,-2.29,2.29,2.45,2.01,1.87,1.87,1.87
391.85,-0.45,-2.25,-0.45,-2.25,2.27,2.43,2.01,1.82,1.82,1.81
395.77,-0.47,-2.21,-0.47,-2.21,2.25,2.42,2.02,1.78,1.78,1.73
399.73,-0.50,-2.19,-0.50,-2.20,2.24,2.40,2.02,1.74,1.74,1.69
403.72,-0.53,-2.22,-0.53,-2.21,2.25,2.38,2.03,1.72,1.72,1.69
407.76,-0.56,-2.25,-0.56,-2.24,2.26,2.37,2.04,1.70,1.70,1.69
411.84,-0.58,-2.27,-0.58,-2.28,2.27,2.35,2.04,1.69,1.69,1.69
415.96,-0.61,-2.30,-0.61,-2.30,2.28,2.33,2.05,1.67,1.67,1.69
420.12,-0.64,-2.33,-0.64,-2.32,2.28,2.31,2.06,1.64,1.64,1.69
424.32,-0.66,-2.31,-0.66,-2.31,2.26,2.29,2.07,1.60,1.60,1.65
428.56,-0.69,-2.27,-0.69,-2.27,2.23,2.27,2.08,1.54,1.54,1.58
432.85,-0.71,-2.22,-0.71,-2.21,2.19,2.25,2.09,1.48,1.48,1.51
437.18,-0.74,-2.14,-0.74,-2.13,2.15,2.23,2.10,1.41,1.41,1.40
441.55,-0.76,-2.04,-0.76,-2.05,2.10,2.21,2.11,1.34,1.34,1.28
445.96,-0.78,-1.99,-0.78,-2.01,2.07,2.19,2.12,1.28,1.28,1.21
450.42,-0.81,-2.00,-0.81,-2.00,2.04,2.17,2.12,1.23,1.23,1.19
454.93,-0.83,-2.02,-0.83,-2.02,2.02,2.15,2.13,1.19,1.19,1.19
459.48,-0.85,-2.04,-0.85,-2.02,2.00,2.13,2.13,1.15,1.15,1.19
464.07,-0.88,-2.01,-0.88,-2.02,2.00,2.11,2.13,1.12,1.12,1.13
468.71,-0.90,-1.99,-0.90,-2.01,1.98,2.08,2.13,1.09,1.09,1.09
473.40,-0.92,-2.01,-0.92,-1.99,1.97,2.06,2.13,1.05,1.05,1.09
478.13,-0.94,-1.97,-0.94,-1.97,1.95,2.04,2.13,1.01,1.01,1.03
482.91,-0.96,-1.93,-0.96,-1.93,1.93,2.01,2.12,0.96,0.96,0.96
487.74,-0.99,-1.88,-0.99,-1.87,1.90,1.99,2.11,0.92,0.92,0.89
492.62,-1.01,-1.83,-1.01,-1.84,1.88,1.97,2.10,0.88,0.88,0.82
497.55,-1.02,-1.81,-1.02,-1.83,1.86,1.94,2.09,0.83,0.83,0.79
502.52,-1.04,-1.83,-1.04,-1.83,1.83,1.92,2.07,0.79,0.79,0.79
507.55,-1.06,-1.85,-1.06,-1.84,1.80,1.89,2.05,0.74,0.74,0.79
512.62,-1.08,-1.82,-1.08,-1.82,1.78,1.87,2.03,0.70,0.70,0.74
517.75,-1.10,-1.78,-1.10,-1.78,1.75,1.84,2.01,0.66,0.66,0.68
522.93,-1.11,-1.72,-1.11,-1.72,1.73,1.81,1.98,0.62,0.62,0.61
528.16,-1.13,-1.67,-1.13,-1.67,1.71,1.79,1.95,0.58,0.58,0.54
533.44,-1.15,-1.64,-1.15,-1.65,1.69,1.76,1.92,0.54,0.54,0.49
538.77,-1.16,-1.65,-1.16,-1.65,1.66,1.73,1.89,0.50,0.50,0.49
544.16,-1.18,-1.67,-1.18,-1.65,1.64,1.71,1.85,0.46,0.46,0.49
549.60,-1.19,-1.65,-1.19,-1.64,1.63,1.68,1.82,0.43,0.43,0.46
555.10,-1.21,-1.60,-1.21,-1.63,1.62,1.65,1.78,0.41,0.41,0.39
560.65,-1.22,-1.61,-1.22,-1.60,1.60,1.62,1.74,0.38,0.38,0.39
