frequency,raw,error,smoothed,error_smoothed,equalization,parametric_eq,fixed_band_eq,equalized_raw,equalized_smoothed,target
20.00,6.31,-7.02,6.31,-7.05,6.00,5.49,2.54,12.31,12.31,13.33
20.20,6.36,-6.79,6.36,-6.77,6.00,5.72,2.61,12.36,12.36,13.15
20.40,6.41,-6.57,6.41,-6.54,6.00,5.96,2.69,12.41,12.41,12.98
20.61,6.47,-6.36,6.47,-6.37,6.00,6.13,2.77,12.47,12.47,12.82
20.81,6.52,-6.22,6.52,-6.22,6.00,6.30,2.85,12.52,12.52,12.73
21.02,6.57,-6.16,6.57,-6.16,6.00,6.35,2.93,12.57,12.57,12.73
21.23,6.62,-6.18,6.62,-6.20,6.00,6.40,3.01,12.62,12.62,12.80
21.44,6.67,-6.32,6.67,-6.32,6.00,6.34,3.10,12.67,12.67,12.99
21.66,6.72,-6.52,6.72,-6.51,6.00,6.27,3.19,12.72,12.72,13.24
21.87,6.77,-6.72,6.77,-6.71,6.00,6.14,3.29,12.77,12.77,13.49
22.09,6.82,-6.88,6.82,-6.88,6.01,6.02,3.38,12.83,12.83,13.70
22.31,6.87,-6.99,6.87,-6.98,6.03,5.89,3.48,12.90,12.90,13.86
22.54,6.92,-7.00,6.92,-7.00,6.04,5.77,3.58,12.96,12.96,13.92
22.76,6.97,-6.92,6.97,-6.91,6.02,5.67,3.68,12.99,12.99,13.89
22.99,7.02,-6.73,7.02,-6.71,5.97,5.57,3.79,13.00,13.00,13.75
23.22,7.07,-6.44,7.07,-6.44,5.91,5.50,3.89,12.98,12.98,13.51
23.45,7.12,-6.13,7.12,-6.13,5.83,5.43,4.00,12.95,12.95,13.25
23.69,7.17,-5.84,7.17,-5.84,5.75,5.39,4.12,12.92,12.92,13.01
23.92,7.22,-5.60,7.22,-5.61,5.69,5.35,4.23,12.90,12.90,12.81
24.16,7.26,-5.46,7.26,-5.47,5.63,5.33,4.35,12.90,12.90,12.72
24.40,7.31,-5.43,7.31,-5.44,5.60,5.31,4.47,12.91,12.91,12.75
24.65,7.36,-5.49,7.36,-5.49,5.59,5.31,4.59,12.95,12.95,12.85
24.89,7.41,-5.59,7.41,-5.58,5.59,5.30,4.71,13.00,13.00,12.99
25.14,7.45,-5.68,7.45,-5.68,5.61,5.31,4.83,13.06,13.06,13.13
25.39,7.50,-5.75,7.50,-5.74,5.63,5.32,4.96,13.13,13.13,13.25
25.65,7.54,-5.75,7.54,-5.75,5.65,5.33,5.08,13.19,13.19,13.29
25.91,7.59,-5.71,7.59,-5.71,5.64,5.34,5.21,13.23,13.23,13.30
26.16,7.63,-5.63,7.63,-5.63,5.61,5.36,5.33,13.24,13.24,13.26
26.43,7.67,-5.53,7.67,-5.53,5.55,5.37,5.46,13.22,13.22,13.20
26.69,7.72,-5.44,7.72,-5.44,5.48,5.39,5.58,13.20,13.20,13.15
26.96,7.76,-5.36,7.76,-5.36,5.41,5.41,5.70,13.17,13.17,13.12
27.23,7.80,-5.31,7.80,-5.31,5.35,5.43,5.82,13.15,13.15,13.11
27.50,7.84,-5.28,7.84,-5.28,5.30,5.45,5.93,13.14,13.14,13.13
27.77,7.88,-5.27,7.88,-5.27,5.27,5.47,6.04,13.15,13.15,13.15
28.05,7.92,-5.27,7.92,-5.27,5.25,5.49,6.15,13.17,13.17,13.19
28.33,7.96,-5.26,7.96,-5.26,5.24,5.50,6.24,13.20,13.20,13.22
28.62,8.00,-5.25,8.00,-5.25,5.24,5.52,6.34,13.24,13.24,13.25
28.90,8.04,-5.24,8.04,-5.25,5.26,5.53,6.42,13.29,13.29,13.28
29.19,8.08,-5.25,8.08,-5.25,5.28,5.54,6.50,13.35,13.35,13.33
29.48,8.11,-5.26,8.11,-5.27,5.30,5.55,6.56,13.42,13.42,13.38
29.78,8.15,-5.30,8.15,-5.30,5.33,5.56,6.62,13.48,13.48,13.45
30.08,8.19,-5.34,8.19,-5.35,5.35,5.56,6.67,13.54,13.54,13.53
30.38,8.22,-5.39,8.22,-5.39,5.36,5.57,6.71,13.58,13.58,13.61
30.68,8.26,-5.41,8.26,-5.40,5.35,5.57,6.73,13.61,13.61,13.67
30.99,8.29,-5.39,8.29,-5.39,5.33,5.56,6.74,13.62,13.62,13.68
31.30,8.33,-5.34,8.33,-5.34,5.29,5.56,6.74,13.61,13.61,13.67
31.61,8.36,-5.26,8.36,-5.26,5.23,5.55,6.73,13.59,13.59,13.62
31.93,8.40,-5.16,8.40,-5.16,5.17,5.54,6.70,13.57,13.57,13.55
32.24,8.43,-5.07,8.43,-5.07,5.11,5.52,6.67,13.54,13.54,13.50
32.57,8.46,-5.00,8.46,-5.01,5.06,5.51,6.62,13.52,13.52,13.46
32.89,8.49,-4.97,8.49,-4.98,5.03,5.49,6.56,13.52,13.52,13.47
33.22,8.53,-4.99,8.53,-4.98,5.01,5.46,6.49,13.54,13.54,13.51
33.55,8.56,-5.02,8.56,-5.02,5.02,5.43,6.41,13.57,13.57,13.57
33.89,8.59,-5.06,8.59,-5.06,5.04,5.40,6.32,13.63,13.63,13.65
34.23,8.62,-5.11,8.62,-5.10,5.08,5.37,6.23,13.70,13.70,13.72
34.57,8.65,-5.15,8.65,-5.15,5.14,5.33,6.12,13.79,13.79,13.79
34.92,8.68,-5.19,8.68,-5.19,5.20,5.29,6.01,13.88,13.88,13.86
35.27,8.71,-5.24,8.71,-5.25,5.26,5.25,5.89,13.97,13.97,13.95
35.62,8.73,-5.31,8.73,-5.31,5.32,5.20,5.77,14.06,14.06,14.04
35.97,8.76,-5.38,8.76,-5.38,5.38,5.15,5.65,14.14,14.14,14.14
36.33,8.79,-5.45,8.79,-5.44,5.43,5.10,5.52,14.22,14.22,14.23
36.70,8.81,-5.50,8.81,-5.50,5.47,5.04,5.39,14.29,14.29,14.31
37.06,8.84,-5.53,8.84,-5.52,5.51,4.99,5.26,14.35,14.35,14.37
37.43,8.87,-5.53,8.87,-5.53,5.52,4.92,5.12,14.39,14.39,14.40
37.81,8.89,-5.52,8.89,-5.52,5.53,4.86,4.99,14.42,14.42,14.41
38.19,8.91,-5.50,8.91,-5.50,5.51,4.79,4.85,14.43,14.43,14.41
38.57,8.94,-5.47,8.94,-5.46,5.48,4.72,4.71,14.41,14.41,14.40
38.95,8.96,-5.42,8.96,-5.42,5.42,4.65,4.58,14.38,14.38,14.38
39.34,8.98,-5.36,8.98,-5.36,5.34,4.58,4.45,14.32,14.32,14.34
39.74,9.01,-5.27,9.01,-5.27,5.24,4.50,4.31,14.24,14.24,14.28
40.14,9.03,-5.15,9.03,-5.15,5.12,4.42,4.18,14.14,14.14,14.18
40.54,9.05,-5.00,9.05,-5.00,4.98,4.34,4.05,14.03,14.03,14.05
40.94,9.07,-4.82,9.07,-4.83,4.83,4.25,3.92,13.89,13.89,13.89
41.35,9.09,-4.64,9.09,-4.65,4.66,4.17,3.80,13.75,13.75,13.73
41.76,9.11,-4.46,9.11,-4.47,4.49,4.08,3.67,13.60,13.60,13.57
42.18,9.13,-4.29,9.13,-4.29,4.32,3.99,3.55,13.45,13.45,13.42
42.60,9.14,-4.13,9.14,-4.13,4.14,3.90,3.43,13.29,13.29,13.28
43.03,9.16,-3.98,9.16,-3.98,3.97,3.81,3.31,13.13,13.13,13.14
43.46,9.18,-3.83,9.18,-3.82,3.80,3.72,3.20,12.98,12.98,13.01
43.90,9.19,-3.66,9.20,-3.66,3.64,3.62,3.08,12.83,12.83,12.86
44.33,9.21,-3.49,9.21,-3.49,3.49,3.53,2.97,12.70,12.70,12.70
44.78,9.23,-3.32,9.23,-3.32,3.34,3.43,2.87,12.57,12.57,12.54
45.23,9.24,-3.17,9.24,-3.17,3.21,3.33,2.76,12.45,12.45,12.41
45.68,9.26,-3.05,9.26,-3.06,3.09,3.23,2.65,12.35,12.35,12.31
46.13,9.27,-2.96,9.27,-2.96,2.98,3.13,2.55,12.25,12.25,12.23
46.60,9.28,-2.88,9.28,-2.88,2.88,3.03,2.45,12.16,12.16,12.17
47.06,9.29,-2.80,9.30,-2.80,2.78,2.93,2.36,12.07,12.07,12.09
47.53,9.31,-2.70,9.31,-2.70,2.67,2.83,2.26,11.98,11.98,12.01
48.01,9.32,-2.59,9.32,-2.59,2.56,2.73,2.17,11.87,11.87,11.91
48.49,9.33,-2.47,9.33,-2.47,2.43,2.62,2.08,11.76,11.76,11.80
48.97,9.34,-2.33,9.34,-2.32,2.30,2.52,1.99,11.64,11.64,11.67
49.46,9.35,-2.16,9.35,-2.16,2.16,2.42,1.90,11.51,11.51,11.51
49.96,9.36,-2.00,9.36,-2.01,2.03,2.31,1.81,11.39,11.39,11.36
50.46,9.37,-1.87,9.37,-1.87,1.91,2.21,1.73,11.27,11.27,11.23
50.96,9.38,-1.75,9.38,-1.75,1.80,2.11,1.65,11.17,11.17,11.13
51.47,9.38,-1.66,9.38,-1.66,1.70,2.01,1.57,11.08,11.08,11.05
51.99,9.39,-1.59,9.39,-1.59,1.60,1.90,1.49,10.99,10.99,10.98
52.51,9.40,-1.54,9.40,-1.54,1.52,1.80,1.41,10.92,10.92,10.93
53.03,9.40,-1.49,9.40,-1.48,1.44,1.70,1.34,10.84,10.84,10.89
53.56,9.41,-1.42,9.41,-1.41,1.37,1.60,1.26,10.78,10.78,10.83
54.10,9.41,-1.33,9.41,-1.31,1.30,1.50,1.19,10.72,10.72,10.74
54.64,9.42,-1.20,9.42,-1.20,1.24,1.40,1.12,10.66,10.66,10.62
55.18,9.42,-1.09,9.42,-1.11,1.17,1.30,1.05,10.60,10.60,10.51
55.74,9.43,-1.05,9.43,-1.06,1.10,1.20,0.99,10.53,10.53,10.48
56.29,9.43,-1.03,9.43,-1.04,1.02,1.11,0.92,10.45,10.45,10.46
56.86,9.43,-1.03,9.43,-1.01,0.94,1.01,0.86,10.37,10.37,10.46
57.42,9.43,-0.94,9.43,-0.93,0.86,0.92,0.79,10.29,10.29,10.37
58.00,9.43,-0.82,9.43,-0.81,0.79,0.82,0.73,10.23,10.23,10.25
58.58,9.43,-0.67,9.43,-0.67,0.73,0.73,0.67,10.16,10.16,10.10
59.16,9.43,-0.54,9.43,-0.57,0.65,0.64,0.61,10.08,10.08,9.98
59.76,9.43,-0.51,9.43,-0.51,0.56,0.55,0.56,9.99,9.99,9.94
60.35,9.43,-0.48,9.43,-0.48,0.45,0.47,0.50,9.88,9.88,9.91
60.96,9.43,-0.46,9.43,-0.44,0.35,0.38,0.44,9.78,9.78,9.88
61.57,9.43,-0.36,9.43,-0.34,0.25,0.30,0.39,9.68,9.68,9.78
62.18,9.42,-0.19,9.42,-0.19,0.16,0.22,0.34,9.59,9.59,9.61
62.80,9.42,-0.02,9.42,-0.04,0.09,0.14,0.29,9.51,9.51,9.44
63.43,9.41,0.08,9.41,0.08,0.02,0.06,0.24,9.43,9.43,9.33
64.07,9.41,0.15,9.41,0.13,-0.04,-0.02,0.19,9.37,9.37,9.26
64.71,9.40,0.13,9.40,0.14,-0.09,-0.09,0.14,9.31,9.31,9.27
65.35,9.40,0.12,9.40,0.13,-0.14,-0.16,0.09,9.26,9.26,9.28
66.01,9.39,0.11,9.39,0.12,-0.17,-0.24,0.05,9.22,9.22,9.28
66.67,9.38,0.15,9.38,0.15,-0.22,-0.30,0.00,9.17,9.17,9.23
67.33,9.37,0.20,9.37,0.20,-0.27,-0.37,-0.04,9.10,9.10,9.17
68.01,9.37,0.28,9.37,0.29,-0.34,-0.44,-0.09,9.03,9.03,9.08
68.69,9.36,0.41,9.36,0.41,-0.42,-0.50,-0.13,8.93,8.94,8.95
69.37,9.35,0.53,9.35,0.53,-0.51,-0.56,-0.18,8.84,8.84,8.81
70.07,9.34,0.66,9.34,0.65,-0.58,-0.62,-0.22,8.75,8.75,8.68
70.77,9.33,0.73,9.33,0.73,-0.65,-0.68,-0.26,8.68,8.68,8.59
71.48,9.32,0.76,9.32,0.76,-0.70,-0.74,-0.30,8.61,8.61,8.55
72.19,9.30,0.77,9.30,0.76,-0.74,-0.79,-0.35,8.56,8.56,8.54
72.91,9.29,0.75,9.29,0.76,-0.78,-0.84,-0.39,8.51,8.51,8.54
73.64,9.28,0.76,9.28,0.76,-0.81,-0.90,-0.43,8.47,8.47,8.52
74.38,9.26,0.78,9.26,0.79,-0.85,-0.95,-0.47,8.41,8.41,8.48
75.12,9.25,0.84,9.25,0.85,-0.90,-0.99,-0.52,8.35,8.35,8.41
75.87,9.24,0.95,9.24,0.95,-0.96,-1.04,-0.56,8.27,8.27,8.29
76.63,9.22,1.06,9.22,1.06,-1.04,-1.09,-0.60,8.19,8.19,8.16
77.40,9.21,1.17,9.21,1.16,-1.11,-1.13,-0.65,8.09,8.09,8.04
78.17,9.19,1.23,9.19,1.23,-1.19,-1.18,-0.69,7.99,7.99,7.96
78.95,9.17,1.29,9.17,1.29,-1.27,-1.22,-0.74,7.90,7.90,7.88
79.74,9.16,1.34,9.16,1.34,-1.35,-1.26,-0.78,7.81,7.81,7.82
80.54,9.14,1.39,9.14,1.39,-1.42,-1.31,-0.83,7.72,7.72,7.75
81.35,9.12,1.45,9.12,1.45,-1.48,-1.35,-0.88,7.64,7.64,7.67
82.16,9.10,1.51,9.10,1.51,-1.54,-1.39,-0.93,7.56,7.56,7.59
82.98,9.08,1.57,9.08,1.57,-1.58,-1.43,-0.98,7.50,7.50,7.51
83.81,9.06,1.63,9.06,1.63,-1.60,-1.46,-1.03,7.46,7.46,7.43
84.65,9.04,1.67,9.04,1.67,-1.60,-1.50,-1.08,7.44,7.44,7.37
85.50,9.02,1.68,9.02,1.67,-1.58,-1.54,-1.13,7.43,7.43,7.34
86.35,9.00,1.64,9.00,1.62,-1.55,-1.58,-1.18,7.44,7.44,7.35
87.22,8.97,1.54,8.97,1.54,-1.52,-1.61,-1.24,7.45,7.45,7.43
88.09,8.95,1.44,8.95,1.45,-1.50,-1.65,-1.29,7.45,7.45,7.51
88.97,8.92,1.39,8.92,1.39,-1.50,-1.69,-1.35,7.43,7.43,7.53
89.86,8.90,1.39,8.90,1.40,-1.53,-1.72,-1.40,7.37,7.37,7.51
90.76,8.88,1.49,8.88,1.49,-1.59,-1.76,-1.46,7.29,7.29,7.39
91.66,8.85,1.64,8.85,1.64,-1.67,-1.79,-1.52,7.18,7.18,7.21
92.58,8.82,1.81,8.82,1.81,-1.77,-1.83,-1.58,7.05,7.05,7.01
93.51,8.80,1.97,8.80,1.96,-1.88,-1.86,-1.64,6.91,6.91,6.82
94.44,8.77,2.09,8.77,2.08,-1.99,-1.90,-1.71,6.78,6.78,6.68
95.39,8.74,2.15,8.74,2.15,-2.08,-1.93,-1.77,6.67,6.67,6.59
96.34,8.72,2.17,8.72,2.17,-2.14,-1.96,-1.83,6.58,6.58,6.54
97.30,8.69,2.17,8.69,2.17,-2.18,-2.00,-1.90,6.51,6.51,6.52
98.28,8.66,2.17,8.66,2.17,-2.20,-2.03,-1.97,6.46,6.46,6.49
99.26,8.63,2.18,8.63,2.18,-2.22,-2.07,-2.03,6.41,6.41,6.45
100.25,8.60,2.20,8.60,2.21,-2.24,-2.10,-2.10,6.37,6.37,6.40
101.25,8.57,2.24,8.57,2.24,-2.26,-2.13,-2.17,6.31,6.31,6.33
102.27,8.54,2.29,8.54,2.28,-2.29,-2.17,-2.23,6.25,6.25,6.26
103.29,8.51,2.33,8.51,2.33,-2.33,-2.20,-2.30,6.18,6.18,6.18
104.32,8.48,2.39,8.48,2.38,-2.37,-2.23,-2.37,6.11,6.11,6.10
105.37,8.45,2.43,8.45,2.43,-2.42,-2.27,-2.44,6.03,6.03,6.02
106.42,8.42,2.48,8.42,2.48,-2.46,-2.30,-2.50,5.96,5.96,5.94
107.48,8.39,2.51,8.39,2.51,-2.51,-2.33,-2.57,5.88,5.88,5.87
108.56,8.36,2.55,8.36,2.55,-2.55,-2.36,-2.64,5.81,5.81,5.81
109.64,8.32,2.59,8.32,2.59,-2.59,-2.40,-2.70,5.73,5.73,5.74
110.74,8.29,2.63,8.29,2.63,-2.63,-2.43,-2.76,5.66,5.66,5.66
111.85,8.26,2.68,8.26,2.67,-2.68,-2.46,-2.82,5.58,5.58,5.58
112.97,8.22,2.72,8.22,2.72,-2.73,-2.49,-2.88,5.49,5.49,5.50
114.10,8.19,2.77,8.19,2.77,-2.79,-2.53,-2.94,5.40,5.40,5.42
115.24,8.15,2.83,8.15,2.83,-2.84,-2.56,-2.99,5.31,5.31,5.33
116.39,8.12,2.89,8.12,2.89,-2.90,-2.59,-3.04,5.22,5.22,5.23
117.55,8.08,2.95,8.08,2.95,-2.94,-2.62,-3.08,5.14,5.14,5.13
118.73,8.04,2.99,8.04,2.99,-2.97,-2.65,-3.13,5.08,5.08,5.05
119.92,8.01,3.02,8.01,3.02,-2.98,-2.68,-3.17,5.03,5.03,4.99
121.12,7.97,3.02,7.97,3.02,-2.97,-2.71,-3.20,5.00,5.00,4.94
122.33,7.93,3.00,7.93,2.99,-2.95,-2.74,-3.23,4.98,4.98,4.93
123.55,7.89,2.94,7.89,2.93,-2.92,-2.77,-3.26,4.97,4.97,4.96
124.79,7.85,2.87,7.85,2.87,-2.90,-2.80,-3.28,4.95,4.95,4.98
126.03,7.81,2.82,7.81,2.83,-2.89,-2.83,-3.31,4.92,4.92,5.00
127.29,7.77,2.81,7.77,2.82,-2.89,-2.86,-3.32,4.88,4.88,4.96
128.57,7.73,2.86,7.73,2.86,-2.90,-2.89,-3.33,4.83,4.83,4.87
129.85,7.69,2.93,7.69,2.92,-2.93,-2.92,-3.34,4.76,4.76,4.76
131.15,7.65,3.00,7.65,2.99,-2.97,-2.95,-3.34,4.68,4.68,4.65
132.46,7.60,3.05,7.60,3.04,-3.01,-2.97,-3.34,4.59,4.59,4.56
133.79,7.56,3.08,7.56,3.08,-3.05,-3.00,-3.34,4.51,4.51,4.48
135.12,7.52,3.11,7.52,3.11,-3.09,-3.03,-3.33,4.43,4.43,4.41
136.48,7.47,3.13,7.47,3.13,-3.11,-3.05,-3.32,4.36,4.36,4.34
137.84,7.42,3.14,7.42,3.13,-3.12,-3.08,-3.31,4.30,4.30,4.29
139.22,7.38,3.13,7.38,3.13,-3.14,-3.11,-3.30,4.24,4.24,4.25
140.61,7.33,3.13,7.33,3.13,-3.15,-3.13,-3.28,4.18,4.18,4.21
142.02,7.29,3.13,7.29,3.13,-3.17,-3.15,-3.26,4.12,4.12,4.15
143.44,7.24,3.15,7.24,3.16,-3.19,-3.18,-3.25,4.05,4.05,4.08
144.87,7.19,3.20,7.19,3.20,-3.21,-3.20,-3.23,3.98,3.98,3.99
146.32,7.14,3.24,7.14,3.24,-3.23,-3.22,-3.21,3.91,3.91,3.90
147.78,7.09,3.28,7.09,3.27,-3.25,-3.25,-3.19,3.84,3.84,3.81
149.26,7.04,3.29,7.04,3.29,-3.25,-3.27,-3.17,3.79,3.79,3.75
150.75,6.99,3.29,6.99,3.28,-3.25,-3.29,-3.15,3.74,3.74,3.70
152.26,6.94,3.26,6.94,3.25,-3.23,-3.31,-3.13,3.71,3.71,3.68
153.78,6.89,3.21,6.89,3.21,-3.21,-3.33,-3.11,3.68,3.68,3.68
155.32,6.84,3.16,6.84,3.17,-3.18,-3.35,-3.09,3.65,3.65,3.67
156.88,6.79,3.13,6.79,3.13,-3.16,-3.37,-3.08,3.62,3.62,3.66
158.44,6.73,3.12,6.73,3.12,-3.15,-3.38,-3.06,3.58,3.58,3.61
160.03,6.68,3.12,6.68,3.13,-3.15,-3.40,-3.05,3.53,3.53,3.56
161.63,6.63,3.15,6.63,3.15,-3.17,-3.42,-3.04,3.46,3.46,3.47
163.24,6.57,3.19,6.57,3.19,-3.19,-3.43,-3.03,3.38,3.38,3.39
164.88,6.52,3.23,6.52,3.23,-3.22,-3.45,-3.02,3.30,3.30,3.29
166.53,6.46,3.26,6.46,3.26,-3.25,-3.46,-3.02,3.21,3.21,3.20
168.19,6.40,3.29,6.41,3.29,-3.27,-3.47,-3.01,3.13,3.13,3.11
169.87,6.35,3.31,6.35,3.31,-3.28,-3.48,-3.01,3.06,3.06,3.04
171.57,6.29,3.31,6.29,3.31,-3.29,-3.50,-3.02,3.00,3.00,2.98
173.29,6.23,3.30,6.23,3.30,-3.28,-3.51,-3.02,2.95,2.95,2.93
175.02,6.17,3.27,6.17,3.27,-3.27,-3.51,-3.03,2.90,2.90,2.90
176.77,6.11,3.25,6.11,3.25,-3.26,-3.52,-3.03,2.85,2.85,2.86
178.54,6.05,3.23,6.05,3.23,-3.25,-3.53,-3.05,2.80,2.80,2.82
180.32,5.99,3.22,5.99,3.22,-3.24,-3.54,-3.06,2.74,2.74,2.77
182.13,5.92,3.22,5.92,3.22,-3.24,-3.54,-3.08,2.68,2.68,2.70
183.95,5.86,3.24,5.86,3.23,-3.25,-3.55,-3.10,2.61,2.61,2.62
185.79,5.80,3.25,5.80,3.26,-3.26,-3.55,-3.12,2.54,2.54,2.54
187.65,5.73,3.28,5.73,3.28,-3.27,-3.56,-3.14,2.46,2.46,2.45
189.52,5.67,3.30,5.67,3.30,-3.28,-3.56,-3.17,2.39,2.39,2.37
191.42,5.61,3.31,5.61,3.31,-3.28,-3.56,-3.19,2.32,2.32,2.30
193.33,5.55,3.30,5.55,3.30,-3.29,-3.56,-3.22,2.26,2.26,2.24
195.27,5.49,3.29,5.49,3.29,-3.29,-3.56,-3.25,2.20,2.20,2.20
197.22,5.43,3.27,5.43,3.27,-3.29,-3.56,-3.29,2.14,2.14,2.16
199.19,5.37,3.26,5.37,3.26,-3.28,-3.56,-3.32,2.09,2.09,2.11
201.18,5.32,3.27,5.32,3.27,-3.28,-3.55,-3.36,2.04,2.04,2.05
203.19,5.27,3.28,5.27,3.28,-3.28,-3.55,-3.39,2.00,2.00,1.99
205.23,5.23,3.29,5.23,3.29,-3.28,-3.54,-3.43,1.95,1.95,1.94
207.28,5.19,3.30,5.19,3.30,-3.29,-3.54,-3.47,1.90,1.90,1.89
209.35,5.16,3.30,5.16,3.30,-3.30,-3.53,-3.51,1.86,1.86,1.85
211.44,5.13,3.31,5.13,3.31,-3.32,-3.52,-3.55,1.81,1.81,1.82
213.56,5.11,3.32,5.11,3.33,-3.33,-3.51,-3.58,1.77,1.77,1.78
215.69,5.09,3.35,5.09,3.35,-3.36,-3.50,-3.62,1.74,1.73,1.74
217.85,5.07,3.37,5.08,3.38,-3.38,-3.49,-3.66,1.70,1.70,1.70
220.03,5.06,3.41,5.07,3.41,-3.41,-3.48,-3.69,1.66,1.66,1.66
222.23,5.06,3.44,5.06,3.44,-3.43,-3.46,-3.72,1.62,1.62,1.62
224.45,5.05,3.47,5.05,3.47,-3.47,-3.45,-3.75,1.59,1.59,1.58
226.70,5.05,3.50,5.05,3.50,-3.50,-3.43,-3.78,1.55,1.55,1.55
228.96,5.04,3.53,5.04,3.53,-3.53,-3.42,-3.81,1.51,1.51,1.51
231.25,5.03,3.56,5.03,3.56,-3.56,-3.40,-3.83,1.47,1.47,1.48
233.57,5.02,3.58,5.02,3.58,-3.58,-3.38,-3.84,1.44,1.44,1.44
235.90,5.01,3.60,5.01,3.60,-3.60,-3.36,-3.86,1.40,1.40,1.40
238.26,4.99,3.62,4.99,3.62,-3.62,-3.34,-3.86,1.37,1.37,1.37
240.64,4.97,3.64,4.97,3.64,-3.63,-3.32,-3.87,1.33,1.33,1.33
243.05,4.94,3.64,4.94,3.64,-3.64,-3.29,-3.86,1.30,1.30,1.30
245.48,4.91,3.64,4.91,3.64,-3.64,-3.27,-3.85,1.26,1.27,1.26
247.93,4.87,3.64,4.87,3.64,-3.64,-3.25,-3.84,1.24,1.24,1.23
250.41,4.83,3.63,4.83,3.63,-3.62,-3.22,-3.82,1.21,1.21,1.20
252.92,4.79,3.61,4.79,3.61,-3.60,-3.19,-3.80,1.18,1.18,1.18
255.45,4.74,3.58,4.74,3.58,-3.58,-3.17,-3.77,1.16,1.16,1.16
258.00,4.69,3.55,4.69,3.55,-3.55,-3.14,-3.73,1.14,1.14,1.14
260.58,4.64,3.52,4.64,3.52,-3.52,-3.11,-3.69,1.12,1.12,1.12
263.19,4.58,3.48,4.58,3.48,-3.48,-3.08,-3.64,1.10,1.10,1.10
265.82,4.52,3.44,4.52,3.44,-3.45,-3.05,-3.59,1.08,1.08,1.08
268.48,4.46,3.40,4.46,3.40,-3.41,-3.01,-3.53,1.06,1.06,1.06
271.16,4.40,3.36,4.40,3.36,-3.37,-2.98,-3.47,1.03,1.03,1.04
273.87,4.34,3.32,4.34,3.32,-3.32,-2.95,-3.40,1.01,1.01,1.01
276.61,4.27,3.28,4.27,3.28,-3.28,-2.91,-3.33,0.99,0.99,0.99
279.38,4.21,3.24,4.21,3.24,-3.23,-2.87,-3.26,0.98,0.98,0.97
282.17,4.15,3.19,4.15,3.19,-3.19,-2.84,-3.18,0.96,0.96,0.96
284.99,4.08,3.14,4.08,3.14,-3.13,-2.80,-3.10,0.95,0.95,0.94
287.84,4.02,3.08,4.02,3.08,-3.08,-2.76,-3.02,0.94,0.94,0.94
290.72,3.95,3.02,3.95,3.02,-3.02,-2.72,-2.93,0.93,0.93,0.93
293.63,3.89,2.96,3.89,2.96,-2.97,-2.68,-2.85,0.92,0.92,0.92
296.57,3.82,2.90,3.82,2.90,-2.91,-2.64,-2.76,0.91,0.91,0.92
299.53,3.76,2.84,3.76,2.85,-2.85,-2.60,-2.67,0.91,0.91,0.91
302.53,3.69,2.79,3.69,2.79,-2.79,-2.55,-2.58,0.91,0.91,0.91
305.55,3.63,2.73,3.63,2.73,-2.73,-2.51,-2.49,0.90,0.90,0.90
308.61,3.57,2.67,3.57,2.66,-2.66,-2.46,-2.40,0.90,0.90,0.90
311.69,3.50,2.60,3.50,2.60,-2.60,-2.42,-2.31,0.91,0.91,0.90
314.81,3.44,2.53,3.44,2.53,-2.53,-2.37,-2.22,0.91,0.91,0.91
317.96,3.38,2.46,3.38,2.46,-2.46,-2.32,-2.13,0.92,0.92,0.92
321.14,3.31,2.39,3.31,2.39,-2.39,-2.27,-2.04,0.92,0.92,0.93
324.35,3.25,2.31,3.25,2.31,-2.32,-2.22,-1.95,0.93,0.93,0.94
327.59,3.19,2.24,3.19,2.24,-2.24,-2.17,-1.86,0.94,0.94,0.95
330.87,3.13,2.17,3.13,2.17,-2.17,-2.12,-1.77,0.96,0.96,0.96
334.18,3.06,2.10,3.06,2.10,-2.10,-2.07,-1.69,0.97,0.97,0.97
337.52,3.00,2.03,3.00,2.02,-2.03,-2.02,-1.60,0.98,0.98,0.98
340.90,2.94,1.95,2.94,1.95,-1.95,-1.96,-1.51,0.99,0.99,0.99
344.30,2.88,1.88,2.88,1.88,-1.88,-1.91,-1.43,1.00,1.00,1.00
347.75,2.82,1.81,2.82,1.81,-1.81,-1.85,-1.34,1.01,1.01,1.01
351.23,2.76,1.74,2.76,1.74,-1.74,-1.80,-1.26,1.02,1.02,1.02
354.74,2.70,1.67,2.70,1.67,-1.67,-1.74,-1.18,1.03,1.03,1.03
358.28,2.64,1.60,2.64,1.60,-1.60,-1.68,-1.10,1.04,1.04,1.04
361.87,2.58,1.53,2.58,1.53,-1.53,-1.62,-1.02,1.05,1.05,1.05
365.49,2.52,1.46,2.52,1.46,-1.46,-1.56,-0.94,1.06,1.06,1.06
369.14,2.46,1.38,2.46,1.38,-1.38,-1.50,-0.86,1.08,1.08,1.08
372.83,2.40,1.31,2.40,1.31,-1.31,-1.44,-0.78,1.09,1.09,1.09
376.56,2.34,1.23,2.34,1.23,-1.23,-1.38,-0.70,1.11,1.11,1.11
380.33,2.29,1.16,2.29,1.16,-1.16,-1.32,-0.63,1.13,1.13,1.13
384.13,2.23,1.08,2.23,1.08,-1.08,-1.25,-0.55,1.14,1.14,1.14
387.97,2.17,1.01,2.17,1.01,-1.01,-1.19,-0.48,1.16,1.16,1.16
391.85,2.11,0.93,2.11,0.93,-0.93,-1.13,-0.41,1.18,1.18,1.18
395.77,2.06,0.86,2.06,0.86,-0.86,-1.06,-0.33,1.20,1.20,1.20
399.73,2.00,0.78,2.00,0.78,-0.78,-0.99,-0.26,1.22,1.22,1.22
403.72,1.94,0.71,1.94,0.71,-0.71,-0.93,-0.19,1.24,1.24,1.24
407.76,1.89,0.63,1.89,0.63,-0.64,-0.86,-0.13,1.25,1.25,1.25
411.84,1.83,0.56,1.83,0.56,-0.56,-0.79,-0.06,1.27,1.27,1.27
415.96,1.78,0.49,1.78,0.49,-0.49,-0.72,0.01,1.29,1.29,1.29
420.12,1.72,0.42,1.72,0.42,-0.42,-0.65,0.07,1.30,1.30,1.30
424.32,1.67,0.35,1.67,0.35,-0.35,-0.58,0.14,1.32,1.32,1.32
428.56,1.61,0.28,1.61,0.28,-0.28,-0.51,0.20,1.34,1.34,1.34
432.85,1.56,0.21,1.56,0.21,-0.21,-0.44,0.26,1.35,1.35,1.35
437.18,1.51,0.14,1.51,0.14,-0.14,-0.37,0.32,1.37,1.37,1.37
441.55,1.45,0.07,1.45,0.07,-0.07,-0.30,0.38,1.38,1.38,1.38
445.96,1.40,-0.00,1.40,-0.00,0.00,-0.23,0.44,1.40,1.40,1.40
450.42,1.35,-0.07,1.35,-0.07,0.07,-0.15,0.49,1.42,1.42,1.42
454.93,1.29,-0.14,1.29,-0.14,0.14,-0.08,0.54,1.44,1.44,1.43
459.48,1.24,-0.21,1.24,-0.21,0.21,-0.01,0.59,1.45,1.45,1.45
464.07,1.19,-0.28,1.19,-0.28,0.28,0.07,0.64,1.47,1.47,1.47
468.71,1.14,-0.35,1.14,-0.35,0.35,0.14,0.69,1.49,1.49,1.49
473.40,1.09,-0.41,1.09,-0.41,0.41,0.21,0.73,1.50,1.50,1.50
478.13,1.04,-0.48,1.04,-0.48,0.48,0.29,0.77,1.52,1.52,1.52
482.91,0.99,-0.55,0.99,-0.55,0.54,0.36,0.81,1.53,1.53,1.53
487.74,0.94,-0.61,0.94,-0.61,0.61,0.43,0.85,1.54,1.54,1.54
492.62,0.89,-0.67,0.89,-0.67,0.67,0.51,0.88,1.56,1.56,1.56
497.55,0.84,-0.73,0.84,-0.73,0.73,0.58,0.91,1.57,1.57,1.57
502.52,0.79,-0.79,0.79,-0.79,0.79,0.65,0.94,1.58,1.58,1.57
507.55,0.74,-0.84,0.74,-0.84,0.84,0.72,0.96,1.58,1.58,1.58
512.62,0.69,-0.89,0.69,-0.89,0.89,0.80,0.99,1.59,1.59,1.59
517.75,0.64,-0.95,0.64,-0.95,0.94,0.87,1.01,1.59,1.59,1.59
522.93,0.60,-0.99,0.60,-0.99,0.99,0.94,1.03,1.59,1.59,1.59
528.16,0.55,-1.04,0.55,-1.04,1.04,1.00,1.04,1.59,1.59,1.59
