frequency,raw,error,smoothed,error_smoothed,equalization,parametric_eq,fixed_band_eq,equalized_raw,equalized_smoothed,target
20.00,7.42,-3.21,7.42,-3.23,3.21,3.28,1.31,10.64,10.64,10.63
20.20,7.44,-3.19,7.44,-3.17,3.17,3.21,1.34,10.61,10.61,10.63
20.40,7.46,-3.14,7.46,-3.12,3.13,3.15,1.38,10.59,10.59,10.60
20.61,7.48,-3.06,7.48,-3.08,3.09,3.10,1.43,10.56,10.56,10.53
20.81,7.49,-3.04,7.49,-3.04,3.06,3.06,1.47,10.55,10.55,10.53
21.02,7.51,-3.03,7.51,-3.02,3.03,3.04,1.51,10.53,10.53,10.53
21.23,7.52,-3.01,7.52,-3.01,3.00,3.02,1.55,10.52,10.52,10.53
21.44,7.53,-3.00,7.53,-3.00,2.99,3.01,1.60,10.52,10.52,10.53
21.66,7.55,-2.99,7.55,-2.99,2.97,3.00,1.65,10.52,10.52,10.53
21.87,7.56,-2.97,7.56,-2.97,2.97,3.00,1.70,10.53,10.53,10.53
22.09,7.57,-2.96,7.57,-2.95,2.97,3.00,1.75,10.54,10.54,10.53
22.31,7.59,-2.94,7.59,-2.95,2.96,2.99,1.80,10.55,10.55,10.53
22.54,7.60,-2.94,7.60,-2.96,2.96,2.99,1.85,10.57,10.57,10.54
22.76,7.62,-3.00,7.62,-2.98,2.97,2.99,1.90,10.59,10.59,10.62
22.99,7.63,-3.00,7.63,-2.99,2.98,2.99,1.96,10.61,10.61,10.63
23.22,7.64,-2.99,7.64,-3.00,3.00,2.98,2.02,10.64,10.64,10.63
23.45,7.65,-2.98,7.65,-3.01,3.02,2.98,2.07,10.67,10.67,10.63
23.69,7.66,-3.04,7.66,-3.02,3.04,2.98,2.13,10.70,10.70,10.69
23.92,7.66,-3.07,7.66,-3.05,3.07,2.97,2.19,10.73,10.73,10.73
24.16,7.67,-3.06,7.67,-3.09,3.09,2.97,2.25,10.76,10.76,10.73
24.40,7.68,-3.12,7.68,-3.12,3.10,2.97,2.32,10.78,10.78,10.80
24.65,7.68,-3.15,7.68,-3.13,3.12,2.97,2.38,10.80,10.80,10.83
24.89,7.69,-3.14,7.69,-3.14,3.12,2.96,2.44,10.82,10.82,10.83
25.14,7.70,-3.13,7.70,-3.13,3.13,2.96,2.51,10.83,10.83,10.83
25.39,7.71,-3.12,7.71,-3.12,3.13,2.96,2.57,10.84,10.84,10.83
25.65,7.72,-3.11,7.72,-3.11,3.13,2.96,2.63,10.85,10.85,10.83
25.91,7.73,-3.10,7.73,-3.10,3.11,2.96,2.70,10.85,10.85,10.83
26.16,7.74,-3.09,7.74,-3.09,3.10,2.96,2.76,10.84,10.84,10.83
26.43,7.75,-3.08,7.75,-3.08,3.08,2.96,2.83,10.83,10.83,10.83
26.69,7.76,-3.07,7.76,-3.08,3.06,2.95,2.89,10.82,10.82,10.83
26.96,7.77,-3.07,7.77,-3.06,3.04,2.95,2.95,10.80,10.80,10.83
27.23,7.78,-3.05,7.78,-3.02,3.01,2.95,3.01,10.79,10.79,10.82
27.50,7.78,-2.95,7.78,-2.98,2.99,2.95,3.07,10.77,10.77,10.73
27.77,7.79,-2.94,7.79,-2.94,2.96,2.95,3.13,10.76,10.76,10.73
28.05,7.80,-2.93,7.80,-2.92,2.95,2.95,3.18,10.75,10.75,10.73
28.33,7.81,-2.92,7.81,-2.92,2.93,2.95,3.24,10.74,10.74,10.73
28.62,7.82,-2.92,7.82,-2.92,2.92,2.95,3.29,10.73,10.73,10.73
28.90,7.82,-2.91,7.82,-2.91,2.91,2.94,3.33,10.73,10.73,10.73
29.19,7.82,-2.91,7.82,-2.91,2.90,2.94,3.37,10.73,10.73,10.73
29.48,7.82,-2.91,7.82,-2.91,2.90,2.94,3.41,10.72,10.72,10.73
29.78,7.82,-2.91,7.82,-2.91,2.89,2.94,3.45,10.71,10.71,10.73
30.08,7.82,-2.90,7.82,-2.88,2.88,2.94,3.48,10.70,10.70,10.72
30.38,7.81,-2.84,7.81,-2.86,2.86,2.93,3.50,10.67,10.67,10.66
30.68,7.81,-2.82,7.81,-2.84,2.84,2.93,3.52,10.65,10.65,10.63
30.99,7.80,-2.83,7.81,-2.82,2.82,2.93,3.54,10.63,10.63,10.63
31.30,7.80,-2.83,7.80,-2.81,2.80,2.93,3.55,10.60,10.60,10.63
31.61,7.80,-2.78,7.80,-2.78,2.78,2.92,3.56,10.58,10.58,10.58
31.93,7.80,-2.74,7.80,-2.75,2.76,2.92,3.56,10.56,10.56,10.53
32.24,7.79,-2.74,7.79,-2.74,2.75,2.92,3.56,10.55,10.55,10.53
32.57,7.79,-2.74,7.79,-2.74,2.75,2.91,3.55,10.54,10.54,10.53
32.89,7.79,-2.74,7.79,-2.74,2.74,2.91,3.54,10.53,10.53,10.53
33.22,7.79,-2.75,7.79,-2.75,2.74,2.90,3.52,10.53,10.53,10.53
33.55,7.79,-2.75,7.79,-2.75,2.74,2.90,3.50,10.52,10.53,10.53
33.89,7.78,-2.75,7.78,-2.75,2.74,2.90,3.48,10.53,10.53,10.53
34.23,7.78,-2.75,7.78,-2.75,2.75,2.89,3.45,10.53,10.53,10.53
34.57,7.78,-2.75,7.78,-2.75,2.75,2.89,3.42,10.53,10.53,10.53
34.92,7.78,-2.75,7.78,-2.75,2.76,2.88,3.39,10.53,10.53,10.53
35.27,7.77,-2.76,7.77,-2.76,2.76,2.88,3.35,10.53,10.53,10.53
35.62,7.77,-2.77,7.77,-2.77,2.76,2.87,3.32,10.53,10.53,10.53
35.97,7.76,-2.77,7.76,-2.77,2.77,2.86,3.28,10.53,10.53,10.53
36.33,7.75,-2.78,7.75,-2.78,2.78,2.86,3.24,10.53,10.53,10.53
36.70,7.75,-2.79,7.75,-2.79,2.79,2.85,3.20,10.54,10.54,10.53
37.06,7.74,-2.80,7.74,-2.79,2.81,2.85,3.16,10.55,10.55,10.53
37.43,7.73,-2.80,7.73,-2.80,2.83,2.84,3.12,10.56,10.56,10.53
37.81,7.72,-2.81,7.72,-2.84,2.85,2.83,3.08,10.57,10.57,10.53
38.19,7.71,-2.88,7.71,-2.88,2.87,2.83,3.04,10.58,10.58,10.59
38.57,7.70,-2.93,7.70,-2.92,2.88,2.82,2.99,10.58,10.58,10.63
38.95,7.69,-2.94,7.69,-2.92,2.88,2.81,2.96,10.57,10.57,10.63
39.34,7.68,-2.88,7.68,-2.91,2.88,2.80,2.92,10.56,10.56,10.56
39.74,7.67,-2.86,7.67,-2.87,2.87,2.80,2.88,10.54,10.54,10.53
40.14,7.66,-2.87,7.66,-2.84,2.86,2.79,2.84,10.52,10.52,10.53
40.54,7.65,-2.81,7.65,-2.82,2.85,2.78,2.81,10.49,10.49,10.46
40.94,7.63,-2.80,7.63,-2.81,2.84,2.77,2.77,10.47,10.47,10.43
41.35,7.62,-2.81,7.62,-2.81,2.84,2.76,2.74,10.45,10.45,10.43
41.76,7.60,-2.83,7.60,-2.83,2.84,2.75,2.71,10.44,10.44,10.43
42.18,7.59,-2.85,7.59,-2.85,2.85,2.74,2.68,10.43,10.43,10.43
42.60,7.57,-2.86,7.57,-2.86,2.85,2.73,2.66,10.42,10.43,10.43
43.03,7.56,-2.88,7.56,-2.88,2.86,2.72,2.63,10.41,10.41,10.43
43.46,7.54,-2.89,7.54,-2.88,2.85,2.71,2.61,10.39,10.39,10.43
43.90,7.53,-2.87,7.53,-2.86,2.83,2.70,2.59,10.37,10.37,10.40
44.33,7.52,-2.82,7.52,-2.82,2.81,2.69,2.57,10.33,10.33,10.34
44.78,7.51,-2.76,7.51,-2.78,2.78,2.68,2.55,10.29,10.29,10.27
45.23,7.50,-2.73,7.50,-2.74,2.75,2.67,2.54,10.25,10.25,10.23
45.68,7.49,-2.74,7.49,-2.71,2.72,2.66,2.53,10.22,10.22,10.23
46.13,7.48,-2.68,7.48,-2.69,2.71,2.65,2.51,10.19,10.19,10.16
46.60,7.47,-2.66,7.47,-2.67,2.70,2.64,2.51,10.17,10.17,10.13
47.06,7.46,-2.67,7.46,-2.67,2.69,2.63,2.50,10.15,10.15,10.13
47.53,7.44,-2.69,7.44,-2.69,2.70,2.62,2.49,10.14,10.14,10.13
48.01,7.42,-2.71,7.42,-2.72,2.70,2.61,2.49,10.12,10.12,10.13
48.49,7.40,-2.74,7.40,-2.74,2.71,2.60,2.49,10.11,10.11,10.13
48.97,7.38,-2.75,7.38,-2.73,2.71,2.58,2.49,10.09,10.09,10.13
49.46,7.36,-2.72,7.36,-2.73,2.71,2.57,2.49,10.07,10.08,10.08
49.96,7.35,-2.69,7.35,-2.71,2.71,2.56,2.49,10.06,10.06,10.03
50.46,7.33,-2.70,7.33,-2.68,2.70,2.55,2.50,10.03,10.03,10.03
50.96,7.31,-2.66,7.31,-2.67,2.69,2.54,2.50,10.00,10.00,9.97
51.47,7.29,-2.64,7.29,-2.67,2.66,2.52,2.51,9.95,9.95,9.93
51.99,7.26,-2.67,7.26,-2.65,2.64,2.51,2.52,9.90,9.90,9.93
52.51,7.24,-2.63,7.24,-2.63,2.60,2.50,2.52,9.84,9.84,9.87
53.03,7.22,-2.58,7.22,-2.59,2.57,2.48,2.53,9.78,9.78,9.80
53.56,7.19,-2.53,7.19,-2.53,2.53,2.47,2.54,9.73,9.73,9.72
54.10,7.17,-2.49,7.17,-2.49,2.49,2.46,2.55,9.67,9.67,9.66
54.64,7.15,-2.44,7.15,-2.44,2.46,2.45,2.56,9.61,9.61,9.59
55.18,7.12,-2.40,7.12,-2.39,2.42,2.43,2.57,9.54,9.54,9.52
55.74,7.10,-2.35,7.10,-2.37,2.38,2.42,2.58,9.49,9.49,9.45
56.29,7.08,-2.35,7.08,-2.35,2.35,2.41,2.59,9.43,9.43,9.43
56.86,7.06,-2.35,7.06,-2.33,2.32,2.39,2.59,9.38,9.38,9.41
57.42,7.04,-2.30,7.04,-2.31,2.28,2.38,2.60,9.32,9.32,9.34
58.00,7.02,-2.26,7.02,-2.26,2.24,2.37,2.60,9.26,9.26,9.28
58.58,6.99,-2.22,6.99,-2.21,2.20,2.35,2.61,9.20,9.20,9.21
59.16,6.97,-2.17,6.97,-2.17,2.16,2.34,2.61,9.13,9.13,9.14
59.76,6.95,-2.12,6.95,-2.12,2.13,2.32,2.61,9.08,9.08,9.07
60.35,6.92,-2.08,6.92,-2.08,2.10,2.31,2.61,9.02,9.02,9.00
60.96,6.90,-2.04,6.90,-2.06,2.08,2.30,2.60,8.98,8.98,8.94
61.57,6.87,-2.06,6.87,-2.06,2.08,2.28,2.60,8.95,8.95,8.93
62.18,6.85,-2.08,6.85,-2.08,2.08,2.27,2.59,8.93,8.93,8.93
62.80,6.82,-2.11,6.82,-2.11,2.10,2.26,2.58,8.92,8.92,8.93
63.43,6.80,-2.13,6.80,-2.13,2.12,2.24,2.57,8.92,8.92,8.93
64.07,6.77,-2.16,6.77,-2.16,2.15,2.23,2.55,8.92,8.92,8.93
64.71,6.75,-2.19,6.75,-2.19,2.18,2.22,2.53,8.93,8.93,8.93
65.35,6.72,-2.22,6.72,-2.22,2.22,2.20,2.52,8.94,8.94,8.93
66.01,6.69,-2.25,6.69,-2.25,2.26,2.19,2.49,8.94,8.94,8.93
66.67,6.65,-2.28,6.65,-2.28,2.29,2.18,2.47,8.94,8.94,8.93
67.33,6.62,-2.31,6.62,-2.31,2.31,2.16,2.45,8.94,8.94,8.93
68.01,6.59,-2.34,6.59,-2.35,2.33,2.15,2.42,8.93,8.93,8.93
68.69,6.56,-2.37,6.56,-2.38,2.35,2.14,2.39,8.91,8.91,8.93
69.37,6.53,-2.40,6.53,-2.38,2.36,2.13,2.37,8.89,8.89,8.93
70.07,6.50,-2.37,6.50,-2.36,2.36,2.11,2.34,8.86,8.86,8.87
70.77,6.47,-2.33,6.47,-2.34,2.35,2.10,2.31,8.82,8.82,8.80
71.48,6.44,-2.29,6.44,-2.32,2.34,2.09,2.28,8.78,8.78,8.73
72.19,6.41,-2.32,6.41,-2.31,2.32,2.08,2.24,8.73,8.73,8.73
72.91,6.38,-2.31,6.38,-2.30,2.29,2.07,2.21,8.67,8.67,8.69
73.64,6.35,-2.27,6.35,-2.28,2.27,2.06,2.18,8.61,8.61,8.62
74.38,6.31,-2.24,6.31,-2.24,2.24,2.05,2.15,8.55,8.55,8.55
75.12,6.28,-2.21,6.28,-2.21,2.21,2.04,2.11,8.48,8.48,8.48
75.87,6.24,-2.17,6.24,-2.17,2.18,2.03,2.08,8.42,8.42,8.42
76.63,6.21,-2.14,6.21,-2.14,2.14,2.02,2.05,8.35,8.35,8.35
77.40,6.17,-2.10,6.18,-2.10,2.11,2.01,2.02,8.28,8.28,8.28
78.17,6.14,-2.07,6.14,-2.07,2.07,2.00,1.99,8.21,8.21,8.21
78.95,6.11,-2.04,6.11,-2.04,2.03,1.99,1.96,8.14,8.14,8.14
79.74,6.07,-2.00,6.07,-2.00,2.00,1.98,1.93,8.07,8.07,8.07
80.54,6.03,-1.97,6.03,-1.97,1.97,1.98,1.90,8.00,8.00,8.00
81.35,5.99,-1.95,5.99,-1.95,1.94,1.97,1.88,7.93,7.93,7.94
82.16,5.95,-1.92,5.95,-1.91,1.93,1.96,1.85,7.88,7.88,7.87
82.98,5.91,-1.89,5.91,-1.89,1.92,1.96,1.83,7.83,7.83,7.80
83.81,5.87,-1.86,5.87,-1.88,1.91,1.95,1.80,7.78,7.78,7.73
84.65,5.83,-1.90,5.83,-1.90,1.91,1.95,1.78,7.74,7.74,7.73
85.50,5.80,-1.93,5.80,-1.93,1.90,1.94,1.76,7.70,7.70,7.73
86.35,5.77,-1.96,5.77,-1.94,1.89,1.94,1.74,7.66,7.66,7.72
87.22,5.73,-1.92,5.73,-1.93,1.89,1.94,1.72,7.62,7.62,7.65
88.09,5.69,-1.89,5.69,-1.89,1.90,1.94,1.71,7.59,7.59,7.58
88.97,5.65,-1.86,5.65,-1.86,1.90,1.94,1.69,7.55,7.55,7.51
89.86,5.60,-1.84,5.60,-1.86,1.90,1.94,1.68,7.50,7.50,7.44
90.76,5.55,-1.88,5.55,-1.88,1.90,1.94,1.66,7.45,7.46,7.43
91.66,5.51,-1.92,5.51,-1.92,1.90,1.94,1.65,7.41,7.41,7.43
92.58,5.47,-1.96,5.47,-1.94,1.90,1.94,1.64,7.37,7.37,7.43
93.51,5.43,-1.94,5.43,-1.93,1.91,1.94,1.63,7.34,7.34,7.37
94.44,5.39,-1.91,5.39,-1.92,1.92,1.94,1.63,7.31,7.31,7.30
95.39,5.35,-1.89,5.35,-1.91,1.93,1.94,1.62,7.28,7.28,7.23
96.34,5.30,-1.93,5.30,-1.91,1.94,1.95,1.61,7.24,7.24,7.23
97.30,5.26,-1.94,5.26,-1.93,1.94,1.95,1.61,7.19,7.19,7.20
98.28,5.21,-1.92,5.21,-1.95,1.94,1.95,1.60,7.15,7.15,7.13
99.26,5.16,-1.97,5.16,-1.96,1.95,1.95,1.60,7.11,7.11,7.13
100.25,5.12,-1.97,5.12,-1.96,1.96,1.95,1.60,7.07,7.07,7.09
101.25,5.07,-1.95,5.07,-1.96,1.96,1.95,1.60,7.04,7.04,7.02
102.27,5.03,-1.94,5.03,-1.95,1.96,1.95,1.60,6.99,6.99,6.97
103.29,4.99,-1.94,4.99,-1.95,1.94,1.95,1.60,6.93,6.93,6.93
104.32,4.95,-1.97,4.95,-1.96,1.92,1.94,1.60,6.87,6.87,6.92
105.37,4.91,-1.95,4.91,-1.93,1.89,1.94,1.60,6.80,6.80,6.86
106.42,4.87,-1.88,4.87,-1.88,1.86,1.93,1.60,6.73,6.73,6.75
107.48,4.83,-1.78,4.82,-1.81,1.83,1.92,1.61,6.66,6.66,6.61
108.56,4.78,-1.78,4.78,-1.76,1.81,1.91,1.61,6.59,6.59,6.55
109.64,4.72,-1.74,4.72,-1.76,1.80,1.90,1.61,6.52,6.52,6.47
110.74,4.67,-1.76,4.67,-1.77,1.79,1.88,1.61,6.46,6.46,6.43
111.85,4.62,-1.81,4.62,-1.78,1.79,1.86,1.61,6.41,6.41,6.43
112.97,4.56,-1.77,4.56,-1.80,1.79,1.84,1.61,6.36,6.36,6.34
114.10,4.51,-1.82,4.51,-1.83,1.81,1.82,1.62,6.32,6.32,6.33
115.24,4.46,-1.86,4.46,-1.84,1.82,1.79,1.62,6.28,6.28,6.32
116.39,4.41,-1.85,4.41,-1.85,1.82,1.77,1.62,6.23,6.23,6.26
117.55,4.36,-1.82,4.36,-1.83,1.82,1.74,1.61,6.18,6.18,6.18
118.73,4.31,-1.79,4.31,-1.80,1.81,1.71,1.61,6.12,6.12,6.10
119.92,4.26,-1.78,4.26,-1.78,1.79,1.67,1.61,6.05,6.05,6.04
121.12,4.21,-1.76,4.21,-1.76,1.76,1.64,1.60,5.98,5.98,5.98
122.33,4.17,-1.74,4.17,-1.74,1.73,1.61,1.60,5.90,5.90,5.92
123.55,4.14,-1.71,4.14,-1.70,1.68,1.57,1.59,5.82,5.82,5.85
124.79,4.11,-1.64,4.12,-1.65,1.64,1.54,1.58,5.75,5.75,5.75
126.03,4.10,-1.58,4.10,-1.58,1.59,1.50,1.57,5.69,5.69,5.68
127.29,4.09,-1.53,4.09,-1.52,1.53,1.46,1.56,5.62,5.62,5.62
128.57,4.08,-1.47,4.08,-1.47,1.48,1.43,1.55,5.56,5.56,5.55
129.85,4.08,-1.41,4.08,-1.41,1.42,1.39,1.54,5.50,5.50,5.49
131.15,4.07,-1.36,4.07,-1.36,1.37,1.36,1.52,5.44,5.44,5.42
132.46,4.05,-1.31,4.05,-1.31,1.32,1.32,1.51,5.37,5.37,5.36
133.79,4.03,-1.26,4.03,-1.27,1.27,1.29,1.49,5.30,5.30,5.29
135.12,4.00,-1.23,4.00,-1.23,1.21,1.25,1.47,5.21,5.21,5.23
136.48,3.97,-1.19,3.97,-1.17,1.16,1.22,1.45,5.12,5.12,5.16
137.84,3.93,-1.12,3.93,-1.12,1.10,1.19,1.44,5.03,5.03,5.05
139.22,3.89,-1.03,3.89,-1.05,1.04,1.16,1.42,4.93,4.93,4.92
140.61,3.85,-1.00,3.85,-0.98,0.98,1.13,1.39,4.83,4.83,4.85
142.02,3.80,-0.93,3.81,-0.92,0.93,1.09,1.37,4.74,4.74,4.73
143.44,3.76,-0.85,3.76,-0.87,0.89,1.07,1.35,4.65,4.65,4.61
144.87,3.71,-0.83,3.71,-0.82,0.86,1.04,1.33,4.57,4.57,4.54
146.32,3.66,-0.80,3.66,-0.81,0.84,1.01,1.31,4.50,4.50,4.47
147.78,3.61,-0.82,3.61,-0.82,0.82,0.99,1.29,4.44,4.44,4.43
149.26,3.56,-0.86,3.56,-0.83,0.81,0.96,1.26,4.38,4.38,4.42
150.75,3.51,-0.83,3.51,-0.84,0.81,0.94,1.24,4.32,4.32,4.34
152.26,3.46,-0.83,3.46,-0.84,0.81,0.91,1.22,4.27,4.27,4.29
153.78,3.41,-0.83,3.41,-0.82,0.81,0.89,1.20,4.22,4.22,4.24
155.32,3.36,-0.81,3.36,-0.80,0.82,0.87,1.18,4.17,4.17,4.17
156.88,3.31,-0.78,3.31,-0.79,0.81,0.85,1.16,4.12,4.12,4.09
158.44,3.26,-0.78,3.26,-0.79,0.81,0.83,1.14,4.07,4.07,4.03
160.03,3.21,-0.82,3.21,-0.81,0.81,0.81,1.12,4.01,4.01,4.03
161.63,3.16,-0.82,3.16,-0.82,0.80,0.79,1.10,3.95,3.95,3.98
163.24,3.11,-0.81,3.11,-0.81,0.79,0.78,1.08,3.89,3.89,3.92
164.88,3.06,-0.78,3.06,-0.79,0.78,0.76,1.06,3.83,3.83,3.84
166.53,3.00,-0.78,3.00,-0.78,0.77,0.74,1.05,3.77,3.77,3.78
168.19,2.95,-0.77,2.95,-0.75,0.76,0.73,1.03,3.71,3.71,3.72
169.87,2.90,-0.74,2.90,-0.73,0.76,0.72,1.01,3.66,3.66,3.64
171.57,2.85,-0.70,2.85,-0.72,0.76,0.70,1.00,3.61,3.61,3.55
173.29,2.80,-0.73,2.80,-0.74,0.76,0.69,0.99,3.57,3.57,3.53
175.02,2.75,-0.78,2.75,-0.77,0.78,0.68,0.97,3.53,3.53,3.53
176.77,2.70,-0.83,2.70,-0.81,0.80,0.67,0.96,3.50,3.50,3.53
178.54,2.66,-0.82,2.66,-0.83,0.81,0.66,0.95,3.47,3.47,3.48
180.32,2.61,-0.82,2.61,-0.84,0.82,0.65,0.94,3.43,3.43,3.43
182.13,2.57,-0.87,2.57,-0.85,0.83,0.65,0.93,3.40,3.40,3.43
183.95,2.52,-0.86,2.52,-0.85,0.84,0.64,0.92,3.36,3.36,3.38
185.79,2.48,-0.82,2.48,-0.83,0.83,0.63,0.91,3.31,3.31,3.31
187.65,2.44,-0.80,2.44,-0.80,0.83,0.63,0.90,3.26,3.26,3.24
189.52,2.40,-0.78,2.40,-0.79,0.81,0.62,0.89,3.21,3.21,3.18
191.42,2.36,-0.78,2.36,-0.79,0.80,0.62,0.89,3.16,3.16,3.13
193.33,2.31,-0.82,2.31,-0.80,0.79,0.62,0.88,3.10,3.10,3.13
195.27,2.27,-0.80,2.27,-0.79,0.77,0.61,0.87,3.04,3.04,3.07
197.22,2.23,-0.76,2.23,-0.77,0.75,0.61,0.87,2.98,2.98,2.99
199.19,2.19,-0.74,2.19,-0.74,0.74,0.61,0.86,2.92,2.92,2.93
201.18,2.14,-0.72,2.14,-0.72,0.72,0.61,0.86,2.86,2.86,2.86
203.19,2.09,-0.70,2.09,-0.70,0.71,0.61,0.85,2.80,2.80,2.79
205.23,2.05,-0.68,2.05,-0.68,0.69,0.61,0.85,2.74,2.74,2.72
207.28,2.00,-0.66,2.00,-0.65,0.67,0.61,0.85,2.67,2.67,2.66
209.35,1.95,-0.63,1.95,-0.65,0.65,0.61,0.84,2.60,2.60,2.59
211.44,1.90,-0.63,1.90,-0.65,0.63,0.62,0.84,2.53,2.53,2.53
213.56,1.85,-0.68,1.85,-0.64,0.61,0.62,0.83,2.47,2.47,2.53
215.69,1.81,-0.61,1.81,-0.60,0.60,0.62,0.83,2.40,2.40,2.42
217.85,1.76,-0.54,1.76,-0.57,0.58,0.62,0.83,2.34,2.34,2.30
220.03,1.71,-0.52,1.71,-0.54,0.57,0.62,0.82,2.28,2.29,2.23
222.23,1.67,-0.56,1.67,-0.55,0.56,0.62,0.82,2.23,2.23,2.23
224.45,1.63,-0.59,1.63,-0.56,0.55,0.63,0.81,2.18,2.18,2.22
226.70,1.58,-0.56,1.58,-0.56,0.55,0.63,0.80,2.13,2.13,2.14
228.96,1.54,-0.52,1.54,-0.55,0.55,0.63,0.80,2.09,2.09,2.07
231.25,1.50,-0.53,1.50,-0.54,0.55,0.62,0.79,2.06,2.06,2.03
233.57,1.46,-0.57,1.46,-0.54,0.56,0.62,0.78,2.02,2.02,2.03
235.90,1.43,-0.54,1.42,-0.55,0.56,0.62,0.77,1.99,1.99,1.97
238.26,1.38,-0.55,1.38,-0.56,0.55,0.61,0.76,1.94,1.94,1.93
240.64,1.34,-0.57,1.34,-0.56,0.54,0.61,0.74,1.88,1.88,1.92
243.05,1.30,-0.55,1.30,-0.55,0.51,0.60,0.73,1.82,1.82,1.86
245.48,1.26,-0.52,1.26,-0.52,0.49,0.59,0.71,1.74,1.75,1.78
247.93,1.22,-0.47,1.22,-0.46,0.45,0.58,0.70,1.67,1.67,1.69
250.41,1.17,-0.39,1.17,-0.41,0.42,0.57,0.68,1.59,1.59,1.56
252.92,1.13,-0.35,1.13,-0.35,0.38,0.55,0.66,1.52,1.52,1.48
255.45,1.09,-0.33,1.09,-0.32,0.35,0.53,0.64,1.44,1.44,1.42
258.00,1.05,-0.28,1.05,-0.31,0.33,0.51,0.61,1.38,1.38,1.33
260.58,1.01,-0.32,1.01,-0.32,0.31,0.49,0.59,1.32,1.32,1.33
263.19,0.97,-0.34,0.97,-0.32,0.30,0.47,0.56,1.27,1.27,1.30
265.82,0.93,-0.31,0.93,-0.31,0.30,0.44,0.54,1.23,1.23,1.24
268.48,0.88,-0.29,0.88,-0.30,0.30,0.41,0.51,1.18,1.18,1.17
271.16,0.84,-0.29,0.84,-0.30,0.30,0.38,0.48,1.14,1.14,1.13
273.87,0.80,-0.33,0.80,-0.31,0.30,0.35,0.45,1.10,1.10,1.13
276.61,0.76,-0.30,0.76,-0.30,0.30,0.32,0.41,1.06,1.06,1.07
279.38,0.72,-0.28,0.72,-0.28,0.29,0.28,0.38,1.01,1.01,1.00
282.17,0.68,-0.25,0.68,-0.27,0.27,0.25,0.35,0.96,0.96,0.93
284.99,0.64,-0.29,0.64,-0.27,0.26,0.22,0.31,0.90,0.90,0.93
287.84,0.61,-0.28,0.61,-0.27,0.25,0.18,0.27,0.85,0.85,0.89
290.72,0.57,-0.25,0.57,-0.25,0.23,0.15,0.24,0.80,0.80,0.81
293.63,0.53,-0.21,0.53,-0.21,0.22,0.12,0.20,0.75,0.75,0.74
296.57,0.49,-0.18,0.49,-0.19,0.22,0.09,0.16,0.71,0.71,0.67
299.53,0.45,-0.18,0.45,-0.19,0.21,0.06,0.12,0.67,0.67,0.63
302.53,0.42,-0.21,0.42,-0.21,0.21,0.04,0.08,0.63,0.63,0.63
305.55,0.38,-0.25,0.38,-0.24,0.22,0.02,0.03,0.60,0.60,0.63
308.61,0.34,-0.26,0.34,-0.25,0.24,0.00,-0.01,0.58,0.58,0.60
311.69,0.31,-0.23,0.31,-0.25,0.26,-0.00,-0.05,0.57,0.57,0.54
314.81,0.27,-0.26,0.27,-0.26,0.28,-0.00,-0.09,0.56,0.56,0.53
317.96,0.24,-0.29,0.24,-0.29,0.30,0.01,-0.14,0.53,0.53,0.53
321.14,0.20,-0.33,0.20,-0.33,0.30,0.03,-0.18,0.50,0.50,0.53
324.35,0.17,-0.37,0.17,-0.35,0.30,0.06,-0.23,0.46,0.46,0.53
327.59,0.13,-0.35,0.13,-0.34,0.29,0.11,-0.27,0.42,0.42,0.48
330.87,0.09,-0.32,0.09,-0.32,0.29,0.18,-0.32,0.38,0.38,0.41
334.18,0.06,-0.29,0.06,-0.30,0.31,0.26,-0.37,0.37,0.37,0.35
337.52,0.03,-0.31,0.03,-0.31,0.35,0.37,-0.41,0.38,0.38,0.33
340.90,-0.01,-0.36,-0.01,-0.36,0.43,0.50,-0.46,0.43,0.43,0.35
344.30,-0.04,-0.46,-0.04,-0.46,0.58,0.65,-0.51,0.54,0.54,0.42
347.75,-0.07,-0.62,-0.07,-0.62,0.77,0.81,-0.56,0.69,0.69,0.54
351.23,-0.11,-0.84,-0.11,-0.86,0.97,0.98,-0.61,0.86,0.86,0.73
354.74,-0.14,-1.15,-0.14,-1.15,1.15,1.13,-0.66,1.01,1.01,1.01
358.28,-0.17,-1.47,-0.17,-1.47,1.30,1.26,-0.71,1.13,1.13,1.30
361.87,-0.20,-1.75,-0.20,-1.76,1.40,1.34,-0.76,1.19,1.19,1.54
365.49,-0.24,-1.96,-0.24,-1.93,1.42,1.35,-0.81,1.19,1.19,1.72
369.14,-0.27,-1.93,-0.27,-1.90,1.38,1.29,-0.86,1.11,1.11,1.66
372.83,-0.30,-1.71,-0.30,-1.68,1.24,1.14,-0.91,0.95,0.95,1.41
376.56,-0.33,-1.29,-0.33,-1.32,1.03,0.94,-0.96,0.71,0.71,0.97
380.33,-0.36,-0.88,-0.36,-0.90,0.76,0.68,-1.02,0.40,0.40,0.53
384.13,-0.39,-0.51,-0.39,-0.51,0.44,0.41,-1.07,0.06,0.06,0.12
387.97,-0.42,-0.17,-0.42,-0.17,0.12,0.14,-1.12,-0.30,-0.30,-0.25
391.85,-0.45,0.13,-0.45,0.14,-0.17,-0.13,-1.18,-0.62,-0.62,-0.57
395.77,-0.47,0.42,-0.47,0.43,-0.40,-0.38,-1.23,-0.88,-0.88,-0.89
399.73,-0.50,0.68,-0.50,0.69,-0.59,-0.60,-1.28,-1.09,-1.09,-1.18
403.72,-0.53,0.92,-0.53,0.88,-0.73,-0.81,-1.34,-1.26,-1.26,-1.45
407.76,-0.56,0.97,-0.56,0.98,-0.82,-0.99,-1.39,-1.38,-1.38,-1.53
411.84,-0.58,0.99,-0.58,0.99,-0.88,-1.16,-1.45,-1.46,-1.46,-1.57
415.96,-0.61,0.96,-0.61,0.96,-0.94,-1.30,-1.50,-1.55,-1.55,-1.57
420.12,-0.64,0.93,-0.64,0.92,-1.02,-1.43,-1.55,-1.66,-1.66,-1.57
424.32,-0.66,0.95,-0.66,0.94,-1.15,-1.55,-1.61,-1.81,-1.81,-1.61
428.56,-0.69,1.03,-0.69,1.08,-1.34,-1.66,-1.66,-2.02,-2.03,-1.71
432.85,-0.71,1.36,-0.71,1.37,-1.58,-1.75,-1.71,-2.29,-2.29,-2.07
437.18,-0.74,1.80,-0.74,1.80,-1.86,-1.83,-1.76,-2.60,-2.60,-2.53
441.55,-0.76,2.26,-0.76,2.25,-2.16,-1.91,-1.81,-2.92,-2.92,-3.02
445.96,-0.78,2.68,-0.78,2.64,-2.46,-1.98,-1.86,-3.24,-3.24,-3.46
450.42,-0.81,2.91,-0.81,2.91,-2.72,-2.04,-1.90,-3.53,-3.53,-3.72
454.93,-0.83,3.05,-0.83,3.05,-2.92,-2.10,-1.95,-3.76,-3.76,-3.88
459.48,-0.85,3.11,-0.85,3.10,-3.05,-2.15,-1.99,-3.90,-3.90,-3.96
464.07,-0.88,3.09,-0.88,3.10,-3.10,-2.20,-2.03,-3.98,-3.98,-3.97
468.71,-0.90,3.04,-0.90,3.04,-3.08,-2.24,-2.07,-3.97,-3.97,-3.94
473.40,-0.92,2.96,-0.92,2.96,-3.00,-2.28,-2.10,-3.92,-3.92,-3.88
478.13,-0.94,2.87,-0.94,2.87,-2.90,-2.32,-2.13,-3.84,-3.84,-3.81
482.91,-0.96,2.78,-0.96,2.78,-2.79,-2.35,-2.16,-3.75,-3.75,-3.74
487.74,-0.99,2.69,-0.99,2.69,-2.68,-2.38,-2.19,-3.66,-3.66,-3.67
492.62,-1.01,2.60,-1.01,2.57,-2.57,-2.40,-2.22,-3.58,-3.58,-3.60
497.55,-1.02,2.47,-1.02,2.46,-2.48,-2.43,-2.24,-3.51,-3.51,-3.49
502.52,-1.04,2.32,-1.04,2.37,-2.41,-2.45,-2.26,-3.45,-3.45,-3.37
507.55,-1.06,2.31,-1.06,2.30,-2.34,-2.46,-2.27,-3.41,-3.41,-3.37
512.62,-1.08,2.29,-1.08,2.28,-2.29,-2.48,-2.28,-3.37,-3.37,-3.37
517.75,-1.10,2.27,-1.10,2.27,-2.25,-2.49,-2.29,-3.35,-3.35,-3.37
522.93,-1.11,2.25,-1.11,2.25,-2.22,-2.51,-2.30,-3.34,-3.34,-3.37
528.16,-1.13,2.24,-1.13,2.24,-2.21,-2.52,-2.31,-3.34,-3.34,-3.37
