frequency,raw,error,smoothed,error_smoothed,equalization,parametric_eq,fixed_band_eq,equalized_raw,equalized_smoothed,target
20.00,12.49,7.33,12.49,7.33,-7.34,-6.67,-2.80,5.14,5.14,5.16
20.20,12.51,7.35,12.51,7.35,-7.36,-6.97,-2.88,5.15,5.16,5.16
20.40,12.53,7.37,12.53,7.37,-7.37,-7.27,-2.96,5.16,5.16,5.16
20.61,12.54,7.39,12.54,7.38,-7.37,-7.53,-3.05,5.17,5.17,5.16
20.81,12.55,7.39,12.55,7.39,-7.38,-7.78,-3.13,5.17,5.17,5.16
21.02,12.55,7.39,12.55,7.39,-7.38,-7.92,-3.23,5.17,5.17,5.16
21.23,12.55,7.39,12.55,7.39,-7.38,-8.04,-3.32,5.17,5.17,5.16
21.44,12.54,7.38,12.54,7.38,-7.37,-8.01,-3.41,5.16,5.16,5.16
21.66,12.52,7.36,12.52,7.36,-7.36,-7.97,-3.51,5.16,5.16,5.16
21.87,12.50,7.35,12.50,7.35,-7.35,-7.83,-3.61,5.15,5.15,5.16
22.09,12.49,7.33,12.49,7.33,-7.34,-7.69,-3.71,5.14,5.14,5.16
22.31,12.47,7.31,12.47,7.31,-7.33,-7.52,-3.82,5.14,5.14,5.16
22.54,12.46,7.30,12.46,7.30,-7.31,-7.35,-3.93,5.14,5.14,5.16
22.76,12.44,7.28,12.44,7.29,-7.28,-7.19,-4.04,5.16,5.16,5.16
22.99,12.43,7.27,12.43,7.27,-7.24,-7.03,-4.16,5.18,5.18,5.16
23.22,12.41,7.25,12.41,7.23,-7.19,-6.90,-4.27,5.22,5.22,5.17
23.45,12.40,7.15,12.39,7.15,-7.13,-6.77,-4.39,5.26,5.26,5.24
23.69,12.37,7.05,12.37,7.06,-7.05,-6.67,-4.52,5.32,5.32,5.32
23.92,12.35,6.96,12.35,6.96,-6.97,-6.56,-4.64,5.38,5.38,5.39
24.16,12.32,6.87,12.32,6.86,-6.87,-6.49,-4.77,5.45,5.45,5.45
24.40,12.28,6.75,12.28,6.76,-6.76,-6.41,-4.90,5.52,5.52,5.53
24.65,12.24,6.65,12.24,6.65,-6.65,-6.35,-5.03,5.59,5.59,5.60
24.89,12.21,6.55,12.21,6.55,-6.55,-6.29,-5.16,5.66,5.66,5.66
25.14,12.18,6.46,12.18,6.45,-6.45,-6.24,-5.30,5.73,5.73,5.72
25.39,12.15,6.36,12.15,6.35,-6.36,-6.20,-5.43,5.79,5.79,5.79
25.65,12.13,6.26,12.13,6.26,-6.27,-6.16,-5.57,5.86,5.86,5.87
25.91,12.10,6.17,12.11,6.19,-6.19,-6.13,-5.71,5.92,5.92,5.94
26.16,12.08,6.12,12.08,6.12,-6.12,-6.10,-5.84,5.96,5.96,5.96
26.43,12.06,6.09,12.06,6.06,-6.06,-6.07,-5.98,5.99,5.99,5.97
26.69,12.02,5.99,12.02,6.02,-6.02,-6.04,-6.11,6.00,6.00,6.03
26.96,11.99,5.97,11.99,5.98,-5.99,-6.01,-6.25,6.00,5.99,6.02
27.23,11.94,5.98,11.94,5.95,-5.98,-5.99,-6.38,5.97,5.97,5.96
27.50,11.90,5.94,11.90,5.95,-5.97,-5.96,-6.50,5.93,5.93,5.96
27.77,11.86,5.95,11.86,5.96,-5.97,-5.93,-6.63,5.88,5.88,5.90
28.05,11.82,5.97,11.82,5.97,-5.98,-5.90,-6.74,5.84,5.84,5.85
28.33,11.78,6.01,11.78,5.99,-5.98,-5.87,-6.85,5.80,5.80,5.78
28.62,11.75,5.99,11.75,5.99,-5.97,-5.84,-6.96,5.78,5.78,5.76
28.90,11.72,5.96,11.72,5.97,-5.95,-5.81,-7.05,5.77,5.77,5.76
29.19,11.69,5.93,11.69,5.94,-5.91,-5.78,-7.14,5.78,5.78,5.76
29.48,11.66,5.90,11.66,5.88,-5.86,-5.74,-7.22,5.80,5.80,5.76
29.78,11.62,5.82,11.62,5.81,-5.79,-5.71,-7.29,5.83,5.83,5.80
30.08,11.58,5.71,11.58,5.71,-5.71,-5.67,-7.34,5.87,5.87,5.87
30.38,11.54,5.61,11.54,5.60,-5.62,-5.63,-7.38,5.92,5.92,5.93
30.68,11.50,5.50,11.50,5.51,-5.53,-5.59,-7.41,5.97,5.97,6.00
30.99,11.47,5.41,11.47,5.43,-5.44,-5.54,-7.43,6.03,6.03,6.06
31.30,11.44,5.38,11.44,5.35,-5.36,-5.50,-7.43,6.07,6.07,6.06
31.61,11.41,5.29,11.41,5.29,-5.29,-5.45,-7.42,6.11,6.11,6.11
31.93,11.37,5.21,11.37,5.23,-5.23,-5.41,-7.40,6.14,6.14,6.16
32.24,11.34,5.18,11.34,5.18,-5.19,-5.36,-7.36,6.15,6.15,6.16
32.57,11.30,5.15,11.30,5.14,-5.15,-5.31,-7.31,6.16,6.16,6.16
32.89,11.27,5.11,11.27,5.11,-5.11,-5.26,-7.25,6.16,6.16,6.16
33.22,11.24,5.08,11.24,5.08,-5.09,-5.21,-7.18,6.15,6.15,6.16
33.55,11.21,5.05,11.21,5.05,-5.06,-5.15,-7.10,6.15,6.16,6.16
33.89,11.19,5.03,11.19,5.04,-5.03,-5.10,-7.00,6.16,6.16,6.16
34.23,11.17,5.02,11.17,5.02,-5.00,-5.05,-6.90,6.17,6.17,6.16
34.57,11.16,5.00,11.16,4.98,-4.97,-4.99,-6.79,6.19,6.19,6.16
34.92,11.14,4.94,11.14,4.94,-4.93,-4.94,-6.68,6.21,6.21,6.20
35.27,11.13,4.87,11.13,4.89,-4.89,-4.89,-6.56,6.24,6.24,6.26
35.62,11.11,4.85,11.11,4.83,-4.84,-4.83,-6.43,6.27,6.27,6.26
35.97,11.09,4.78,11.10,4.78,-4.79,-4.78,-6.30,6.30,6.30,6.31
36.33,11.08,4.72,11.08,4.74,-4.74,-4.73,-6.17,6.34,6.34,6.36
36.70,11.06,4.70,11.06,4.68,-4.68,-4.67,-6.03,6.38,6.38,6.36
37.06,11.04,4.63,11.04,4.63,-4.62,-4.62,-5.89,6.42,6.42,6.41
37.43,11.02,4.56,11.02,4.58,-4.56,-4.57,-5.75,6.46,6.46,6.46
37.81,11.00,4.54,11.00,4.52,-4.51,-4.52,-5.61,6.49,6.49,6.46
38.19,10.98,4.47,10.98,4.47,-4.47,-4.47,-5.47,6.51,6.51,6.52
38.57,10.96,4.40,10.96,4.41,-4.43,-4.42,-5.33,6.53,6.53,6.56
38.95,10.94,4.38,10.94,4.37,-4.40,-4.37,-5.20,6.53,6.53,6.56
39.34,10.91,4.35,10.91,4.36,-4.39,-4.32,-5.06,6.52,6.52,6.56
39.74,10.89,4.37,10.89,4.37,-4.38,-4.27,-4.92,6.50,6.50,6.52
40.14,10.86,4.40,10.86,4.38,-4.39,-4.22,-4.79,6.47,6.47,6.46
40.54,10.83,4.37,10.83,4.39,-4.41,-4.17,-4.66,6.43,6.43,6.46
40.94,10.80,4.39,10.80,4.40,-4.41,-4.12,-4.53,6.40,6.40,6.42
41.35,10.78,4.42,10.78,4.40,-4.39,-4.07,-4.40,6.38,6.38,6.36
41.76,10.75,4.39,10.74,4.40,-4.35,-4.02,-4.28,6.40,6.40,6.36
42.18,10.71,4.35,10.71,4.36,-4.27,-3.98,-4.15,6.44,6.44,6.36
42.60,10.68,4.28,10.68,4.25,-4.17,-3.93,-4.03,6.51,6.51,6.39
43.03,10.64,4.11,10.64,4.08,-4.05,-3.88,-3.92,6.59,6.59,6.54
43.46,10.60,3.86,10.61,3.89,-3.92,-3.83,-3.80,6.69,6.69,6.74
43.90,10.57,3.68,10.57,3.71,-3.78,-3.78,-3.69,6.79,6.79,6.89
44.33,10.53,3.58,10.53,3.56,-3.64,-3.72,-3.58,6.89,6.89,6.95
44.78,10.49,3.47,10.49,3.48,-3.51,-3.67,-3.48,6.98,6.98,7.02
45.23,10.45,3.39,10.45,3.40,-3.39,-3.62,-3.38,7.06,7.06,7.06
45.68,10.40,3.34,10.40,3.31,-3.29,-3.56,-3.28,7.11,7.11,7.06
46.13,10.35,3.22,10.35,3.23,-3.21,-3.50,-3.18,7.14,7.14,7.13
46.60,10.30,3.14,10.30,3.16,-3.16,-3.45,-3.08,7.15,7.15,7.16
47.06,10.25,3.09,10.25,3.09,-3.11,-3.38,-2.99,7.14,7.14,7.16
47.53,10.20,3.04,10.20,3.03,-3.07,-3.32,-2.90,7.14,7.14,7.16
48.01,10.15,2.99,10.15,3.00,-3.02,-3.26,-2.81,7.13,7.13,7.16
48.49,10.10,2.96,10.10,2.98,-2.98,-3.19,-2.73,7.12,7.12,7.15
48.97,10.05,2.98,10.05,2.97,-2.94,-3.13,-2.64,7.12,7.12,7.08
49.46,10.01,2.95,10.01,2.93,-2.88,-3.06,-2.56,7.12,7.12,7.06
49.96,9.96,2.87,9.95,2.86,-2.82,-2.99,-2.48,7.14,7.14,7.08
50.46,9.90,2.75,9.90,2.78,-2.75,-2.92,-2.41,7.15,7.16,7.15
50.96,9.85,2.69,9.85,2.68,-2.67,-2.85,-2.33,7.18,7.18,7.16
51.47,9.79,2.61,9.79,2.58,-2.59,-2.77,-2.26,7.20,7.20,7.18
51.99,9.74,2.48,9.74,2.50,-2.53,-2.70,-2.19,7.21,7.21,7.26
52.51,9.68,2.42,9.68,2.43,-2.48,-2.62,-2.12,7.20,7.20,7.26
53.03,9.62,2.39,9.62,2.39,-2.45,-2.55,-2.05,7.17,7.17,7.23
53.56,9.55,2.40,9.55,2.39,-2.44,-2.47,-1.99,7.11,7.11,7.15
54.10,9.49,2.40,9.49,2.42,-2.45,-2.40,-1.92,7.04,7.04,7.08
54.64,9.42,2.45,9.42,2.46,-2.46,-2.32,-1.86,6.96,6.96,6.97
55.18,9.35,2.50,9.35,2.49,-2.45,-2.24,-1.80,6.90,6.90,6.85
55.74,9.29,2.51,9.29,2.50,-2.43,-2.17,-1.74,6.86,6.86,6.78
56.29,9.22,2.46,9.22,2.46,-2.38,-2.09,-1.68,6.84,6.84,6.76
56.86,9.15,2.37,9.15,2.37,-2.29,-2.02,-1.62,6.86,6.86,6.78
57.42,9.09,2.24,9.09,2.22,-2.19,-1.94,-1.56,6.90,6.90,6.85
58.00,9.02,2.05,9.02,2.05,-2.07,-1.87,-1.50,6.96,6.96,6.97
58.58,8.96,1.88,8.96,1.89,-1.94,-1.80,-1.45,7.02,7.02,7.08
59.16,8.89,1.74,8.89,1.76,-1.82,-1.72,-1.39,7.08,7.08,7.16
59.76,8.83,1.67,8.83,1.66,-1.71,-1.65,-1.34,7.12,7.12,7.16
60.35,8.77,1.61,8.77,1.60,-1.64,-1.58,-1.29,7.13,7.13,7.16
60.96,8.70,1.54,8.70,1.56,-1.59,-1.51,-1.23,7.11,7.11,7.16
61.57,8.63,1.54,8.63,1.54,-1.56,-1.44,-1.18,7.08,7.08,7.09
62.18,8.56,1.55,8.56,1.54,-1.54,-1.37,-1.13,7.02,7.02,7.02
62.80,8.49,1.55,8.49,1.55,-1.53,-1.30,-1.08,6.97,6.97,6.95
63.43,8.42,1.54,8.42,1.53,-1.50,-1.24,-1.02,6.92,6.92,6.89
64.07,8.35,1.49,8.35,1.49,-1.46,-1.17,-0.97,6.89,6.89,6.86
64.71,8.29,1.43,8.28,1.43,-1.40,-1.10,-0.92,6.88,6.88,6.86
65.35,8.22,1.36,8.22,1.35,-1.32,-1.04,-0.87,6.90,6.90,6.86
66.01,8.14,1.23,8.15,1.23,-1.21,-0.97,-0.82,6.94,6.94,6.91
66.67,8.07,1.10,8.07,1.10,-1.09,-0.91,-0.77,6.99,6.99,6.98
67.33,8.00,0.95,8.00,0.95,-0.96,-0.85,-0.72,7.05,7.05,7.05
68.01,7.93,0.81,7.93,0.81,-0.82,-0.78,-0.67,7.11,7.11,7.12
68.69,7.86,0.67,7.86,0.67,-0.70,-0.72,-0.62,7.16,7.16,7.19
69.37,7.79,0.53,7.79,0.55,-0.58,-0.66,-0.57,7.21,7.21,7.26
70.07,7.72,0.46,7.72,0.46,-0.48,-0.60,-0.51,7.24,7.24,7.26
70.77,7.66,0.40,7.66,0.39,-0.40,-0.54,-0.46,7.26,7.25,7.26
71.48,7.59,0.33,7.59,0.32,-0.34,-0.48,-0.41,7.25,7.25,7.26
72.19,7.52,0.26,7.52,0.27,-0.29,-0.42,-0.36,7.23,7.23,7.26
72.91,7.45,0.23,7.45,0.24,-0.25,-0.36,-0.31,7.20,7.20,7.22
73.64,7.37,0.22,7.37,0.22,-0.20,-0.30,-0.26,7.17,7.17,7.15
74.38,7.29,0.21,7.29,0.20,-0.15,-0.24,-0.21,7.14,7.14,7.08
75.12,7.21,0.15,7.21,0.15,-0.10,-0.18,-0.16,7.11,7.11,7.06
75.87,7.13,0.07,7.13,0.07,-0.04,-0.12,-0.11,7.09,7.09,7.06
76.63,7.05,-0.01,7.05,-0.01,0.01,-0.06,-0.05,7.06,7.06,7.06
77.40,6.97,-0.09,6.97,-0.09,0.07,-0.01,-0.00,7.04,7.04,7.06
78.17,6.90,-0.16,6.90,-0.17,0.11,0.05,0.05,7.01,7.01,7.06
78.95,6.83,-0.23,6.83,-0.21,0.15,0.11,0.10,6.98,6.98,7.06
79.74,6.77,-0.23,6.77,-0.22,0.19,0.17,0.16,6.96,6.96,7.00
80.54,6.72,-0.21,6.72,-0.21,0.22,0.23,0.21,6.94,6.94,6.93
81.35,6.67,-0.19,6.67,-0.21,0.26,0.29,0.27,6.92,6.93,6.86
82.16,6.63,-0.23,6.63,-0.24,0.29,0.35,0.32,6.92,6.92,6.86
82.98,6.59,-0.30,6.59,-0.31,0.34,0.41,0.38,6.93,6.93,6.89
83.81,6.55,-0.41,6.54,-0.39,0.41,0.47,0.43,6.95,6.95,6.96
84.65,6.49,-0.47,6.49,-0.48,0.48,0.53,0.49,6.98,6.98,6.96
85.50,6.44,-0.56,6.44,-0.58,0.57,0.60,0.54,7.00,7.00,7.00
86.35,6.37,-0.69,6.37,-0.67,0.65,0.66,0.60,7.02,7.02,7.06
87.22,6.30,-0.76,6.30,-0.76,0.73,0.72,0.66,7.03,7.03,7.06
88.09,6.23,-0.83,6.23,-0.84,0.80,0.78,0.72,7.03,7.03,7.06
88.97,6.16,-0.90,6.16,-0.90,0.87,0.85,0.78,7.03,7.03,7.06
89.86,6.10,-0.96,6.11,-0.93,0.93,0.91,0.83,7.03,7.03,7.06
90.76,6.06,-0.94,6.06,-0.95,0.99,0.97,0.90,7.05,7.05,7.00
91.66,6.01,-0.97,6.01,-1.00,1.05,1.03,0.96,7.06,7.06,6.99
92.58,5.97,-1.08,5.97,-1.08,1.11,1.10,1.02,7.08,7.08,7.05
93.51,5.92,-1.20,5.92,-1.19,1.18,1.16,1.08,7.10,7.10,7.12
94.44,5.86,-1.30,5.86,-1.29,1.26,1.22,1.14,7.12,7.12,7.16
95.39,5.79,-1.37,5.79,-1.35,1.35,1.29,1.21,7.14,7.14,7.16
96.34,5.71,-1.38,5.71,-1.42,1.44,1.35,1.27,7.15,7.15,7.09
97.30,5.61,-1.48,5.61,-1.51,1.53,1.41,1.33,7.15,7.15,7.10
98.28,5.52,-1.64,5.52,-1.61,1.61,1.47,1.40,7.13,7.13,7.16
99.26,5.43,-1.73,5.44,-1.72,1.68,1.53,1.46,7.11,7.12,7.16
100.25,5.37,-1.78,5.38,-1.79,1.74,1.59,1.53,7.11,7.12,7.16
101.25,5.34,-1.82,5.34,-1.82,1.79,1.65,1.59,7.13,7.13,7.16
102.27,5.32,-1.84,5.32,-1.84,1.84,1.70,1.66,7.17,7.16,7.16
103.29,5.30,-1.86,5.30,-1.86,1.89,1.76,1.73,7.19,7.19,7.16
104.32,5.28,-1.88,5.28,-1.88,1.93,1.81,1.79,7.20,7.20,7.16
105.37,5.24,-1.92,5.24,-1.94,1.96,1.86,1.86,7.20,7.20,7.16
106.42,5.21,-2.00,5.21,-2.00,1.99,1.91,1.92,7.19,7.19,7.20
107.48,5.16,-2.07,5.16,-2.04,2.02,1.96,1.99,7.18,7.18,7.24
108.56,5.11,-2.08,5.11,-2.06,2.04,2.00,2.05,7.15,7.15,7.18
109.64,5.05,-2.05,5.05,-2.08,2.06,2.05,2.11,7.11,7.11,7.09
110.74,4.99,-2.07,4.99,-2.08,2.07,2.09,2.17,7.06,7.06,7.06
111.85,4.93,-2.13,4.93,-2.09,2.08,2.13,2.23,7.01,7.01,7.06
112.97,4.88,-2.09,4.88,-2.10,2.08,2.17,2.29,6.96,6.96,6.96
114.10,4.82,-2.09,4.82,-2.09,2.09,2.20,2.35,6.91,6.91,6.90
115.24,4.76,-2.09,4.76,-2.08,2.12,2.24,2.40,6.88,6.88,6.85
116.39,4.70,-2.09,4.70,-2.11,2.17,2.28,2.45,6.87,6.87,6.79
117.55,4.64,-2.17,4.64,-2.17,2.22,2.31,2.50,6.86,6.86,6.81
118.73,4.58,-2.28,4.58,-2.25,2.27,2.35,2.55,6.86,6.86,6.86
119.92,4.52,-2.34,4.52,-2.36,2.33,2.38,2.60,6.85,6.85,6.86
121.12,4.46,-2.45,4.47,-2.45,2.38,2.42,2.64,6.85,6.85,6.92
122.33,4.41,-2.54,4.41,-2.50,2.44,2.45,2.68,6.85,6.85,6.94
123.55,4.35,-2.53,4.35,-2.52,2.49,2.49,2.72,6.84,6.84,6.88
124.79,4.30,-2.48,4.30,-2.52,2.54,2.52,2.75,6.83,6.83,6.78
126.03,4.24,-2.52,4.24,-2.53,2.58,2.56,2.78,6.82,6.82,6.76
127.29,4.18,-2.58,4.18,-2.57,2.61,2.60,2.81,6.80,6.80,6.76
128.57,4.12,-2.63,4.12,-2.63,2.65,2.63,2.83,6.77,6.77,6.76
129.85,4.07,-2.69,4.07,-2.70,2.68,2.67,2.85,6.75,6.75,6.76
131.15,4.01,-2.75,4.01,-2.76,2.72,2.71,2.87,6.73,6.73,6.76
132.46,3.95,-2.81,3.95,-2.80,2.77,2.75,2.89,6.72,6.72,6.76
133.79,3.89,-2.83,3.89,-2.82,2.82,2.79,2.91,6.71,6.71,6.72
135.12,3.83,-2.83,3.83,-2.85,2.88,2.83,2.92,6.70,6.70,6.66
136.48,3.77,-2.89,3.77,-2.89,2.93,2.87,2.93,6.69,6.69,6.66
137.84,3.71,-2.95,3.71,-2.95,2.97,2.92,2.94,6.68,6.68,6.66
139.22,3.65,-3.01,3.65,-3.02,3.02,2.96,2.95,6.66,6.66,6.66
140.61,3.59,-3.07,3.59,-3.08,3.06,3.01,2.96,6.64,6.64,6.66
142.02,3.53,-3.13,3.53,-3.13,3.10,3.05,2.97,6.63,6.63,6.66
143.44,3.47,-3.17,3.47,-3.15,3.13,3.10,2.97,6.60,6.60,6.64
144.87,3.41,-3.16,3.41,-3.16,3.15,3.14,2.98,6.56,6.56,6.57
146.32,3.35,-3.15,3.35,-3.17,3.16,3.19,2.99,6.51,6.51,6.49
147.78,3.29,-3.17,3.29,-3.18,3.17,3.24,2.99,6.45,6.45,6.46
149.26,3.23,-3.21,3.23,-3.19,3.17,3.28,3.00,6.41,6.40,6.45
150.75,3.18,-3.19,3.18,-3.19,3.19,3.33,3.01,6.37,6.37,6.37
152.26,3.13,-3.18,3.13,-3.18,3.22,3.38,3.02,6.35,6.36,6.32
153.78,3.09,-3.17,3.09,-3.20,3.27,3.42,3.03,6.36,6.36,6.27
155.32,3.06,-3.27,3.06,-3.27,3.32,3.47,3.04,6.38,6.38,6.33
156.88,3.02,-3.38,3.02,-3.38,3.38,3.51,3.05,6.41,6.41,6.40
158.44,2.99,-3.49,2.99,-3.49,3.45,3.56,3.07,6.45,6.45,6.48
160.03,2.96,-3.60,2.96,-3.57,3.53,3.60,3.08,6.49,6.49,6.56
161.63,2.93,-3.63,2.93,-3.63,3.60,3.65,3.10,6.53,6.53,6.56
163.24,2.90,-3.66,2.90,-3.67,3.66,3.69,3.12,6.55,6.55,6.56
164.88,2.86,-3.70,2.86,-3.70,3.70,3.73,3.15,6.57,6.56,6.56
166.53,2.82,-3.74,2.82,-3.75,3.74,3.77,3.17,6.56,6.56,6.56
168.19,2.78,-3.78,2.78,-3.78,3.77,3.81,3.20,6.55,6.55,6.56
169.87,2.73,-3.83,2.73,-3.80,3.81,3.85,3.23,6.53,6.53,6.56
171.57,2.68,-3.80,2.68,-3.81,3.85,3.89,3.27,6.53,6.53,6.48
173.29,2.63,-3.83,2.63,-3.85,3.90,3.92,3.30,6.52,6.52,6.46
175.02,2.57,-3.89,2.57,-3.91,3.95,3.96,3.34,6.52,6.52,6.46
176.77,2.52,-4.03,2.52,-4.01,4.00,3.99,3.38,6.52,6.52,6.55
178.54,2.46,-4.10,2.46,-4.09,4.05,4.02,3.42,6.51,6.51,6.56
180.32,2.40,-4.15,2.40,-4.14,4.10,4.05,3.47,6.50,6.50,6.55
182.13,2.34,-4.15,2.34,-4.17,4.15,4.08,3.52,6.48,6.48,6.49
183.95,2.27,-4.19,2.27,-4.19,4.18,4.11,3.57,6.46,6.46,6.46
185.79,2.21,-4.22,2.21,-4.21,4.21,4.14,3.62,6.42,6.42,6.43
187.65,2.15,-4.22,2.15,-4.22,4.23,4.16,3.68,6.38,6.38,6.37
189.52,2.09,-4.22,2.09,-4.23,4.23,4.19,3.74,6.32,6.32,6.31
191.42,2.03,-4.23,2.03,-4.25,4.24,4.21,3.80,6.27,6.27,6.26
193.33,1.97,-4.29,1.97,-4.27,4.26,4.24,3.86,6.23,6.23,6.26
195.27,1.90,-4.30,1.90,-4.28,4.29,4.26,3.93,6.19,6.19,6.20
197.22,1.83,-4.29,1.83,-4.30,4.33,4.28,4.00,6.16,6.16,6.12
199.19,1.77,-4.30,1.77,-4.34,4.38,4.30,4.07,6.15,6.15,6.07
201.18,1.71,-4.42,1.71,-4.40,4.43,4.32,4.14,6.14,6.14,6.13
203.19,1.66,-4.50,1.66,-4.48,4.48,4.34,4.21,6.14,6.14,6.16
205.23,1.62,-4.54,1.62,-4.55,4.51,4.36,4.28,6.13,6.13,6.16
207.28,1.58,-4.58,1.58,-4.59,4.53,4.38,4.36,6.11,6.11,6.16
209.35,1.55,-4.61,1.55,-4.60,4.54,4.40,4.43,6.09,6.09,6.16
211.44,1.51,-4.62,1.51,-4.58,4.54,4.42,4.50,6.05,6.05,6.13
213.56,1.49,-4.50,1.49,-4.52,4.52,4.44,4.58,6.01,6.01,5.99
215.69,1.47,-4.44,1.47,-4.46,4.50,4.45,4.65,5.96,5.96,5.90
217.85,1.45,-4.41,1.45,-4.42,4.48,4.47,4.72,5.93,5.92,5.86
220.03,1.43,-4.43,1.43,-4.43,4.47,4.49,4.79,5.90,5.90,5.86
222.23,1.40,-4.45,1.41,-4.45,4.47,4.50,4.86,5.88,5.88,5.86
224.45,1.38,-4.48,1.38,-4.48,4.48,4.52,4.92,5.86,5.86,5.86
226.70,1.35,-4.51,1.35,-4.51,4.51,4.53,4.98,5.86,5.85,5.86
228.96,1.31,-4.55,1.31,-4.55,4.53,4.55,5.04,5.84,5.84,5.86
231.25,1.27,-4.59,1.27,-4.59,4.56,4.56,5.09,5.83,5.83,5.86
233.57,1.22,-4.64,1.22,-4.62,4.59,4.58,5.14,5.81,5.81,5.86
235.90,1.18,-4.62,1.18,-4.61,4.61,4.59,5.18,5.78,5.78,5.80
238.26,1.13,-4.59,1.13,-4.60,4.63,4.60,5.22,5.75,5.75,5.72
240.64,1.08,-4.58,1.08,-4.60,4.64,4.61,5.25,5.72,5.72,5.66
243.05,1.03,-4.63,1.03,-4.63,4.65,4.63,5.28,5.68,5.68,5.66
245.48,0.98,-4.68,0.98,-4.67,4.65,4.64,5.29,5.64,5.64,5.66
247.93,0.94,-4.70,0.94,-4.69,4.65,4.65,5.31,5.59,5.59,5.64
250.41,0.90,-4.68,0.90,-4.68,4.65,4.65,5.31,5.54,5.54,5.57
252.92,0.86,-4.66,0.85,-4.66,4.64,4.66,5.31,5.49,5.49,5.51
255.45,0.81,-4.63,0.81,-4.62,4.63,4.67,5.30,5.44,5.44,5.44
258.00,0.77,-4.59,0.77,-4.59,4.62,4.68,5.28,5.39,5.39,5.36
260.58,0.72,-4.57,0.72,-4.58,4.61,4.68,5.26,5.33,5.33,5.29
263.19,0.68,-4.58,0.68,-4.59,4.60,4.68,5.23,5.28,5.28,5.26
265.82,0.63,-4.63,0.63,-4.60,4.61,4.69,5.19,5.24,5.24,5.26
268.48,0.59,-4.61,0.59,-4.61,4.62,4.69,5.15,5.21,5.21,5.20
271.16,0.54,-4.62,0.54,-4.63,4.65,4.69,5.10,5.19,5.19,5.16
273.87,0.50,-4.66,0.50,-4.66,4.68,4.69,5.05,5.18,5.18,5.16
276.61,0.46,-4.70,0.46,-4.71,4.71,4.69,5.00,5.16,5.16,5.16
279.38,0.41,-4.75,0.41,-4.75,4.73,4.69,4.94,5.14,5.14,5.16
282.17,0.37,-4.78,0.37,-4.76,4.73,4.68,4.88,5.11,5.11,5.16
284.99,0.33,-4.75,0.33,-4.76,4.73,4.68,4.81,5.06,5.06,5.08
287.84,0.29,-4.72,0.29,-4.74,4.71,4.67,4.75,5.00,5.00,5.01
290.72,0.25,-4.69,0.25,-4.69,4.68,4.66,4.68,4.93,4.93,4.94
293.63,0.21,-4.66,0.21,-4.64,4.63,4.65,4.61,4.84,4.84,4.87
296.57,0.17,-4.56,0.17,-4.58,4.58,4.64,4.54,4.75,4.75,4.73
299.53,0.13,-4.50,0.13,-4.52,4.53,4.63,4.47,4.66,4.66,4.63
302.53,0.09,-4.48,0.09,-4.47,4.48,4.62,4.40,4.57,4.57,4.57
305.55,0.05,-4.45,0.05,-4.44,4.45,4.60,4.33,4.50,4.50,4.50
308.61,0.01,-4.42,0.01,-4.42,4.44,4.58,4.27,4.45,4.45,4.43
311.69,-0.03,-4.39,-0.03,-4.41,4.44,4.57,4.20,4.41,4.41,4.37
314.81,-0.07,-4.43,-0.07,-4.42,4.46,4.55,4.13,4.39,4.39,4.36
317.96,-0.10,-4.46,-0.10,-4.46,4.48,4.52,4.07,4.38,4.38,4.36
321.14,-0.14,-4.50,-0.14,-4.50,4.50,4.50,4.01,4.36,4.36,4.36
324.35,-0.18,-4.53,-0.18,-4.55,4.50,4.48,3.95,4.33,4.33,4.36
327.59,-0.21,-4.57,-0.21,-4.56,4.49,4.45,3.89,4.28,4.28,4.36
330.87,-0.24,-4.57,-0.24,-4.54,4.47,4.43,3.84,4.22,4.22,4.32
334.18,-0.28,-4.47,-0.28,-4.48,4.43,4.40,3.78,4.15,4.15,4.19
337.52,-0.31,-4.37,-0.31,-4.37,4.39,4.37,3.73,4.08,4.08,4.06
340.90,-0.35,-4.27,-0.35,-4.26,4.34,4.34,3.69,4.00,4.00,3.92
344.30,-0.38,-4.17,-0.38,-4.20,4.29,4.30,3.64,3.90,3.90,3.79
347.75,-0.42,-4.18,-0.42,-4.19,4.22,4.27,3.60,3.81,3.81,3.76
351.23,-0.45,-4.21,-0.45,-4.21,4.16,4.23,3.56,3.71,3.71,3.76
354.74,-0.48,-4.24,-0.48,-4.20,4.12,4.20,3.53,3.64,3.64,3.76
358.28,-0.51,-4.14,-0.51,-4.13,4.09,4.16,3.49,3.57,3.57,3.63
361.87,-0.54,-4.03,-0.54,-4.04,4.06,4.12,3.46,3.52,3.52,3.48
365.49,-0.57,-3.93,-0.57,-3.97,4.04,4.08,3.43,3.47,3.47,3.36
369.14,-0.60,-3.96,-0.60,-3.96,4.02,4.04,3.41,3.42,3.42,3.36
372.83,-0.63,-3.99,-0.63,-3.98,3.99,4.00,3.39,3.36,3.36,3.36
376.56,-0.66,-4.01,-0.66,-4.00,3.96,3.95,3.37,3.30,3.30,3.35
380.33,-0.69,-3.98,-0.69,-3.98,3.93,3.91,3.35,3.24,3.24,3.29
384.13,-0.72,-3.94,-0.72,-3.95,3.90,3.86,3.34,3.18,3.18,3.22
387.97,-0.75,-3.89,-0.75,-3.90,3.87,3.81,3.32,3.12,3.12,3.14
391.85,-0.78,-3.86,-0.78,-3.83,3.85,3.77,3.31,3.07,3.07,3.08
395.77,-0.81,-3.76,-0.81,-3.77,3.82,3.72,3.30,3.00,3.00,2.95
399.73,-0.84,-3.70,-0.84,-3.73,3.78,3.67,3.30,2.94,2.95,2.86
403.72,-0.86,-3.72,-0.87,-3.72,3.75,3.62,3.29,2.89,2.89,2.86
407.76,-0.89,-3.75,-0.89,-3.73,3.73,3.57,3.29,2.84,2.84,2.86
411.84,-0.91,-3.74,-0.91,-3.73,3.70,3.51,3.28,2.79,2.79,2.83
415.96,-0.94,-3.70,-0.94,-3.70,3.67,3.46,3.28,2.73,2.73,2.76
420.12,-0.96,-3.65,-0.96,-3.66,3.64,3.40,3.28,2.67,2.67,2.69
424.32,-0.99,-3.61,-0.99,-3.60,3.60,3.35,3.28,2.61,2.61,2.62
428.56,-1.01,-3.55,-1.01,-3.53,3.54,3.29,3.28,2.53,2.53,2.54
432.85,-1.04,-3.43,-1.04,-3.45,3.48,3.24,3.27,2.44,2.44,2.40
437.18,-1.06,-3.37,-1.06,-3.39,3.40,3.18,3.27,2.34,2.34,2.31
441.55,-1.08,-3.33,-1.08,-3.33,3.32,3.12,3.27,2.24,2.24,2.25
445.96,-1.10,-3.28,-1.10,-3.27,3.23,3.06,3.26,2.13,2.13,2.18
450.42,-1.12,-3.19,-1.12,-3.18,3.15,3.01,3.25,2.03,2.03,2.06
454.93,-1.15,-3.07,-1.15,-3.07,3.08,2.95,3.25,1.93,1.93,1.93
459.48,-1.17,-2.94,-1.17,-2.97,3.01,2.88,3.23,1.84,1.84,1.78
464.07,-1.18,-2.89,-1.19,-2.89,2.93,2.82,3.22,1.75,1.75,1.70
468.71,-1.20,-2.84,-1.20,-2.83,2.85,2.76,3.20,1.65,1.65,1.63
473.40,-1.22,-2.79,-1.22,-2.80,2.77,2.70,3.18,1.55,1.55,1.57
478.13,-1.24,-2.74,-1.24,-2.74,2.69,2.64,3.15,1.45,1.45,1.50
482.91,-1.26,-2.66,-1.26,-2.65,2.61,2.58,3.12,1.35,1.35,1.40
487.74,-1.28,-2.54,-1.28,-2.54,2.54,2.51,3.09,1.26,1.26,1.27
492.62,-1.29,-2.42,-1.29,-2.43,2.46,2.45,3.05,1.17,1.17,1.13
497.55,-1.31,-2.33,-1.31,-2.34,2.38,2.38,3.01,1.07,1.07,1.02
502.52,-1.33,-2.28,-1.33,-2.27,2.30,2.32,2.96,0.97,0.97,0.95
507.55,-1.34,-2.22,-1.34,-2.23,2.22,2.25,2.91,0.88,0.88,0.88
512.62,-1.36,-2.17,-1.36,-2.16,2.14,2.19,2.85,0.78,0.78,0.81
517.75,-1.37,-2.11,-1.37,-2.08,2.06,2.12,2.79,0.69,0.69,0.74
522.93,-1.38,-1.97,-1.38,-2.00,1.99,2.05,2.72,0.61,0.61,0.59
528.16,-1.40,-1.90,-1.40,-1.92,1.92,1.98,2.65,0.52,0.52,0.51
533.44,-1.41,-1.85,-1.41,-1.84,1.85,1.92,2.57,0.44,0.44,0.44
538.77,-1.42,-1.79,-1.42,-1.76,1.78,1.85,2.49,0.36,0.36,0.37
