frequency,raw,error,smoothed,error_smoothed,equalization,parametric_eq,fixed_band_eq,equalized_raw,equalized_smoothed,target
20.00,10.22,0.19,10.22,0.19,-0.17,-0.52,-0.54,10.05,10.05,10.03
20.20,10.23,0.20,10.23,0.20,-0.19,-0.53,-0.55,10.04,10.04,10.04
20.40,10.25,0.21,10.25,0.21,-0.22,-0.54,-0.57,10.03,10.03,10.04
20.61,10.27,0.22,10.27,0.23,-0.24,-0.55,-0.58,10.03,10.03,10.04
20.81,10.29,0.25,10.29,0.25,-0.26,-0.56,-0.60,10.03,10.03,10.05
21.02,10.32,0.27,10.32,0.27,-0.28,-0.57,-0.62,10.04,10.04,10.05
21.23,10.35,0.30,10.35,0.30,-0.30,-0.58,-0.63,10.05,10.05,10.05
21.44,10.39,0.33,10.39,0.33,-0.32,-0.59,-0.65,10.06,10.06,10.06
21.66,10.42,0.36,10.42,0.36,-0.35,-0.60,-0.67,10.07,10.07,10.06
21.87,10.45,0.38,10.44,0.38,-0.37,-0.61,-0.69,10.08,10.07,10.07
22.09,10.47,0.40,10.47,0.40,-0.39,-0.63,-0.71,10.08,10.08,10.07
22.31,10.49,0.41,10.49,0.41,-0.41,-0.64,-0.73,10.08,10.08,10.08
22.54,10.51,0.43,10.51,0.43,-0.43,-0.65,-0.75,10.08,10.08,10.08
22.76,10.52,0.44,10.52,0.44,-0.45,-0.66,-0.77,10.08,10.08,10.08
22.99,10.55,0.46,10.55,0.46,-0.47,-0.68,-0.79,10.08,10.08,10.09
23.22,10.57,0.48,10.57,0.48,-0.49,-0.69,-0.81,10.08,10.08,10.09
23.45,10.60,0.51,10.60,0.51,-0.51,-0.70,-0.84,10.09,10.09,10.09
23.69,10.64,0.54,10.64,0.54,-0.54,-0.72,-0.86,10.09,10.09,10.09
23.92,10.67,0.57,10.67,0.57,-0.57,-0.73,-0.88,10.10,10.10,10.10
24.16,10.70,0.61,10.70,0.61,-0.61,-0.74,-0.91,10.10,10.10,10.10
24.40,10.74,0.64,10.74,0.64,-0.64,-0.76,-0.93,10.10,10.10,10.10
24.65,10.77,0.67,10.77,0.67,-0.67,-0.77,-0.96,10.10,10.10,10.10
24.89,10.81,0.71,10.81,0.71,-0.71,-0.79,-0.98,10.10,10.10,10.10
25.14,10.84,0.74,10.84,0.74,-0.75,-0.80,-1.01,10.10,10.10,10.10
25.39,10.88,0.78,10.88,0.78,-0.78,-0.82,-1.03,10.10,10.10,10.10
25.65,10.92,0.82,10.92,0.82,-0.82,-0.84,-1.06,10.10,10.10,10.10
25.91,10.95,0.86,10.95,0.86,-0.86,-0.85,-1.08,10.10,10.10,10.10
26.16,10.99,0.89,10.99,0.89,-0.89,-0.87,-1.11,10.10,10.10,10.10
26.43,11.02,0.93,11.02,0.93,-0.93,-0.88,-1.13,10.10,10.09,10.09
26.69,11.06,0.96,11.06,0.96,-0.96,-0.90,-1.16,10.09,10.09,10.09
26.96,11.09,1.00,11.09,1.00,-1.00,-0.92,-1.19,10.09,10.09,10.09
27.23,11.12,1.03,11.12,1.03,-1.03,-0.94,-1.21,10.09,10.09,10.09
27.50,11.15,1.06,11.15,1.06,-1.06,-0.95,-1.24,10.09,10.09,10.09
27.77,11.18,1.09,11.18,1.09,-1.09,-0.97,-1.26,10.08,10.08,10.08
28.05,11.20,1.12,11.20,1.12,-1.12,-0.99,-1.29,10.08,10.08,10.08
28.33,11.23,1.15,11.23,1.15,-1.15,-1.01,-1.31,10.08,10.08,10.08
28.62,11.25,1.17,11.25,1.17,-1.17,-1.03,-1.33,10.08,10.08,10.08
28.90,11.27,1.20,11.27,1.20,-1.20,-1.05,-1.35,10.07,10.07,10.07
29.19,11.29,1.22,11.29,1.22,-1.22,-1.06,-1.37,10.07,10.07,10.07
29.48,11.31,1.24,11.31,1.24,-1.24,-1.08,-1.39,10.07,10.07,10.07
29.78,11.33,1.26,11.33,1.26,-1.27,-1.10,-1.41,10.06,10.06,10.07
30.08,11.35,1.29,11.35,1.29,-1.28,-1.12,-1.43,10.06,10.06,10.06
30.38,11.36,1.30,11.36,1.30,-1.30,-1.14,-1.45,10.06,10.06,10.06
30.68,11.38,1.32,11.38,1.32,-1.32,-1.16,-1.46,10.06,10.06,10.06
30.99,11.39,1.34,11.39,1.34,-1.33,-1.19,-1.48,10.06,10.06,10.05
31.30,11.40,1.35,11.40,1.35,-1.35,-1.21,-1.49,10.05,10.05,10.05
31.61,11.41,1.36,11.41,1.36,-1.36,-1.23,-1.50,10.05,10.05,10.05
31.93,11.42,1.38,11.42,1.38,-1.38,-1.25,-1.51,10.05,10.05,10.05
32.24,11.43,1.39,11.43,1.39,-1.39,-1.27,-1.52,10.04,10.04,10.04
32.57,11.45,1.41,11.45,1.41,-1.41,-1.29,-1.53,10.04,10.04,10.04
32.89,11.46,1.42,11.46,1.42,-1.42,-1.31,-1.54,10.04,10.04,10.04
33.22,11.48,1.44,11.48,1.44,-1.44,-1.34,-1.54,10.04,10.04,10.04
33.55,11.50,1.46,11.50,1.46,-1.46,-1.36,-1.55,10.03,10.03,10.03
33.89,11.51,1.48,11.51,1.48,-1.48,-1.38,-1.56,10.03,10.03,10.03
34.23,11.53,1.50,11.53,1.50,-1.50,-1.41,-1.56,10.03,10.03,10.03
34.57,11.55,1.53,11.55,1.53,-1.53,-1.43,-1.56,10.02,10.02,10.02
34.92,11.57,1.55,11.57,1.55,-1.55,-1.45,-1.57,10.02,10.02,10.02
35.27,11.59,1.57,11.59,1.57,-1.57,-1.47,-1.57,10.01,10.01,10.02
35.62,11.61,1.59,11.61,1.59,-1.59,-1.50,-1.57,10.01,10.01,10.01
35.97,11.62,1.62,11.62,1.62,-1.62,-1.52,-1.57,10.01,10.01,10.01
36.33,11.64,1.64,11.64,1.64,-1.63,-1.54,-1.58,10.01,10.00,10.00
36.70,11.65,1.66,11.65,1.66,-1.65,-1.57,-1.58,10.00,10.00,10.00
37.06,11.66,1.67,11.66,1.67,-1.67,-1.59,-1.58,10.00,9.99,9.99
37.43,11.67,1.68,11.67,1.68,-1.68,-1.61,-1.59,9.99,9.99,9.99
37.81,11.67,1.69,11.67,1.69,-1.69,-1.64,-1.59,9.98,9.98,9.98
38.19,11.68,1.70,11.68,1.70,-1.71,-1.66,-1.60,9.97,9.97,9.97
38.57,11.68,1.72,11.68,1.72,-1.72,-1.68,-1.60,9.96,9.96,9.97
38.95,11.69,1.73,11.69,1.73,-1.73,-1.71,-1.61,9.96,9.96,9.96
39.34,11.69,1.74,11.69,1.74,-1.74,-1.73,-1.61,9.95,9.95,9.95
39.74,11.70,1.76,11.70,1.76,-1.76,-1.75,-1.62,9.94,9.94,9.94
40.14,11.71,1.77,11.71,1.77,-1.77,-1.77,-1.63,9.93,9.93,9.93
40.54,11.72,1.79,11.72,1.79,-1.79,-1.80,-1.64,9.93,9.93,9.93
40.94,11.72,1.81,11.72,1.81,-1.81,-1.82,-1.65,9.92,9.92,9.92
41.35,11.73,1.83,11.73,1.83,-1.83,-1.84,-1.67,9.91,9.91,9.91
41.76,11.74,1.84,11.74,1.84,-1.85,-1.86,-1.68,9.90,9.90,9.90
42.18,11.75,1.86,11.75,1.86,-1.86,-1.88,-1.69,9.89,9.89,9.89
42.60,11.76,1.88,11.76,1.88,-1.88,-1.90,-1.71,9.88,9.88,9.88
43.03,11.77,1.90,11.77,1.90,-1.90,-1.92,-1.73,9.87,9.87,9.87
43.46,11.78,1.92,11.78,1.92,-1.92,-1.94,-1.75,9.86,9.86,9.86
43.90,11.79,1.94,11.79,1.94,-1.94,-1.96,-1.77,9.85,9.85,9.85
44.33,11.80,1.95,11.80,1.95,-1.95,-1.98,-1.79,9.84,9.84,9.84
44.78,11.80,1.96,11.80,1.96,-1.96,-2.00,-1.81,9.83,9.83,9.83
45.23,11.80,1.98,11.80,1.98,-1.98,-2.02,-1.84,9.82,9.82,9.83
45.68,11.81,1.99,11.81,1.99,-1.99,-2.04,-1.86,9.82,9.82,9.82
46.13,11.81,2.00,11.81,2.00,-2.00,-2.05,-1.89,9.81,9.81,9.81
46.60,11.81,2.01,11.81,2.01,-2.01,-2.07,-1.92,9.80,9.80,9.80
47.06,11.81,2.02,11.81,2.02,-2.02,-2.09,-1.95,9.79,9.79,9.79
47.53,11.82,2.03,11.82,2.03,-2.03,-2.10,-1.98,9.78,9.78,9.78
48.01,11.82,2.04,11.82,2.04,-2.04,-2.12,-2.01,9.78,9.78,9.78
48.49,11.82,2.05,11.82,2.05,-2.05,-2.13,-2.04,9.77,9.77,9.77
48.97,11.81,2.06,11.81,2.06,-2.05,-2.15,-2.08,9.76,9.76,9.76
49.46,11.81,2.06,11.81,2.06,-2.06,-2.16,-2.11,9.75,9.75,9.75
49.96,11.81,2.07,11.81,2.07,-2.07,-2.17,-2.15,9.74,9.74,9.74
50.46,11.80,2.07,11.80,2.07,-2.07,-2.19,-2.18,9.73,9.73,9.73
50.96,11.80,2.08,11.80,2.08,-2.09,-2.20,-2.22,9.71,9.71,9.72
51.47,11.80,2.09,11.80,2.09,-2.10,-2.21,-2.26,9.70,9.70,9.71
51.99,11.81,2.11,11.81,2.11,-2.12,-2.22,-2.30,9.69,9.69,9.70
52.51,11.82,2.13,11.82,2.13,-2.13,-2.23,-2.33,9.68,9.68,9.69
53.03,11.83,2.16,11.83,2.16,-2.15,-2.24,-2.37,9.67,9.67,9.67
53.56,11.84,2.18,11.84,2.18,-2.18,-2.25,-2.41,9.66,9.66,9.66
54.10,11.85,2.20,11.85,2.20,-2.20,-2.26,-2.45,9.65,9.65,9.65
54.64,11.85,2.22,11.85,2.22,-2.22,-2.27,-2.48,9.64,9.64,9.63
55.18,11.85,2.24,11.85,2.24,-2.24,-2.28,-2.52,9.62,9.62,9.61
55.74,11.85,2.25,11.85,2.25,-2.25,-2.28,-2.55,9.60,9.60,9.60
56.29,11.84,2.26,11.85,2.26,-2.27,-2.29,-2.59,9.58,9.58,9.58
56.86,11.84,2.28,11.84,2.28,-2.28,-2.30,-2.62,9.56,9.56,9.56
57.42,11.83,2.29,11.83,2.29,-2.29,-2.30,-2.65,9.54,9.54,9.54
58.00,11.83,2.30,11.83,2.30,-2.30,-2.31,-2.68,9.53,9.52,9.52
58.58,11.82,2.31,11.82,2.31,-2.31,-2.32,-2.70,9.51,9.51,9.50
59.16,11.81,2.32,11.81,2.32,-2.32,-2.32,-2.73,9.48,9.48,9.48
59.76,11.79,2.33,11.79,2.33,-2.33,-2.33,-2.75,9.46,9.46,9.46
60.35,11.78,2.34,11.78,2.34,-2.34,-2.33,-2.77,9.44,9.44,9.44
60.96,11.77,2.35,11.77,2.35,-2.35,-2.34,-2.78,9.42,9.42,9.42
61.57,11.76,2.36,11.76,2.36,-2.36,-2.34,-2.80,9.40,9.40,9.40
62.18,11.74,2.36,11.74,2.36,-2.36,-2.35,-2.81,9.38,9.38,9.38
62.80,11.73,2.37,11.73,2.37,-2.37,-2.35,-2.81,9.36,9.36,9.36
63.43,11.72,2.38,11.72,2.38,-2.38,-2.36,-2.82,9.34,9.34,9.34
64.07,11.71,2.39,11.71,2.39,-2.39,-2.36,-2.82,9.32,9.32,9.32
64.71,11.70,2.40,11.70,2.40,-2.40,-2.36,-2.82,9.30,9.30,9.30
65.35,11.69,2.41,11.69,2.41,-2.41,-2.37,-2.81,9.28,9.28,9.28
66.01,11.68,2.42,11.68,2.42,-2.42,-2.37,-2.80,9.26,9.26,9.26
66.67,11.67,2.43,11.66,2.43,-2.43,-2.38,-2.80,9.24,9.24,9.24
67.33,11.65,2.44,11.65,2.44,-2.43,-2.38,-2.78,9.22,9.22,9.22
68.01,11.64,2.44,11.64,2.44,-2.44,-2.38,-2.77,9.20,9.20,9.20
68.69,11.63,2.45,11.63,2.45,-2.45,-2.39,-2.75,9.18,9.18,9.18
69.37,11.61,2.45,11.61,2.45,-2.45,-2.39,-2.74,9.16,9.16,9.16
70.07,11.60,2.46,11.60,2.46,-2.46,-2.39,-2.72,9.14,9.14,9.14
70.77,11.59,2.46,11.59,2.46,-2.47,-2.40,-2.70,9.12,9.12,9.12
71.48,11.58,2.47,11.58,2.47,-2.47,-2.40,-2.68,9.11,9.11,9.11
72.19,11.56,2.48,11.56,2.48,-2.47,-2.41,-2.66,9.09,9.09,9.09
72.91,11.55,2.48,11.55,2.48,-2.48,-2.41,-2.64,9.07,9.07,9.07
73.64,11.53,2.48,11.53,2.48,-2.48,-2.41,-2.61,9.06,9.06,9.05
74.38,11.52,2.48,11.52,2.48,-2.48,-2.42,-2.59,9.04,9.04,9.04
75.12,11.50,2.48,11.50,2.48,-2.48,-2.42,-2.57,9.02,9.02,9.02
75.87,11.48,2.48,11.48,2.48,-2.48,-2.43,-2.55,9.00,9.00,9.01
76.63,11.47,2.48,11.47,2.48,-2.48,-2.43,-2.53,8.99,8.99,8.99
77.40,11.46,2.48,11.46,2.48,-2.48,-2.43,-2.51,8.98,8.98,8.98
78.17,11.45,2.48,11.45,2.48,-2.48,-2.44,-2.49,8.96,8.96,8.96
78.95,11.44,2.49,11.44,2.49,-2.48,-2.44,-2.47,8.95,8.95,8.95
79.74,11.42,2.49,11.42,2.49,-2.49,-2.44,-2.45,8.94,8.94,8.94
80.54,11.41,2.49,11.41,2.49,-2.48,-2.45,-2.44,8.92,8.92,8.92
81.35,11.39,2.48,11.39,2.48,-2.48,-2.45,-2.42,8.91,8.91,8.91
82.16,11.38,2.48,11.38,2.48,-2.48,-2.46,-2.41,8.90,8.90,8.90
82.98,11.36,2.48,11.36,2.48,-2.48,-2.46,-2.40,8.88,8.88,8.88
83.81,11.34,2.47,11.34,2.47,-2.47,-2.47,-2.39,8.87,8.87,8.87
84.65,11.32,2.47,11.32,2.47,-2.47,-2.47,-2.38,8.85,8.85,8.85
85.50,11.30,2.46,11.30,2.46,-2.46,-2.47,-2.38,8.84,8.84,8.84
86.35,11.28,2.46,11.28,2.46,-2.46,-2.48,-2.37,8.82,8.82,8.82
87.22,11.25,2.45,11.25,2.45,-2.45,-2.48,-2.37,8.80,8.80,8.80
88.09,11.23,2.45,11.22,2.45,-2.45,-2.49,-2.37,8.78,8.78,8.78
88.97,11.20,2.44,11.20,2.44,-2.45,-2.49,-2.37,8.75,8.75,8.75
89.86,11.17,2.44,11.17,2.44,-2.45,-2.50,-2.37,8.72,8.72,8.73
90.76,11.14,2.44,11.15,2.44,-2.45,-2.50,-2.38,8.69,8.69,8.70
91.66,11.12,2.45,11.12,2.45,-2.46,-2.50,-2.38,8.66,8.66,8.67
92.58,11.11,2.47,11.11,2.47,-2.47,-2.51,-2.39,8.64,8.64,8.64
93.51,11.09,2.48,11.09,2.48,-2.47,-2.51,-2.40,8.61,8.61,8.60
94.44,11.06,2.49,11.06,2.49,-2.48,-2.52,-2.41,8.58,8.58,8.57
95.39,11.03,2.50,11.03,2.50,-2.49,-2.52,-2.43,8.54,8.54,8.53
96.34,10.99,2.50,10.98,2.50,-2.49,-2.53,-2.44,8.50,8.49,8.49
97.30,10.94,2.49,10.94,2.50,-2.50,-2.53,-2.46,8.44,8.44,8.44
98.28,10.89,2.49,10.90,2.49,-2.51,-2.53,-2.48,8.39,8.39,8.40
99.26,10.86,2.50,10.86,2.50,-2.52,-2.54,-2.50,8.34,8.34,8.36
100.25,10.83,2.52,10.83,2.52,-2.53,-2.54,-2.52,8.30,8.30,8.31
101.25,10.82,2.55,10.82,2.55,-2.55,-2.55,-2.54,8.27,8.26,8.27
102.27,10.80,2.58,10.80,2.58,-2.57,-2.55,-2.56,8.23,8.23,8.22
103.29,10.79,2.61,10.79,2.61,-2.60,-2.55,-2.58,8.19,8.19,8.18
104.32,10.77,2.63,10.76,2.63,-2.62,-2.56,-2.61,8.15,8.14,8.13
105.37,10.74,2.65,10.74,2.65,-2.64,-2.56,-2.63,8.09,8.10,8.09
106.42,10.71,2.66,10.71,2.66,-2.66,-2.56,-2.66,8.05,8.05,8.05
107.48,10.67,2.67,10.67,2.67,-2.68,-2.57,-2.68,8.00,8.00,8.00
108.56,10.64,2.69,10.64,2.69,-2.69,-2.57,-2.70,7.95,7.95,7.96
109.64,10.61,2.70,10.61,2.70,-2.70,-2.57,-2.73,7.91,7.91,7.91
110.74,10.58,2.71,10.58,2.71,-2.71,-2.58,-2.75,7.87,7.87,7.87
111.85,10.54,2.71,10.54,2.72,-2.72,-2.58,-2.77,7.82,7.83,7.83
112.97,10.51,2.72,10.51,2.72,-2.72,-2.58,-2.79,7.79,7.79,7.79
114.10,10.48,2.73,10.48,2.73,-2.73,-2.59,-2.82,7.75,7.75,7.75
115.24,10.44,2.74,10.44,2.74,-2.73,-2.59,-2.83,7.71,7.71,7.71
116.39,10.40,2.73,10.40,2.73,-2.73,-2.59,-2.85,7.67,7.67,7.67
117.55,10.36,2.73,10.36,2.73,-2.72,-2.59,-2.86,7.63,7.63,7.63
118.73,10.31,2.72,10.31,2.72,-2.72,-2.60,-2.88,7.59,7.59,7.59
119.92,10.27,2.71,10.27,2.71,-2.71,-2.60,-2.89,7.55,7.55,7.56
121.12,10.22,2.70,10.22,2.70,-2.70,-2.60,-2.90,7.52,7.52,7.53
122.33,10.18,2.69,10.18,2.69,-2.69,-2.60,-2.90,7.49,7.49,7.49
123.55,10.15,2.68,10.15,2.68,-2.68,-2.60,-2.90,7.46,7.46,7.46
124.79,10.11,2.67,10.11,2.67,-2.67,-2.61,-2.90,7.44,7.44,7.43
126.03,10.07,2.66,10.07,2.66,-2.66,-2.61,-2.90,7.41,7.41,7.40
127.29,10.02,2.64,10.02,2.64,-2.64,-2.61,-2.89,7.38,7.38,7.38
128.57,9.97,2.62,9.97,2.62,-2.62,-2.61,-2.89,7.35,7.35,7.35
129.85,9.91,2.59,9.91,2.59,-2.60,-2.61,-2.87,7.32,7.32,7.32
131.15,9.86,2.56,9.86,2.57,-2.57,-2.61,-2.86,7.29,7.29,7.29
132.46,9.80,2.53,9.80,2.53,-2.53,-2.61,-2.84,7.27,7.27,7.27
133.79,9.74,2.50,9.74,2.50,-2.50,-2.61,-2.83,7.24,7.24,7.24
135.12,9.67,2.46,9.67,2.46,-2.46,-2.61,-2.81,7.22,7.22,7.21
136.48,9.60,2.42,9.60,2.42,-2.41,-2.61,-2.79,7.19,7.19,7.18
137.84,9.52,2.37,9.52,2.37,-2.36,-2.61,-2.76,7.17,7.16,7.15
139.22,9.44,2.32,9.44,2.32,-2.31,-2.61,-2.74,7.14,7.14,7.13
140.61,9.36,2.26,9.36,2.26,-2.25,-2.61,-2.71,7.11,7.10,7.10
142.02,9.28,2.21,9.27,2.21,-2.21,-2.61,-2.68,7.07,7.07,7.07
143.44,9.20,2.16,9.20,2.16,-2.17,-2.61,-2.65,7.03,7.03,7.04
144.87,9.13,2.13,9.13,2.13,-2.15,-2.61,-2.63,6.99,6.99,7.00
146.32,9.09,2.12,9.09,2.12,-2.14,-2.61,-2.60,6.95,6.95,6.97
147.78,9.06,2.12,9.07,2.13,-2.15,-2.60,-2.57,6.91,6.91,6.94
149.26,9.07,2.16,9.07,2.16,-2.19,-2.60,-2.54,6.88,6.88,6.90
150.75,9.09,2.22,9.09,2.22,-2.24,-2.60,-2.51,6.85,6.85,6.87
152.26,9.13,2.29,9.13,2.29,-2.30,-2.60,-2.48,6.82,6.83,6.83
153.78,9.18,2.38,9.18,2.38,-2.38,-2.59,-2.45,6.80,6.80,6.80
155.32,9.23,2.47,9.23,2.47,-2.45,-2.59,-2.43,6.77,6.77,6.76
156.88,9.27,2.55,9.27,2.55,-2.53,-2.59,-2.40,6.74,6.74,6.72
158.44,9.30,2.61,9.30,2.61,-2.59,-2.59,-2.38,6.71,6.71,6.68
160.03,9.31,2.67,9.31,2.66,-2.65,-2.58,-2.35,6.67,6.66,6.65
161.63,9.30,2.70,9.30,2.70,-2.69,-2.58,-2.33,6.62,6.62,6.61
163.24,9.29,2.72,9.29,2.72,-2.72,-2.57,-2.31,6.57,6.57,6.57
164.88,9.26,2.73,9.26,2.73,-2.73,-2.57,-2.29,6.53,6.53,6.53
166.53,9.22,2.73,9.22,2.73,-2.74,-2.56,-2.27,6.48,6.49,6.49
168.19,9.18,2.73,9.18,2.74,-2.74,-2.56,-2.26,6.45,6.45,6.45
169.87,9.14,2.73,9.14,2.73,-2.73,-2.55,-2.24,6.41,6.41,6.41
171.57,9.09,2.72,9.09,2.72,-2.72,-2.55,-2.23,6.37,6.37,6.37
173.29,9.04,2.71,9.04,2.71,-2.71,-2.54,-2.22,6.33,6.33,6.33
175.02,8.99,2.70,8.99,2.70,-2.70,-2.54,-2.21,6.28,6.28,6.29
176.77,8.93,2.69,8.93,2.69,-2.69,-2.53,-2.20,6.24,6.24,6.25
178.54,8.88,2.68,8.88,2.68,-2.68,-2.52,-2.20,6.20,6.20,6.20
180.32,8.83,2.67,8.83,2.67,-2.67,-2.52,-2.19,6.16,6.16,6.16
182.13,8.78,2.66,8.78,2.66,-2.66,-2.51,-2.19,6.12,6.12,6.12
183.95,8.72,2.65,8.72,2.65,-2.64,-2.50,-2.19,6.08,6.08,6.08
185.79,8.67,2.63,8.67,2.63,-2.63,-2.49,-2.19,6.04,6.04,6.03
187.65,8.61,2.62,8.61,2.62,-2.62,-2.49,-2.19,5.99,5.99,5.99
189.52,8.55,2.61,8.55,2.61,-2.61,-2.48,-2.20,5.94,5.94,5.95
191.42,8.50,2.59,8.50,2.59,-2.60,-2.47,-2.20,5.90,5.90,5.90
193.33,8.44,2.58,8.44,2.58,-2.59,-2.46,-2.21,5.85,5.86,5.86
195.27,8.39,2.57,8.39,2.58,-2.57,-2.45,-2.22,5.81,5.81,5.81
197.22,8.34,2.57,8.33,2.57,-2.56,-2.44,-2.23,5.77,5.77,5.77
199.19,8.28,2.56,8.28,2.56,-2.55,-2.43,-2.24,5.73,5.73,5.72
201.18,8.22,2.54,8.22,2.54,-2.54,-2.42,-2.25,5.68,5.68,5.68
203.19,8.15,2.52,8.15,2.52,-2.52,-2.41,-2.26,5.63,5.63,5.63
205.23,8.09,2.50,8.09,2.51,-2.51,-2.40,-2.27,5.58,5.58,5.58
207.28,8.02,2.49,8.02,2.49,-2.50,-2.39,-2.29,5.53,5.53,5.53
209.35,7.96,2.47,7.96,2.48,-2.48,-2.38,-2.30,5.48,5.48,5.49
211.44,7.90,2.47,7.90,2.47,-2.47,-2.36,-2.31,5.44,5.44,5.44
213.56,7.85,2.46,7.85,2.46,-2.46,-2.35,-2.33,5.39,5.39,5.39
215.69,7.79,2.44,7.79,2.45,-2.44,-2.34,-2.34,5.35,5.35,5.34
217.85,7.73,2.43,7.73,2.43,-2.43,-2.33,-2.36,5.30,5.30,5.29
220.03,7.66,2.42,7.66,2.41,-2.41,-2.31,-2.37,5.25,5.25,5.25
222.23,7.60,2.40,7.60,2.40,-2.40,-2.30,-2.38,5.20,5.20,5.20
224.45,7.53,2.38,7.53,2.38,-2.38,-2.29,-2.39,5.16,5.16,5.16
226.70,7.47,2.35,7.47,2.35,-2.35,-2.27,-2.40,5.11,5.11,5.11
228.96,7.40,2.33,7.40,2.33,-2.33,-2.26,-2.41,5.07,5.07,5.07
231.25,7.34,2.31,7.34,2.31,-2.30,-2.24,-2.42,5.03,5.03,5.03
233.57,7.27,2.28,7.27,2.28,-2.28,-2.23,-2.42,4.99,4.99,4.99
235.90,7.20,2.25,7.20,2.25,-2.25,-2.21,-2.42,4.96,4.96,4.96
238.26,7.14,2.22,7.14,2.22,-2.22,-2.19,-2.42,4.92,4.92,4.92
240.64,7.08,2.19,7.08,2.19,-2.19,-2.18,-2.42,4.89,4.89,4.89
243.05,7.03,2.16,7.03,2.16,-2.17,-2.16,-2.41,4.86,4.86,4.86
245.48,6.97,2.14,6.97,2.14,-2.14,-2.14,-2.41,4.84,4.84,4.84
247.93,6.92,2.11,6.92,2.11,-2.11,-2.13,-2.40,4.81,4.81,4.81
250.41,6.87,2.09,6.87,2.09,-2.08,-2.11,-2.38,4.79,4.79,4.78
252.92,6.82,2.06,6.82,2.06,-2.06,-2.09,-2.36,4.76,4.76,4.76
255.45,6.76,2.03,6.76,2.03,-2.03,-2.07,-2.34,4.73,4.74,4.73
258.00,6.70,2.00,6.70,2.00,-2.00,-2.05,-2.32,4.71,4.71,4.71
260.58,6.65,1.97,6.65,1.97,-1.97,-2.03,-2.30,4.68,4.68,4.68
263.19,6.59,1.94,6.59,1.94,-1.94,-2.01,-2.27,4.65,4.65,4.65
265.82,6.53,1.91,6.53,1.91,-1.91,-1.99,-2.24,4.62,4.62,4.62
268.48,6.47,1.88,6.47,1.88,-1.89,-1.97,-2.21,4.59,4.59,4.59
271.16,6.42,1.86,6.42,1.86,-1.86,-1.95,-2.17,4.56,4.56,4.56
273.87,6.36,1.84,6.36,1.84,-1.83,-1.93,-2.13,4.52,4.52,4.52
276.61,6.30,1.81,6.30,1.81,-1.81,-1.91,-2.09,4.49,4.49,4.48
279.38,6.23,1.79,6.23,1.79,-1.79,-1.88,-2.05,4.45,4.45,4.45
282.17,6.17,1.76,6.17,1.76,-1.76,-1.86,-2.01,4.41,4.41,4.41
284.99,6.11,1.74,6.11,1.74,-1.74,-1.84,-1.96,4.37,4.37,4.37
287.84,6.04,1.71,6.04,1.71,-1.72,-1.81,-1.92,4.33,4.33,4.33
290.72,5.98,1.69,5.98,1.69,-1.69,-1.79,-1.87,4.29,4.29,4.29
293.63,5.91,1.67,5.91,1.67,-1.66,-1.77,-1.82,4.25,4.25,4.25
296.57,5.85,1.64,5.85,1.64,-1.64,-1.74,-1.78,4.21,4.21,4.21
299.53,5.78,1.61,5.78,1.61,-1.61,-1.72,-1.73,4.17,4.17,4.17
302.53,5.71,1.58,5.71,1.58,-1.58,-1.69,-1.68,4.13,4.13,4.13
305.55,5.63,1.55,5.63,1.55,-1.55,-1.66,-1.63,4.08,4.08,4.08
308.61,5.56,1.52,5.56,1.52,-1.52,-1.64,-1.58,4.04,4.04,4.04
311.69,5.49,1.48,5.49,1.49,-1.49,-1.61,-1.54,4.00,4.00,4.00
314.81,5.42,1.45,5.42,1.45,-1.46,-1.58,-1.49,3.96,3.96,3.96
317.96,5.35,1.43,5.35,1.42,-1.42,-1.56,-1.44,3.92,3.92,3.92
321.14,5.28,1.40,5.28,1.39,-1.39,-1.53,-1.39,3.88,3.88,3.88
324.35,5.20,1.36,5.20,1.36,-1.36,-1.50,-1.35,3.84,3.84,3.84
327.59,5.13,1.33,5.13,1.33,-1.33,-1.47,-1.30,3.80,3.80,3.80
330.87,5.06,1.30,5.06,1.30,-1.30,-1.44,-1.25,3.76,3.76,3.76
334.18,4.99,1.27,4.99,1.27,-1.28,-1.41,-1.21,3.71,3.72,3.72
337.52,4.93,1.25,4.93,1.25,-1.25,-1.38,-1.17,3.67,3.67,3.68
340.90,4.87,1.23,4.87,1.23,-1.24,-1.35,-1.12,3.63,3.63,3.64
344.30,4.81,1.21,4.82,1.21,-1.22,-1.32,-1.08,3.60,3.60,3.60
347.75,4.76,1.20,4.76,1.20,-1.21,-1.29,-1.04,3.56,3.56,3.56
351.23,4.72,1.19,4.72,1.19,-1.19,-1.25,-1.00,3.52,3.52,3.52
354.74,4.67,1.18,4.67,1.18,-1.18,-1.22,-0.96,3.49,3.49,3.48
358.28,4.61,1.17,4.61,1.17,-1.16,-1.19,-0.92,3.45,3.45,3.44
361.87,4.56,1.15,4.56,1.15,-1.15,-1.15,-0.88,3.41,3.41,3.40
365.49,4.49,1.13,4.49,1.13,-1.13,-1.12,-0.84,3.37,3.37,3.36
369.14,4.43,1.10,4.43,1.10,-1.10,-1.09,-0.80,3.32,3.32,3.32
372.83,4.36,1.07,4.36,1.08,-1.08,-1.05,-0.77,3.28,3.28,3.28
376.56,4.29,1.04,4.29,1.04,-1.05,-1.02,-0.73,3.24,3.24,3.24
380.33,4.22,1.01,4.22,1.02,-1.02,-0.98,-0.70,3.20,3.20,3.20
384.13,4.15,0.99,4.15,0.99,-0.99,-0.94,-0.66,3.16,3.16,3.16
387.97,4.08,0.96,4.08,0.96,-0.96,-0.91,-0.63,3.12,3.12,3.12
391.85,4.01,0.93,4.01,0.93,-0.93,-0.87,-0.60,3.08,3.08,3.08
395.77,3.94,0.90,3.94,0.90,-0.90,-0.83,-0.56,3.04,3.04,3.04
399.73,3.87,0.86,3.87,0.86,-0.86,-0.79,-0.53,3.00,3.00,3.00
403.72,3.79,0.83,3.79,0.83,-0.83,-0.75,-0.50,2.96,2.96,2.96
407.76,3.72,0.79,3.72,0.79,-0.79,-0.72,-0.47,2.92,2.92,2.92
411.84,3.65,0.76,3.65,0.76,-0.76,-0.68,-0.44,2.89,2.89,2.89
415.96,3.57,0.72,3.57,0.72,-0.72,-0.64,-0.41,2.85,2.85,2.85
420.12,3.50,0.68,3.50,0.68,-0.68,-0.59,-0.38,2.82,2.82,2.82
424.32,3.43,0.64,3.43,0.64,-0.64,-0.55,-0.35,2.79,2.79,2.79
428.56,3.37,0.60,3.37,0.60,-0.60,-0.51,-0.32,2.76,2.76,2.76
432.85,3.30,0.56,3.30,0.56,-0.56,-0.47,-0.29,2.74,2.74,2.74
437.18,3.23,0.51,3.23,0.51,-0.51,-0.43,-0.26,2.72,2.72,2.72
441.55,3.16,0.46,3.16,0.46,-0.46,-0.38,-0.23,2.70,2.70,2.70
445.96,3.09,0.41,3.09,0.41,-0.40,-0.34,-0.20,2.69,2.69,2.68
450.42,3.02,0.35,3.02,0.35,-0.35,-0.30,-0.17,2.67,2.67,2.67
454.93,2.95,0.29,2.95,0.29,-0.29,-0.25,-0.14,2.66,2.66,2.66
459.48,2.88,0.23,2.88,0.23,-0.23,-0.21,-0.11,2.65,2.65,2.65
464.07,2.81,0.17,2.81,0.17,-0.17,-0.16,-0.08,2.64,2.64,2.64
468.71,2.74,0.11,2.74,0.11,-0.11,-0.11,-0.05,2.62,2.62,2.63
473.40,2.67,0.05,2.67,0.05,-0.05,-0.06,-0.02,2.61,2.61,2.61
478.13,2.60,-0.00,2.60,-0.00,0.00,-0.02,0.02,2.60,2.60,2.60
482.91,2.53,-0.06,2.53,-0.06,0.06,0.03,0.05,2.59,2.59,2.59
487.74,2.46,-0.11,2.46,-0.11,0.11,0.08,0.08,2.57,2.57,2.57
492.62,2.39,-0.17,2.39,-0.17,0.17,0.13,0.11,2.56,2.56,2.56
497.55,2.32,-0.22,2.32,-0.22,0.22,0.18,0.15,2.54,2.54,2.54
