frequency,raw,error,smoothed,error_smoothed,equalization,parametric_eq,fixed_band_eq,equalized_raw,equalized_smoothed,target
20.00,10.40,-7.29,10.40,-7.29,6.00,5.52,2.58,16.40,16.40,17.69
20.20,10.42,-7.26,10.42,-7.27,6.00,5.67,2.65,16.42,16.42,17.69
20.40,10.44,-7.24,10.44,-7.24,6.00,5.82,2.73,16.44,16.44,17.68
20.61,10.46,-7.21,10.46,-7.21,6.00,5.99,2.81,16.46,16.46,17.67
20.81,10.48,-7.18,10.48,-7.18,6.00,6.15,2.89,16.48,16.48,17.66
21.02,10.49,-7.15,10.49,-7.15,6.00,6.30,2.97,16.49,16.49,17.64
21.23,10.51,-7.12,10.51,-7.12,6.00,6.45,3.05,16.51,16.51,17.62
21.44,10.52,-7.09,10.52,-7.09,6.00,6.54,3.14,16.52,16.52,17.60
21.66,10.53,-7.06,10.53,-7.06,6.00,6.63,3.23,16.53,16.53,17.58
21.87,10.54,-7.03,10.54,-7.03,6.00,6.63,3.33,16.54,16.54,17.56
22.09,10.55,-6.99,10.55,-6.99,6.00,6.63,3.42,16.55,16.55,17.54
22.31,10.56,-6.96,10.56,-6.96,6.00,6.56,3.52,16.56,16.56,17.52
22.54,10.58,-6.92,10.58,-6.92,6.00,6.49,3.62,16.58,16.58,17.50
22.76,10.59,-6.88,10.59,-6.88,6.00,6.40,3.73,16.59,16.59,17.48
22.99,10.61,-6.84,10.61,-6.84,6.00,6.31,3.83,16.61,16.61,17.45
23.22,10.62,-6.81,10.62,-6.81,6.00,6.22,3.94,16.62,16.62,17.43
23.45,10.64,-6.77,10.64,-6.77,6.00,6.14,4.05,16.64,16.64,17.41
23.69,10.65,-6.74,10.65,-6.74,6.00,6.08,4.16,16.65,16.65,17.39
23.92,10.66,-6.71,10.66,-6.71,6.00,6.01,4.28,16.66,16.66,17.37
24.16,10.67,-6.67,10.67,-6.67,6.00,5.97,4.40,16.67,16.67,17.35
24.40,10.68,-6.64,10.68,-6.64,6.00,5.92,4.52,16.68,16.68,17.32
24.65,10.69,-6.61,10.69,-6.61,6.00,5.89,4.64,16.69,16.69,17.30
24.89,10.70,-6.57,10.70,-6.57,6.00,5.87,4.76,16.70,16.70,17.27
25.14,10.71,-6.54,10.71,-6.54,6.00,5.85,4.88,16.71,16.71,17.25
25.39,10.72,-6.50,10.72,-6.50,6.00,5.83,5.01,16.72,16.72,17.22
25.65,10.73,-6.47,10.73,-6.47,6.00,5.82,5.14,16.73,16.73,17.20
25.91,10.74,-6.43,10.74,-6.43,6.00,5.81,5.26,16.74,16.74,17.17
26.16,10.74,-6.40,10.74,-6.40,6.00,5.80,5.39,16.74,16.74,17.15
26.43,10.75,-6.37,10.75,-6.37,6.00,5.80,5.51,16.75,16.75,17.12
26.69,10.76,-6.34,10.76,-6.34,6.00,5.79,5.64,16.76,16.76,17.10
26.96,10.76,-6.31,10.76,-6.31,6.00,5.79,5.76,16.76,16.76,17.07
27.23,10.76,-6.28,10.76,-6.28,6.00,5.79,5.88,16.76,16.76,17.04
27.50,10.77,-6.25,10.77,-6.25,6.00,5.78,6.00,16.77,16.77,17.02
27.77,10.77,-6.22,10.77,-6.22,6.00,5.78,6.11,16.77,16.77,16.99
28.05,10.78,-6.18,10.78,-6.18,6.00,5.78,6.22,16.78,16.78,16.96
28.33,10.78,-6.15,10.78,-6.15,6.01,5.77,6.32,16.79,16.79,16.93
28.62,10.79,-6.11,10.79,-6.11,6.01,5.77,6.42,16.79,16.79,16.90
28.90,10.79,-6.08,10.79,-6.08,6.00,5.76,6.51,16.79,16.79,16.87
29.19,10.79,-6.04,10.79,-6.04,5.99,5.76,6.59,16.79,16.79,16.84
29.48,10.80,-6.01,10.80,-6.01,5.98,5.75,6.67,16.78,16.78,16.81
29.78,10.80,-5.97,10.80,-5.97,5.96,5.74,6.73,16.76,16.76,16.77
30.08,10.80,-5.94,10.80,-5.94,5.94,5.74,6.79,16.74,16.74,16.74
30.38,10.81,-5.91,10.81,-5.91,5.91,5.73,6.83,16.72,16.72,16.71
30.68,10.81,-5.87,10.81,-5.87,5.87,5.71,6.87,16.68,16.68,16.68
30.99,10.81,-5.83,10.81,-5.83,5.84,5.70,6.89,16.65,16.65,16.65
31.30,10.82,-5.79,10.82,-5.79,5.79,5.69,6.90,16.61,16.61,16.61
31.61,10.82,-5.75,10.82,-5.75,5.75,5.67,6.91,16.57,16.57,16.57
31.93,10.82,-5.71,10.82,-5.71,5.71,5.66,6.90,16.53,16.53,16.53
32.24,10.83,-5.67,10.83,-5.67,5.67,5.64,6.88,16.50,16.50,16.49
32.57,10.83,-5.63,10.83,-5.63,5.63,5.62,6.85,16.46,16.46,16.46
32.89,10.83,-5.59,10.83,-5.59,5.59,5.60,6.81,16.42,16.42,16.42
33.22,10.83,-5.55,10.83,-5.55,5.55,5.58,6.76,16.38,16.38,16.38
33.55,10.83,-5.51,10.83,-5.51,5.51,5.55,6.70,16.34,16.34,16.34
33.89,10.83,-5.47,10.83,-5.47,5.47,5.53,6.63,16.29,16.29,16.30
34.23,10.82,-5.43,10.82,-5.43,5.43,5.50,6.56,16.25,16.25,16.25
34.57,10.82,-5.39,10.82,-5.39,5.39,5.47,6.48,16.22,16.22,16.21
34.92,10.82,-5.35,10.82,-5.35,5.35,5.44,6.40,16.17,16.17,16.17
35.27,10.82,-5.32,10.82,-5.32,5.32,5.41,6.30,16.13,16.13,16.13
35.62,10.81,-5.28,10.81,-5.28,5.28,5.38,6.21,16.09,16.09,16.09
35.97,10.81,-5.24,10.81,-5.24,5.24,5.35,6.11,16.05,16.05,16.05
36.33,10.80,-5.20,10.80,-5.20,5.20,5.32,6.01,16.00,16.00,16.01
36.70,10.80,-5.16,10.80,-5.16,5.16,5.28,5.91,15.96,15.96,15.96
37.06,10.79,-5.12,10.79,-5.12,5.12,5.25,5.81,15.91,15.91,15.92
37.43,10.79,-5.08,10.79,-5.08,5.08,5.21,5.70,15.87,15.87,15.87
37.81,10.78,-5.04,10.78,-5.04,5.04,5.17,5.60,15.82,15.82,15.82
38.19,10.77,-5.00,10.77,-5.00,5.00,5.13,5.50,15.78,15.78,15.78
38.57,10.77,-4.96,10.77,-4.96,4.96,5.09,5.39,15.73,15.73,15.73
38.95,10.76,-4.92,10.76,-4.92,4.92,5.05,5.29,15.68,15.68,15.68
39.34,10.75,-4.88,10.75,-4.88,4.88,5.01,5.19,15.64,15.64,15.64
39.74,10.75,-4.84,10.75,-4.84,4.84,4.97,5.09,15.59,15.59,15.59
40.14,10.74,-4.80,10.74,-4.80,4.80,4.93,5.00,15.54,15.54,15.54
40.54,10.73,-4.76,10.73,-4.76,4.76,4.88,4.90,15.49,15.49,15.49
40.94,10.73,-4.72,10.73,-4.72,4.72,4.84,4.81,15.44,15.44,15.45
41.35,10.72,-4.68,10.72,-4.67,4.67,4.79,4.73,15.40,15.40,15.40
41.76,10.72,-4.63,10.72,-4.63,4.63,4.75,4.64,15.35,15.35,15.35
42.18,10.72,-4.58,10.72,-4.58,4.59,4.70,4.56,15.31,15.31,15.30
42.60,10.72,-4.54,10.71,-4.54,4.55,4.66,4.48,15.26,15.26,15.26
43.03,10.71,-4.50,10.71,-4.50,4.50,4.61,4.40,15.21,15.21,15.21
43.46,10.70,-4.46,10.70,-4.46,4.46,4.56,4.33,15.16,15.16,15.16
43.90,10.69,-4.43,10.69,-4.43,4.42,4.52,4.26,15.11,15.11,15.12
44.33,10.68,-4.39,10.68,-4.39,4.38,4.47,4.19,15.06,15.06,15.07
44.78,10.67,-4.35,10.67,-4.35,4.34,4.42,4.13,15.01,15.01,15.02
45.23,10.66,-4.30,10.66,-4.30,4.30,4.37,4.07,14.96,14.96,14.96
45.68,10.65,-4.26,10.65,-4.26,4.26,4.32,4.02,14.91,14.91,14.91
46.13,10.63,-4.22,10.63,-4.22,4.22,4.28,3.96,14.86,14.86,14.85
46.60,10.62,-4.18,10.62,-4.18,4.18,4.23,3.91,14.80,14.80,14.80
47.06,10.61,-4.14,10.61,-4.14,4.14,4.18,3.86,14.75,14.75,14.75
47.53,10.59,-4.10,10.59,-4.10,4.10,4.13,3.82,14.69,14.69,14.69
48.01,10.58,-4.06,10.58,-4.06,4.06,4.08,3.78,14.64,14.64,14.64
48.49,10.57,-4.02,10.57,-4.02,4.01,4.03,3.74,14.58,14.58,14.59
48.97,10.56,-3.97,10.56,-3.97,3.97,3.98,3.70,14.53,14.53,14.53
49.46,10.55,-3.92,10.55,-3.92,3.92,3.93,3.67,14.47,14.47,14.47
49.96,10.54,-3.87,10.54,-3.87,3.88,3.88,3.64,14.41,14.41,14.41
50.46,10.52,-3.83,10.52,-3.83,3.83,3.83,3.61,14.35,14.35,14.35
50.96,10.51,-3.78,10.51,-3.78,3.78,3.78,3.58,14.29,14.29,14.29
51.47,10.50,-3.73,10.50,-3.73,3.73,3.74,3.55,14.23,14.23,14.23
51.99,10.49,-3.68,10.48,-3.68,3.68,3.69,3.53,14.17,14.17,14.17
52.51,10.47,-3.64,10.47,-3.64,3.63,3.64,3.51,14.11,14.11,14.11
53.03,10.47,-3.59,10.47,-3.59,3.58,3.59,3.48,14.05,14.05,14.06
53.56,10.46,-3.54,10.46,-3.54,3.53,3.54,3.46,14.00,14.00,14.00
54.10,10.46,-3.49,10.46,-3.49,3.49,3.49,3.44,13.94,13.94,13.94
54.64,10.45,-3.44,10.45,-3.44,3.44,3.44,3.43,13.89,13.89,13.89
55.18,10.44,-3.39,10.43,-3.39,3.40,3.39,3.41,13.84,13.84,13.83
55.74,10.41,-3.35,10.41,-3.35,3.36,3.35,3.39,13.77,13.77,13.77
56.29,10.38,-3.32,10.38,-3.32,3.32,3.30,3.37,13.71,13.71,13.71
56.86,10.35,-3.29,10.35,-3.29,3.29,3.25,3.35,13.64,13.64,13.64
57.42,10.32,-3.26,10.32,-3.26,3.25,3.20,3.33,13.57,13.57,13.58
58.00,10.29,-3.22,10.29,-3.22,3.22,3.15,3.31,13.51,13.51,13.51
58.58,10.27,-3.19,10.26,-3.19,3.18,3.11,3.29,13.45,13.45,13.45
59.16,10.24,-3.15,10.24,-3.15,3.15,3.06,3.26,13.39,13.39,13.39
59.76,10.22,-3.11,10.22,-3.11,3.11,3.01,3.24,13.32,13.32,13.32
60.35,10.19,-3.07,10.19,-3.07,3.07,2.96,3.21,13.26,13.26,13.26
60.96,10.17,-3.03,10.17,-3.03,3.03,2.92,3.18,13.20,13.20,13.20
61.57,10.15,-2.99,10.15,-2.99,2.99,2.87,3.15,13.14,13.14,13.13
62.18,10.13,-2.95,10.13,-2.95,2.95,2.83,3.12,13.07,13.07,13.07
62.80,10.10,-2.91,10.10,-2.91,2.91,2.78,3.08,13.01,13.01,13.01
63.43,10.08,-2.87,10.08,-2.87,2.86,2.73,3.05,12.94,12.94,12.95
64.07,10.06,-2.82,10.06,-2.82,2.82,2.69,3.01,12.88,12.88,12.88
64.71,10.04,-2.77,10.04,-2.77,2.77,2.64,2.97,12.81,12.81,12.81
65.35,10.02,-2.73,10.02,-2.73,2.73,2.60,2.92,12.74,12.74,12.74
66.01,9.99,-2.68,9.99,-2.68,2.68,2.55,2.88,12.67,12.67,12.67
66.67,9.97,-2.63,9.97,-2.63,2.63,2.51,2.83,12.60,12.60,12.60
67.33,9.94,-2.58,9.94,-2.58,2.58,2.46,2.78,12.52,12.52,12.52
68.01,9.91,-2.53,9.91,-2.54,2.54,2.42,2.73,12.45,12.45,12.45
68.69,9.88,-2.49,9.88,-2.49,2.49,2.37,2.68,12.37,12.37,12.37
69.37,9.85,-2.45,9.85,-2.45,2.45,2.33,2.62,12.30,12.30,12.30
70.07,9.82,-2.40,9.82,-2.40,2.40,2.29,2.57,12.23,12.23,12.23
70.77,9.79,-2.36,9.79,-2.36,2.36,2.24,2.51,12.16,12.16,12.16
71.48,9.76,-2.32,9.76,-2.32,2.32,2.20,2.46,12.09,12.09,12.09
72.19,9.73,-2.28,9.73,-2.28,2.29,2.16,2.40,12.02,12.02,12.02
72.91,9.71,-2.25,9.71,-2.25,2.25,2.11,2.34,11.95,11.95,11.95
73.64,9.68,-2.21,9.68,-2.21,2.21,2.07,2.28,11.89,11.89,11.89
74.38,9.65,-2.17,9.65,-2.17,2.17,2.03,2.22,11.82,11.82,11.82
75.12,9.62,-2.14,9.62,-2.14,2.14,1.99,2.16,11.76,11.76,11.76
75.87,9.59,-2.10,9.59,-2.10,2.10,1.95,2.11,11.69,11.69,11.69
76.63,9.57,-2.06,9.57,-2.06,2.06,1.90,2.05,11.62,11.62,11.63
77.40,9.54,-2.02,9.54,-2.02,2.02,1.86,1.99,11.55,11.55,11.56
78.17,9.51,-1.97,9.51,-1.97,1.97,1.82,1.93,11.48,11.48,11.48
78.95,9.48,-1.93,9.48,-1.93,1.93,1.78,1.88,11.41,11.41,11.41
79.74,9.45,-1.88,9.45,-1.88,1.89,1.74,1.82,11.33,11.33,11.33
80.54,9.42,-1.84,9.42,-1.84,1.84,1.70,1.76,11.26,11.26,11.25
81.35,9.38,-1.80,9.38,-1.80,1.80,1.66,1.71,11.18,11.18,11.18
82.16,9.34,-1.76,9.34,-1.76,1.75,1.62,1.66,11.09,11.09,11.10
82.98,9.30,-1.71,9.30,-1.71,1.71,1.58,1.60,11.01,11.01,11.01
83.81,9.26,-1.67,9.26,-1.67,1.67,1.54,1.55,10.93,10.93,10.93
84.65,9.21,-1.63,9.21,-1.63,1.63,1.50,1.50,10.84,10.84,10.84
85.50,9.17,-1.59,9.17,-1.59,1.59,1.46,1.45,10.76,10.76,10.76
86.35,9.12,-1.55,9.12,-1.56,1.56,1.42,1.40,10.68,10.68,10.68
87.22,9.07,-1.52,9.07,-1.52,1.52,1.38,1.35,10.59,10.59,10.59
88.09,9.03,-1.49,9.03,-1.48,1.48,1.34,1.30,10.51,10.51,10.51
88.97,8.98,-1.45,8.98,-1.45,1.45,1.30,1.26,10.44,10.44,10.43
89.86,8.94,-1.42,8.94,-1.42,1.42,1.26,1.21,10.36,10.36,10.36
90.76,8.90,-1.39,8.90,-1.39,1.39,1.23,1.17,10.29,10.29,10.29
91.66,8.85,-1.37,8.85,-1.37,1.37,1.19,1.12,10.22,10.22,10.22
92.58,8.80,-1.34,8.80,-1.34,1.35,1.15,1.08,10.15,10.15,10.15
93.51,8.75,-1.32,8.75,-1.32,1.33,1.11,1.04,10.08,10.08,10.07
94.44,8.69,-1.30,8.69,-1.30,1.31,1.07,1.00,10.00,10.00,9.99
95.39,8.63,-1.29,8.63,-1.29,1.29,1.03,0.96,9.92,9.92,9.92
96.34,8.57,-1.27,8.57,-1.27,1.27,1.00,0.92,9.84,9.84,9.84
97.30,8.51,-1.25,8.51,-1.25,1.24,0.96,0.88,9.75,9.75,9.76
98.28,8.46,-1.22,8.46,-1.22,1.20,0.92,0.84,9.66,9.66,9.68
99.26,8.42,-1.18,8.42,-1.18,1.16,0.88,0.81,9.58,9.58,9.60
100.25,8.40,-1.12,8.40,-1.11,1.10,0.85,0.77,9.50,9.50,9.51
101.25,8.39,-1.04,8.39,-1.04,1.04,0.81,0.73,9.43,9.43,9.43
102.27,8.38,-0.97,8.38,-0.97,0.98,0.77,0.70,9.35,9.35,9.34
103.29,8.36,-0.90,8.36,-0.90,0.90,0.73,0.66,9.27,9.27,9.26
104.32,8.34,-0.83,8.35,-0.83,0.83,0.70,0.63,9.18,9.18,9.17
105.37,8.33,-0.76,8.33,-0.76,0.76,0.66,0.60,9.09,9.09,9.09
106.42,8.32,-0.69,8.32,-0.69,0.69,0.62,0.56,9.01,9.01,9.01
107.48,8.30,-0.62,8.30,-0.62,0.63,0.59,0.53,8.93,8.93,8.92
108.56,8.28,-0.56,8.28,-0.56,0.57,0.55,0.50,8.85,8.85,8.84
109.64,8.25,-0.51,8.25,-0.51,0.51,0.51,0.47,8.76,8.76,8.76
110.74,8.22,-0.46,8.21,-0.46,0.46,0.47,0.44,8.67,8.67,8.67
111.85,8.18,-0.41,8.18,-0.41,0.40,0.44,0.41,8.58,8.58,8.59
112.97,8.15,-0.35,8.15,-0.35,0.34,0.40,0.38,8.49,8.49,8.51
114.10,8.13,-0.29,8.13,-0.29,0.28,0.36,0.35,8.41,8.42,8.43
115.24,8.12,-0.23,8.12,-0.23,0.22,0.33,0.32,8.34,8.34,8.34
116.39,8.10,-0.16,8.10,-0.16,0.17,0.29,0.29,8.27,8.27,8.26
117.55,8.09,-0.10,8.08,-0.10,0.11,0.25,0.26,8.19,8.19,8.18
118.73,8.06,-0.05,8.06,-0.05,0.05,0.21,0.23,8.11,8.11,8.10
119.92,8.02,-0.00,8.02,0.00,-0.00,0.18,0.20,8.02,8.02,8.02
121.12,7.98,0.05,7.98,0.05,-0.05,0.14,0.17,7.93,7.93,7.93
122.33,7.93,0.09,7.93,0.09,-0.10,0.10,0.14,7.83,7.83,7.84
123.55,7.88,0.14,7.88,0.14,-0.14,0.07,0.11,7.74,7.74,7.74
124.79,7.83,0.18,7.83,0.18,-0.17,0.03,0.08,7.65,7.65,7.65
126.03,7.78,0.22,7.78,0.21,-0.21,-0.01,0.06,7.57,7.57,7.56
127.29,7.72,0.25,7.72,0.25,-0.24,-0.05,0.03,7.48,7.48,7.48
128.57,7.67,0.27,7.67,0.27,-0.27,-0.09,-0.00,7.40,7.40,7.40
129.85,7.62,0.30,7.62,0.30,-0.30,-0.12,-0.03,7.32,7.32,7.32
131.15,7.56,0.32,7.56,0.32,-0.33,-0.16,-0.06,7.23,7.23,7.24
132.46,7.51,0.35,7.51,0.35,-0.36,-0.20,-0.09,7.15,7.15,7.16
133.79,7.46,0.39,7.46,0.39,-0.39,-0.24,-0.12,7.07,7.07,7.07
135.12,7.41,0.42,7.41,0.43,-0.43,-0.28,-0.15,6.98,6.98,6.98
136.48,7.36,0.46,7.36,0.46,-0.46,-0.31,-0.17,6.89,6.89,6.89
137.84,7.30,0.51,7.30,0.50,-0.50,-0.35,-0.20,6.80,6.80,6.80
139.22,7.25,0.54,7.25,0.54,-0.54,-0.39,-0.23,6.71,6.71,6.71
140.61,7.20,0.58,7.20,0.58,-0.58,-0.43,-0.26,6.62,6.62,6.62
142.02,7.15,0.61,7.15,0.61,-0.61,-0.47,-0.29,6.54,6.54,6.53
143.44,7.09,0.64,7.09,0.65,-0.64,-0.51,-0.33,6.45,6.45,6.45
144.87,7.04,0.68,7.04,0.67,-0.67,-0.55,-0.36,6.37,6.37,6.36
146.32,6.98,0.70,6.98,0.70,-0.70,-0.59,-0.39,6.28,6.28,6.28
147.78,6.92,0.72,6.92,0.72,-0.72,-0.63,-0.42,6.20,6.20,6.20
149.26,6.86,0.74,6.86,0.74,-0.74,-0.67,-0.45,6.11,6.11,6.11
150.75,6.79,0.76,6.79,0.76,-0.77,-0.71,-0.49,6.03,6.03,6.03
152.26,6.73,0.78,6.73,0.78,-0.79,-0.75,-0.52,5.95,5.95,5.95
153.78,6.68,0.80,6.68,0.80,-0.81,-0.79,-0.55,5.87,5.87,5.87
155.32,6.62,0.82,6.62,0.82,-0.83,-0.83,-0.59,5.79,5.79,5.80
156.88,6.56,0.84,6.56,0.84,-0.85,-0.87,-0.63,5.72,5.72,5.72
158.44,6.51,0.86,6.51,0.86,-0.86,-0.91,-0.66,5.65,5.65,5.65
160.03,6.45,0.88,6.45,0.88,-0.87,-0.95,-0.70,5.58,5.58,5.57
161.63,6.40,0.89,6.40,0.89,-0.88,-0.99,-0.74,5.52,5.52,5.51
163.24,6.34,0.89,6.34,0.89,-0.88,-1.03,-0.78,5.46,5.46,5.44
164.88,6.28,0.89,6.28,0.89,-0.88,-1.07,-0.82,5.40,5.40,5.38
166.53,6.21,0.89,6.21,0.89,-0.88,-1.11,-0.86,5.33,5.33,5.33
168.19,6.15,0.89,6.15,0.88,-0.89,-1.15,-0.90,5.26,5.26,5.26
169.87,6.09,0.89,6.09,0.89,-0.91,-1.19,-0.94,5.18,5.18,5.20
171.57,6.03,0.91,6.02,0.91,-0.93,-1.23,-0.98,5.09,5.09,5.12
173.29,5.97,0.95,5.97,0.95,-0.97,-1.27,-1.03,5.00,5.00,5.02
175.02,5.91,1.00,5.91,1.00,-1.02,-1.31,-1.07,4.89,4.89,4.91
176.77,5.86,1.07,5.86,1.07,-1.07,-1.35,-1.12,4.78,4.78,4.79
178.54,5.81,1.15,5.81,1.15,-1.14,-1.39,-1.16,4.67,4.67,4.66
180.32,5.76,1.22,5.76,1.22,-1.21,-1.43,-1.21,4.55,4.55,4.54
182.13,5.72,1.30,5.72,1.30,-1.28,-1.47,-1.26,4.44,4.44,4.42
183.95,5.68,1.36,5.68,1.36,-1.35,-1.51,-1.31,4.33,4.33,4.32
185.79,5.65,1.43,5.65,1.43,-1.42,-1.55,-1.36,4.22,4.22,4.22
187.65,5.61,1.49,5.61,1.49,-1.49,-1.59,-1.41,4.12,4.12,4.12
189.52,5.58,1.55,5.58,1.55,-1.55,-1.63,-1.46,4.02,4.02,4.03
191.42,5.54,1.61,5.54,1.61,-1.62,-1.67,-1.51,3.93,3.93,3.94
193.33,5.51,1.67,5.51,1.67,-1.67,-1.71,-1.57,3.84,3.84,3.84
195.27,5.48,1.73,5.48,1.73,-1.73,-1.75,-1.62,3.75,3.75,3.75
197.22,5.44,1.78,5.44,1.78,-1.78,-1.78,-1.68,3.66,3.66,3.66
199.19,5.40,1.83,5.40,1.83,-1.82,-1.82,-1.73,3.57,3.57,3.56
201.18,5.34,1.87,5.34,1.87,-1.86,-1.86,-1.79,3.48,3.48,3.47
203.19,5.28,1.90,5.28,1.90,-1.89,-1.89,-1.84,3.39,3.39,3.38
205.23,5.22,1.92,5.22,1.92,-1.92,-1.93,-1.90,3.30,3.30,3.30
207.28,5.15,1.94,5.15,1.94,-1.94,-1.96,-1.95,3.21,3.21,3.21
209.35,5.09,1.96,5.09,1.96,-1.96,-1.99,-2.01,3.13,3.13,3.13
211.44,5.02,1.97,5.02,1.97,-1.98,-2.03,-2.06,3.04,3.04,3.05
213.56,4.96,1.99,4.96,1.99,-2.00,-2.06,-2.11,2.96,2.96,2.97
215.69,4.90,2.01,4.90,2.01,-2.01,-2.09,-2.17,2.88,2.88,2.89
217.85,4.84,2.03,4.84,2.03,-2.03,-2.12,-2.22,2.80,2.80,2.81
220.03,4.78,2.05,4.78,2.05,-2.06,-2.15,-2.26,2.72,2.72,2.72
222.23,4.72,2.08,4.72,2.08,-2.08,-2.18,-2.31,2.64,2.64,2.64
224.45,4.66,2.10,4.66,2.10,-2.10,-2.20,-2.36,2.56,2.56,2.56
226.70,4.61,2.12,4.61,2.12,-2.12,-2.23,-2.40,2.49,2.49,2.48
228.96,4.55,2.14,4.55,2.14,-2.14,-2.25,-2.44,2.41,2.41,2.41
231.25,4.49,2.16,4.49,2.16,-2.15,-2.28,-2.48,2.34,2.34,2.33
233.57,4.43,2.17,4.43,2.17,-2.17,-2.30,-2.51,2.26,2.26,2.26
235.90,4.37,2.18,4.37,2.18,-2.18,-2.32,-2.54,2.19,2.19,2.19
238.26,4.31,2.19,4.31,2.19,-2.19,-2.34,-2.57,2.12,2.12,2.12
240.64,4.25,2.20,4.25,2.20,-2.20,-2.35,-2.59,2.04,2.05,2.05
243.05,4.19,2.21,4.19,2.21,-2.21,-2.37,-2.61,1.97,1.97,1.98
245.48,4.12,2.22,4.12,2.22,-2.22,-2.39,-2.62,1.91,1.91,1.90
247.93,4.06,2.23,4.06,2.23,-2.23,-2.40,-2.63,1.84,1.84,1.83
250.41,4.00,2.24,4.00,2.24,-2.23,-2.41,-2.64,1.77,1.77,1.76
252.92,3.94,2.24,3.94,2.24,-2.24,-2.42,-2.64,1.70,1.70,1.70
255.45,3.88,2.24,3.88,2.24,-2.25,-2.43,-2.63,1.63,1.63,1.63
258.00,3.81,2.25,3.81,2.25,-2.25,-2.43,-2.63,1.56,1.56,1.57
260.58,3.75,2.26,3.75,2.26,-2.26,-2.44,-2.62,1.49,1.49,1.50
263.19,3.69,2.26,3.69,2.26,-2.27,-2.44,-2.60,1.43,1.43,1.43
265.82,3.63,2.27,3.63,2.27,-2.27,-2.44,-2.58,1.36,1.36,1.36
268.48,3.57,2.28,3.57,2.28,-2.28,-2.45,-2.56,1.29,1.29,1.29
271.16,3.51,2.28,3.51,2.28,-2.28,-2.44,-2.53,1.23,1.23,1.23
273.87,3.45,2.29,3.45,2.29,-2.29,-2.44,-2.51,1.16,1.16,1.16
276.61,3.39,2.29,3.39,2.29,-2.29,-2.44,-2.47,1.10,1.10,1.10
279.38,3.33,2.29,3.33,2.29,-2.29,-2.43,-2.44,1.04,1.04,1.04
282.17,3.27,2.29,3.27,2.29,-2.29,-2.42,-2.40,0.98,0.98,0.98
284.99,3.21,2.28,3.21,2.28,-2.28,-2.41,-2.36,0.92,0.92,0.92
287.84,3.15,2.28,3.15,2.28,-2.28,-2.40,-2.32,0.87,0.87,0.87
290.72,3.09,2.28,3.09,2.28,-2.28,-2.39,-2.28,0.81,0.81,0.81
293.63,3.03,2.27,3.03,2.27,-2.27,-2.38,-2.24,0.75,0.75,0.76
296.57,2.97,2.27,2.97,2.27,-2.27,-2.36,-2.20,0.70,0.70,0.70
299.53,2.91,2.26,2.91,2.26,-2.26,-2.35,-2.15,0.65,0.65,0.65
302.53,2.85,2.26,2.85,2.26,-2.25,-2.33,-2.11,0.60,0.60,0.60
305.55,2.80,2.25,2.80,2.25,-2.25,-2.31,-2.06,0.55,0.55,0.55
308.61,2.74,2.24,2.74,2.24,-2.24,-2.29,-2.02,0.50,0.50,0.50
311.69,2.68,2.22,2.68,2.22,-2.22,-2.27,-1.97,0.46,0.46,0.46
314.81,2.62,2.21,2.62,2.21,-2.21,-2.25,-1.93,0.42,0.42,0.42
317.96,2.57,2.19,2.57,2.19,-2.19,-2.23,-1.88,0.37,0.37,0.37
321.14,2.51,2.17,2.51,2.17,-2.18,-2.20,-1.84,0.33,0.33,0.33
324.35,2.45,2.16,2.45,2.16,-2.16,-2.18,-1.80,0.30,0.30,0.30
327.59,2.40,2.14,2.40,2.14,-2.14,-2.15,-1.75,0.26,0.26,0.26
330.87,2.34,2.12,2.34,2.12,-2.12,-2.13,-1.71,0.22,0.22,0.22
334.18,2.28,2.10,2.28,2.10,-2.10,-2.10,-1.67,0.18,0.18,0.18
337.52,2.22,2.08,2.22,2.08,-2.08,-2.07,-1.63,0.15,0.15,0.15
340.90,2.17,2.05,2.17,2.05,-2.05,-2.04,-1.60,0.11,0.11,0.11
344.30,2.11,2.03,2.11,2.03,-2.03,-2.01,-1.56,0.08,0.08,0.08
347.75,2.05,2.01,2.05,2.01,-2.01,-1.98,-1.52,0.04,0.04,0.04
351.23,1.99,1.98,1.99,1.98,-1.98,-1.95,-1.49,0.01,0.01,0.01
354.74,1.94,1.96,1.94,1.96,-1.96,-1.92,-1.45,-0.02,-0.02,-0.02
358.28,1.88,1.93,1.88,1.93,-1.93,-1.89,-1.42,-0.05,-0.05,-0.05
361.87,1.82,1.90,1.82,1.90,-1.90,-1.86,-1.39,-0.08,-0.08,-0.08
365.49,1.77,1.88,1.77,1.88,-1.88,-1.83,-1.36,-0.11,-0.11,-0.11
369.14,1.71,1.85,1.71,1.85,-1.85,-1.80,-1.33,-0.14,-0.14,-0.14
372.83,1.66,1.82,1.66,1.82,-1.82,-1.77,-1.30,-0.16,-0.16,-0.16
376.56,1.60,1.79,1.60,1.79,-1.79,-1.73,-1.28,-0.19,-0.19,-0.19
380.33,1.55,1.76,1.55,1.76,-1.76,-1.70,-1.25,-0.21,-0.21,-0.21
384.13,1.50,1.73,1.50,1.73,-1.73,-1.67,-1.23,-0.24,-0.24,-0.24
387.97,1.44,1.70,1.44,1.70,-1.70,-1.64,-1.20,-0.26,-0.26,-0.26
391.85,1.39,1.67,1.39,1.67,-1.67,-1.60,-1.18,-0.28,-0.28,-0.28
395.77,1.33,1.64,1.33,1.64,-1.64,-1.57,-1.16,-0.31,-0.31,-0.31
399.73,1.28,1.61,1.28,1.61,-1.61,-1.54,-1.14,-0.33,-0.33,-0.33
403.72,1.23,1.57,1.23,1.57,-1.58,-1.50,-1.12,-0.35,-0.35,-0.35
407.76,1.17,1.54,1.17,1.54,-1.54,-1.47,-1.10,-0.37,-0.37,-0.37
411.84,1.12,1.51,1.12,1.51,-1.51,-1.44,-1.08,-0.39,-0.39,-0.39
415.96,1.07,1.48,1.07,1.48,-1.48,-1.40,-1.06,-0.40,-0.40,-0.41
420.12,1.02,1.44,1.02,1.44,-1.44,-1.37,-1.05,-0.42,-0.42,-0.42
424.32,0.97,1.41,0.97,1.41,-1.41,-1.34,-1.03,-0.44,-0.44,-0.44
428.56,0.92,1.37,0.92,1.37,-1.37,-1.31,-1.01,-0.45,-0.45,-0.45
432.85,0.87,1.33,0.87,1.33,-1.33,-1.27,-1.00,-0.46,-0.46,-0.46
437.18,0.82,1.29,0.82,1.29,-1.29,-1.24,-0.98,-0.47,-0.47,-0.47
441.55,0.77,1.25,0.77,1.25,-1.25,-1.21,-0.97,-0.48,-0.48,-0.48
445.96,0.72,1.21,0.72,1.21,-1.21,-1.18,-0.95,-0.49,-0.49,-0.49
450.42,0.67,1.17,0.67,1.17,-1.17,-1.14,-0.94,-0.50,-0.50,-0.50
454.93,0.62,1.13,0.62,1.13,-1.13,-1.11,-0.92,-0.51,-0.51,-0.51
459.48,0.57,1.09,0.57,1.09,-1.09,-1.08,-0.91,-0.52,-0.52,-0.51
464.07,0.53,1.05,0.53,1.05,-1.05,-1.05,-0.89,-0.52,-0.52,-0.52
468.71,0.48,1.01,0.48,1.01,-1.01,-1.01,-0.88,-0.53,-0.53,-0.53
473.40,0.43,0.97,0.43,0.97,-0.97,-0.98,-0.86,-0.53,-0.53,-0.53
478.13,0.39,0.93,0.39,0.93,-0.93,-0.95,-0.85,-0.54,-0.54,-0.54
482.91,0.34,0.88,0.34,0.89,-0.89,-0.92,-0.83,-0.54,-0.54,-0.54
487.74,0.30,0.84,0.30,0.84,-0.84,-0.89,-0.82,-0.55,-0.55,-0.55
492.62,0.25,0.81,0.25,0.80,-0.80,-0.86,-0.80,-0.55,-0.55,-0.55
