frequency,raw,error,smoothed,error_smoothed,equalization,parametric_eq,fixed_band_eq,equalized_raw,equalized_smoothed,target
20.00,10.22,-3.23,10.22,-3.23,3.24,-0.05,0.83,13.46,13.46,13.45
20.20,10.23,-3.21,10.23,-3.22,3.22,-0.06,0.86,13.45,13.45,13.45
20.40,10.25,-3.20,10.25,-3.20,3.20,-0.06,0.88,13.44,13.44,13.45
20.61,10.27,-3.18,10.27,-3.18,3.17,-0.06,0.91,13.44,13.44,13.45
20.81,10.29,-3.16,10.29,-3.16,3.15,-0.06,0.94,13.44,13.44,13.45
21.02,10.32,-3.13,10.32,-3.13,3.12,-0.06,0.97,13.44,13.44,13.45
21.23,10.35,-3.10,10.35,-3.10,3.09,-0.06,1.00,13.45,13.45,13.45
21.44,10.39,-3.06,10.39,-3.06,3.07,-0.06,1.03,13.45,13.45,13.45
21.66,10.42,-3.03,10.42,-3.03,3.04,-0.06,1.06,13.45,13.45,13.45
21.87,10.45,-3.00,10.44,-3.00,3.01,-0.07,1.09,13.45,13.45,13.44
22.09,10.47,-2.97,10.47,-2.97,2.98,-0.07,1.13,13.44,13.44,13.44
22.31,10.49,-2.95,10.49,-2.94,2.95,-0.07,1.16,13.44,13.44,13.43
22.54,10.51,-2.92,10.51,-2.92,2.92,-0.07,1.20,13.43,13.43,13.43
22.76,10.52,-2.90,10.52,-2.90,2.90,-0.07,1.23,13.42,13.42,13.42
22.99,10.55,-2.88,10.55,-2.87,2.87,-0.07,1.27,13.42,13.42,13.42
23.22,10.57,-2.85,10.57,-2.85,2.84,-0.07,1.31,13.42,13.42,13.42
23.45,10.60,-2.82,10.60,-2.82,2.82,-0.08,1.35,13.42,13.42,13.42
23.69,10.64,-2.79,10.64,-2.79,2.78,-0.08,1.39,13.42,13.42,13.42
23.92,10.67,-2.75,10.67,-2.75,2.75,-0.08,1.43,13.42,13.42,13.42
24.16,10.70,-2.72,10.70,-2.72,2.72,-0.08,1.47,13.42,13.42,13.42
24.40,10.74,-2.68,10.74,-2.68,2.68,-0.08,1.51,13.42,13.42,13.42
24.65,10.77,-2.64,10.77,-2.64,2.64,-0.08,1.55,13.41,13.41,13.41
24.89,10.81,-2.60,10.81,-2.60,2.60,-0.09,1.59,13.41,13.41,13.41
25.14,10.84,-2.56,10.84,-2.56,2.56,-0.09,1.64,13.40,13.40,13.40
25.39,10.88,-2.52,10.88,-2.52,2.52,-0.09,1.68,13.39,13.40,13.39
25.65,10.92,-2.47,10.92,-2.47,2.47,-0.09,1.72,13.39,13.39,13.39
25.91,10.95,-2.43,10.95,-2.43,2.43,-0.09,1.76,13.39,13.39,13.38
26.16,10.99,-2.39,10.99,-2.39,2.39,-0.09,1.81,13.38,13.38,13.38
26.43,11.02,-2.35,11.02,-2.35,2.35,-0.10,1.85,13.37,13.37,13.37
26.69,11.06,-2.31,11.06,-2.31,2.31,-0.10,1.89,13.37,13.37,13.37
26.96,11.09,-2.27,11.09,-2.27,2.27,-0.10,1.93,13.36,13.36,13.36
27.23,11.12,-2.23,11.12,-2.23,2.23,-0.10,1.97,13.35,13.35,13.35
27.50,11.15,-2.20,11.15,-2.20,2.19,-0.10,2.00,13.34,13.34,13.35
27.77,11.18,-2.16,11.18,-2.16,2.16,-0.11,2.04,13.33,13.33,13.33
28.05,11.20,-2.12,11.20,-2.12,2.12,-0.11,2.07,13.32,13.32,13.32
28.33,11.23,-2.08,11.23,-2.08,2.08,-0.11,2.10,13.31,13.31,13.31
28.62,11.25,-2.05,11.25,-2.05,2.05,-0.11,2.13,13.30,13.30,13.30
28.90,11.27,-2.01,11.27,-2.01,2.02,-0.12,2.15,13.29,13.29,13.29
29.19,11.29,-1.98,11.29,-1.98,1.98,-0.12,2.18,13.28,13.28,13.27
29.48,11.31,-1.95,11.31,-1.95,1.95,-0.12,2.20,13.26,13.26,13.26
29.78,11.33,-1.92,11.33,-1.92,1.92,-0.12,2.21,13.25,13.25,13.25
30.08,11.35,-1.89,11.35,-1.89,1.89,-0.13,2.22,13.24,13.24,13.24
30.38,11.36,-1.87,11.36,-1.87,1.87,-0.13,2.23,13.23,13.23,13.23
30.68,11.38,-1.84,11.38,-1.84,1.84,-0.13,2.24,13.22,13.22,13.22
30.99,11.39,-1.81,11.39,-1.81,1.81,-0.13,2.24,13.20,13.20,13.20
31.30,11.40,-1.79,11.40,-1.79,1.79,-0.14,2.23,13.19,13.19,13.19
31.61,11.41,-1.76,11.41,-1.76,1.76,-0.14,2.23,13.17,13.17,13.17
31.93,11.42,-1.73,11.42,-1.73,1.73,-0.14,2.21,13.16,13.16,13.16
32.24,11.43,-1.71,11.43,-1.71,1.70,-0.15,2.20,13.14,13.14,13.14
32.57,11.45,-1.68,11.45,-1.68,1.67,-0.15,2.18,13.12,13.12,13.12
32.89,11.46,-1.64,11.46,-1.64,1.64,-0.15,2.16,13.10,13.10,13.11
33.22,11.48,-1.61,11.48,-1.61,1.61,-0.15,2.13,13.09,13.09,13.09
33.55,11.50,-1.57,11.50,-1.57,1.57,-0.16,2.10,13.07,13.07,13.07
33.89,11.51,-1.54,11.51,-1.54,1.54,-0.16,2.07,13.05,13.05,13.05
34.23,11.53,-1.50,11.53,-1.50,1.50,-0.16,2.03,13.03,13.03,13.03
34.57,11.55,-1.46,11.55,-1.46,1.46,-0.17,1.99,13.01,13.01,13.01
34.92,11.57,-1.42,11.57,-1.42,1.42,-0.17,1.95,12.99,12.99,12.99
35.27,11.59,-1.39,11.59,-1.39,1.38,-0.18,1.90,12.97,12.97,12.97
35.62,11.61,-1.35,11.61,-1.35,1.34,-0.18,1.86,12.95,12.95,12.95
35.97,11.62,-1.30,11.62,-1.30,1.30,-0.18,1.81,12.93,12.93,12.93
36.33,11.64,-1.26,11.64,-1.26,1.27,-0.19,1.76,12.91,12.91,12.90
36.70,11.65,-1.23,11.65,-1.23,1.23,-0.19,1.71,12.88,12.88,12.88
37.06,11.66,-1.19,11.66,-1.19,1.19,-0.20,1.66,12.86,12.86,12.85
37.43,11.67,-1.16,11.67,-1.16,1.16,-0.20,1.60,12.83,12.83,12.83
37.81,11.67,-1.13,11.67,-1.13,1.13,-0.20,1.55,12.80,12.80,12.80
38.19,11.68,-1.10,11.68,-1.10,1.10,-0.21,1.50,12.78,12.78,12.78
38.57,11.68,-1.07,11.68,-1.07,1.07,-0.21,1.44,12.75,12.75,12.75
38.95,11.69,-1.04,11.69,-1.04,1.04,-0.22,1.39,12.73,12.73,12.73
39.34,11.69,-1.01,11.69,-1.01,1.01,-0.22,1.33,12.70,12.70,12.70
39.74,11.70,-0.98,11.70,-0.98,0.98,-0.23,1.28,12.68,12.68,12.68
40.14,11.71,-0.95,11.71,-0.95,0.95,-0.23,1.22,12.65,12.65,12.65
40.54,11.72,-0.91,11.72,-0.91,0.91,-0.24,1.17,12.63,12.63,12.63
40.94,11.72,-0.88,11.72,-0.88,0.88,-0.24,1.12,12.61,12.60,12.61
41.35,11.73,-0.85,11.73,-0.85,0.85,-0.25,1.06,12.58,12.58,12.58
41.76,11.74,-0.81,11.74,-0.81,0.81,-0.25,1.01,12.56,12.56,12.55
42.18,11.75,-0.78,11.75,-0.78,0.78,-0.26,0.96,12.53,12.53,12.53
42.60,11.76,-0.74,11.76,-0.74,0.75,-0.26,0.90,12.51,12.51,12.51
43.03,11.77,-0.71,11.77,-0.71,0.71,-0.27,0.85,12.48,12.48,12.48
43.46,11.78,-0.68,11.78,-0.68,0.68,-0.27,0.80,12.46,12.46,12.46
43.90,11.79,-0.64,11.79,-0.64,0.64,-0.28,0.75,12.43,12.43,12.43
44.33,11.80,-0.61,11.80,-0.61,0.61,-0.29,0.70,12.40,12.40,12.41
44.78,11.80,-0.58,11.80,-0.58,0.57,-0.29,0.65,12.37,12.37,12.37
45.23,11.80,-0.54,11.80,-0.54,0.54,-0.30,0.61,12.34,12.34,12.34
45.68,11.81,-0.50,11.81,-0.50,0.50,-0.31,0.56,12.31,12.31,12.31
46.13,11.81,-0.47,11.81,-0.47,0.47,-0.31,0.51,12.28,12.28,12.28
46.60,11.81,-0.43,11.81,-0.43,0.44,-0.32,0.46,12.25,12.25,12.25
47.06,11.81,-0.40,11.81,-0.40,0.40,-0.33,0.42,12.22,12.22,12.22
47.53,11.82,-0.37,11.82,-0.37,0.37,-0.33,0.37,12.19,12.19,12.19
48.01,11.82,-0.34,11.82,-0.34,0.34,-0.34,0.33,12.16,12.16,12.16
48.49,11.82,-0.31,11.82,-0.31,0.31,-0.35,0.28,12.13,12.13,12.13
48.97,11.81,-0.28,11.81,-0.28,0.28,-0.36,0.24,12.09,12.09,12.09
49.46,11.81,-0.25,11.81,-0.25,0.25,-0.36,0.20,12.06,12.06,12.06
49.96,11.81,-0.21,11.81,-0.21,0.22,-0.37,0.15,12.02,12.02,12.02
50.46,11.80,-0.18,11.80,-0.18,0.18,-0.38,0.11,11.98,11.98,11.98
50.96,11.80,-0.15,11.80,-0.15,0.14,-0.39,0.07,11.94,11.94,11.95
51.47,11.80,-0.11,11.80,-0.11,0.10,-0.40,0.03,11.91,11.91,11.91
51.99,11.81,-0.07,11.81,-0.07,0.06,-0.41,-0.01,11.87,11.87,11.88
52.51,11.82,-0.02,11.82,-0.02,0.02,-0.42,-0.05,11.84,11.84,11.84
53.03,11.83,0.02,11.83,0.02,-0.02,-0.43,-0.09,11.81,11.81,11.81
53.56,11.84,0.07,11.84,0.07,-0.07,-0.44,-0.13,11.78,11.77,11.77
54.10,11.85,0.12,11.85,0.11,-0.11,-0.45,-0.17,11.74,11.74,11.73
54.64,11.85,0.16,11.85,0.16,-0.15,-0.46,-0.20,11.70,11.70,11.70
55.18,11.85,0.19,11.85,0.19,-0.19,-0.47,-0.24,11.66,11.66,11.66
55.74,11.85,0.23,11.85,0.23,-0.23,-0.48,-0.28,11.62,11.62,11.62
56.29,11.84,0.26,11.85,0.26,-0.27,-0.49,-0.31,11.58,11.58,11.58
56.86,11.84,0.30,11.84,0.30,-0.30,-0.50,-0.35,11.54,11.54,11.54
57.42,11.83,0.34,11.83,0.34,-0.34,-0.51,-0.38,11.50,11.50,11.50
58.00,11.83,0.37,11.83,0.37,-0.37,-0.52,-0.41,11.46,11.46,11.45
58.58,11.82,0.40,11.82,0.40,-0.40,-0.54,-0.45,11.41,11.41,11.41
59.16,11.81,0.43,11.81,0.43,-0.43,-0.55,-0.48,11.37,11.37,11.37
59.76,11.79,0.46,11.79,0.46,-0.46,-0.56,-0.51,11.33,11.33,11.33
60.35,11.78,0.49,11.78,0.49,-0.49,-0.57,-0.54,11.29,11.29,11.29
60.96,11.77,0.52,11.77,0.52,-0.52,-0.59,-0.57,11.25,11.25,11.25
61.57,11.76,0.55,11.76,0.55,-0.55,-0.60,-0.60,11.21,11.21,11.21
62.18,11.74,0.58,11.74,0.58,-0.58,-0.62,-0.62,11.17,11.17,11.17
62.80,11.73,0.60,11.73,0.60,-0.61,-0.63,-0.65,11.13,11.13,11.13
63.43,11.72,0.63,11.72,0.64,-0.64,-0.65,-0.68,11.08,11.08,11.09
64.07,11.71,0.67,11.71,0.67,-0.67,-0.66,-0.70,11.04,11.04,11.04
64.71,11.70,0.70,11.70,0.70,-0.71,-0.68,-0.73,10.99,10.99,10.99
65.35,11.69,0.74,11.69,0.74,-0.74,-0.70,-0.75,10.94,10.94,10.95
66.01,11.68,0.78,11.68,0.78,-0.78,-0.71,-0.78,10.89,10.89,10.90
66.67,11.67,0.82,11.66,0.82,-0.82,-0.73,-0.80,10.84,10.84,10.84
67.33,11.65,0.86,11.65,0.86,-0.86,-0.75,-0.82,10.79,10.79,10.79
68.01,11.64,0.90,11.64,0.91,-0.91,-0.77,-0.85,10.74,10.73,10.74
68.69,11.63,0.95,11.63,0.95,-0.95,-0.79,-0.87,10.68,10.68,10.68
69.37,11.61,0.99,11.61,0.99,-0.99,-0.81,-0.89,10.63,10.63,10.63
70.07,11.60,1.03,11.60,1.03,-1.03,-0.83,-0.91,10.57,10.57,10.57
70.77,11.59,1.07,11.59,1.07,-1.07,-0.85,-0.93,10.52,10.52,10.52
71.48,11.58,1.11,11.58,1.11,-1.10,-0.87,-0.96,10.47,10.47,10.47
72.19,11.56,1.14,11.56,1.14,-1.14,-0.89,-0.98,10.43,10.43,10.42
72.91,11.55,1.17,11.55,1.17,-1.17,-0.92,-1.00,10.38,10.38,10.38
73.64,11.53,1.20,11.53,1.20,-1.20,-0.94,-1.02,10.34,10.34,10.33
74.38,11.52,1.23,11.52,1.23,-1.23,-0.96,-1.05,10.29,10.29,10.29
75.12,11.50,1.25,11.50,1.25,-1.26,-0.99,-1.07,10.24,10.24,10.25
75.87,11.48,1.28,11.48,1.29,-1.29,-1.02,-1.10,10.19,10.19,10.20
76.63,11.47,1.32,11.47,1.32,-1.32,-1.04,-1.12,10.15,10.15,10.15
77.40,11.46,1.36,11.46,1.36,-1.36,-1.07,-1.15,10.10,10.10,10.10
78.17,11.45,1.40,11.45,1.40,-1.40,-1.10,-1.17,10.05,10.05,10.05
78.95,11.44,1.44,11.44,1.44,-1.44,-1.13,-1.20,10.00,10.00,9.99
79.74,11.42,1.49,11.42,1.49,-1.48,-1.16,-1.23,9.94,9.94,9.94
80.54,11.41,1.53,11.41,1.53,-1.53,-1.19,-1.26,9.88,9.88,9.88
81.35,11.39,1.57,11.39,1.57,-1.57,-1.22,-1.28,9.82,9.82,9.82
82.16,11.38,1.61,11.38,1.62,-1.62,-1.26,-1.32,9.76,9.76,9.76
82.98,11.36,1.66,11.36,1.66,-1.66,-1.29,-1.35,9.70,9.70,9.70
83.81,11.34,1.71,11.34,1.71,-1.71,-1.33,-1.38,9.63,9.63,9.63
84.65,11.32,1.75,11.32,1.75,-1.75,-1.36,-1.41,9.57,9.57,9.57
85.50,11.30,1.80,11.30,1.80,-1.80,-1.40,-1.45,9.50,9.50,9.50
86.35,11.28,1.84,11.28,1.84,-1.84,-1.44,-1.48,9.44,9.44,9.44
87.22,11.25,1.88,11.25,1.88,-1.88,-1.48,-1.52,9.38,9.38,9.37
88.09,11.23,1.92,11.22,1.92,-1.91,-1.52,-1.56,9.31,9.31,9.31
88.97,11.20,1.95,11.20,1.95,-1.95,-1.56,-1.60,9.25,9.25,9.25
89.86,11.17,1.98,11.17,1.98,-1.98,-1.61,-1.64,9.19,9.19,9.19
90.76,11.14,2.01,11.15,2.01,-2.01,-1.65,-1.68,9.13,9.13,9.14
91.66,11.12,2.04,11.12,2.04,-2.04,-1.70,-1.72,9.08,9.08,9.09
92.58,11.11,2.07,11.11,2.07,-2.07,-1.74,-1.77,9.03,9.03,9.04
93.51,11.09,2.10,11.09,2.10,-2.10,-1.79,-1.81,8.99,8.99,8.98
94.44,11.06,2.13,11.06,2.13,-2.12,-1.84,-1.86,8.94,8.94,8.93
95.39,11.03,2.15,11.03,2.15,-2.14,-1.89,-1.91,8.88,8.88,8.87
96.34,10.99,2.17,10.98,2.17,-2.17,-1.94,-1.96,8.82,8.82,8.81
97.30,10.94,2.19,10.94,2.19,-2.19,-1.99,-2.01,8.75,8.75,8.75
98.28,10.89,2.20,10.90,2.20,-2.22,-2.05,-2.06,8.68,8.68,8.69
99.26,10.86,2.23,10.86,2.23,-2.25,-2.10,-2.11,8.61,8.61,8.63
100.25,10.83,2.27,10.83,2.27,-2.28,-2.15,-2.16,8.55,8.55,8.56
101.25,10.82,2.32,10.82,2.32,-2.32,-2.21,-2.21,8.49,8.49,8.50
102.27,10.80,2.37,10.80,2.37,-2.37,-2.26,-2.27,8.44,8.44,8.43
103.29,10.79,2.42,10.79,2.42,-2.41,-2.31,-2.32,8.38,8.38,8.37
104.32,10.77,2.46,10.76,2.46,-2.45,-2.37,-2.37,8.31,8.31,8.30
105.37,10.74,2.50,10.74,2.50,-2.50,-2.42,-2.43,8.24,8.24,8.23
106.42,10.71,2.54,10.71,2.54,-2.53,-2.47,-2.48,8.17,8.17,8.17
107.48,10.67,2.57,10.67,2.57,-2.57,-2.52,-2.54,8.10,8.10,8.10
108.56,10.64,2.60,10.64,2.60,-2.60,-2.57,-2.59,8.04,8.04,8.04
109.64,10.61,2.63,10.61,2.63,-2.63,-2.62,-2.64,7.98,7.98,7.98
110.74,10.58,2.66,10.58,2.66,-2.66,-2.67,-2.69,7.91,7.91,7.92
111.85,10.54,2.69,10.54,2.69,-2.69,-2.72,-2.74,7.85,7.85,7.85
112.97,10.51,2.72,10.51,2.72,-2.72,-2.76,-2.79,7.79,7.79,7.79
114.10,10.48,2.75,10.48,2.75,-2.75,-2.80,-2.84,7.73,7.73,7.72
115.24,10.44,2.78,10.44,2.78,-2.78,-2.84,-2.88,7.66,7.66,7.66
116.39,10.40,2.81,10.40,2.81,-2.81,-2.87,-2.93,7.59,7.59,7.59
117.55,10.36,2.84,10.36,2.84,-2.84,-2.91,-2.97,7.52,7.52,7.52
118.73,10.31,2.86,10.31,2.86,-2.86,-2.94,-3.01,7.45,7.45,7.45
119.92,10.27,2.89,10.27,2.89,-2.89,-2.96,-3.05,7.38,7.38,7.38
121.12,10.22,2.92,10.22,2.92,-2.92,-2.99,-3.08,7.31,7.31,7.31
122.33,10.18,2.94,10.18,2.94,-2.94,-3.01,-3.11,7.24,7.24,7.24
123.55,10.15,2.96,10.15,2.96,-2.97,-3.03,-3.14,7.18,7.18,7.18
124.79,10.11,2.99,10.11,2.99,-2.99,-3.05,-3.17,7.12,7.12,7.12
126.03,10.07,3.01,10.07,3.01,-3.00,-3.06,-3.19,7.06,7.06,7.06
127.29,10.02,3.02,10.02,3.02,-3.02,-3.07,-3.21,7.00,7.00,7.00
128.57,9.97,3.03,9.97,3.03,-3.03,-3.08,-3.23,6.94,6.94,6.93
129.85,9.91,3.04,9.91,3.04,-3.04,-3.09,-3.24,6.87,6.87,6.87
131.15,9.86,3.04,9.86,3.04,-3.05,-3.10,-3.26,6.81,6.81,6.81
132.46,9.80,3.05,9.80,3.05,-3.05,-3.11,-3.27,6.75,6.75,6.75
133.79,9.74,3.05,9.74,3.05,-3.05,-3.11,-3.28,6.69,6.69,6.69
135.12,9.67,3.04,9.67,3.04,-3.04,-3.12,-3.28,6.63,6.63,6.63
136.48,9.60,3.04,9.60,3.04,-3.03,-3.13,-3.29,6.57,6.57,6.56
137.84,9.52,3.03,9.52,3.03,-3.02,-3.13,-3.29,6.50,6.50,6.49
139.22,9.44,3.02,9.44,3.02,-3.01,-3.14,-3.29,6.43,6.43,6.42
140.61,9.36,3.01,9.36,3.01,-3.00,-3.14,-3.30,6.36,6.36,6.35
142.02,9.28,3.00,9.27,2.99,-2.99,-3.15,-3.30,6.29,6.29,6.28
143.44,9.20,2.99,9.20,2.99,-2.99,-3.16,-3.30,6.21,6.21,6.21
144.87,9.13,2.99,9.13,2.99,-3.00,-3.17,-3.30,6.13,6.13,6.15
146.32,9.09,3.01,9.09,3.01,-3.03,-3.18,-3.30,6.06,6.06,6.08
147.78,9.06,3.04,9.07,3.05,-3.07,-3.19,-3.30,5.99,5.99,6.02
149.26,9.07,3.11,9.07,3.11,-3.13,-3.20,-3.30,5.93,5.93,5.96
150.75,9.09,3.19,9.09,3.19,-3.21,-3.22,-3.30,5.88,5.88,5.90
152.26,9.13,3.29,9.13,3.29,-3.30,-3.23,-3.31,5.82,5.83,5.84
153.78,9.18,3.40,9.18,3.40,-3.40,-3.25,-3.31,5.78,5.78,5.78
155.32,9.23,3.51,9.23,3.51,-3.50,-3.27,-3.32,5.73,5.73,5.72
156.88,9.27,3.61,9.27,3.61,-3.59,-3.28,-3.33,5.68,5.68,5.66
158.44,9.30,3.69,9.30,3.69,-3.66,-3.31,-3.34,5.63,5.63,5.61
160.03,9.31,3.76,9.31,3.75,-3.73,-3.33,-3.35,5.59,5.58,5.56
161.63,9.30,3.79,9.30,3.79,-3.77,-3.35,-3.37,5.53,5.53,5.51
163.24,9.29,3.82,9.29,3.82,-3.80,-3.38,-3.38,5.48,5.48,5.47
164.88,9.26,3.83,9.26,3.83,-3.82,-3.41,-3.40,5.44,5.44,5.43
166.53,9.22,3.83,9.22,3.83,-3.83,-3.43,-3.42,5.39,5.39,5.39
168.19,9.18,3.83,9.18,3.83,-3.84,-3.46,-3.45,5.34,5.34,5.35
169.87,9.14,3.84,9.14,3.84,-3.85,-3.50,-3.48,5.29,5.29,5.31
171.57,9.09,3.85,9.09,3.85,-3.87,-3.53,-3.51,5.22,5.22,5.25
173.29,9.04,3.88,9.04,3.88,-3.89,-3.56,-3.54,5.15,5.15,5.17
175.02,8.99,3.91,8.99,3.91,-3.93,-3.60,-3.57,5.06,5.06,5.08
176.77,8.93,3.96,8.93,3.96,-3.97,-3.63,-3.61,4.97,4.97,4.97
178.54,8.88,4.01,8.88,4.01,-4.01,-3.67,-3.65,4.87,4.87,4.87
180.32,8.83,4.07,8.83,4.07,-4.05,-3.71,-3.70,4.78,4.78,4.76
182.13,8.78,4.11,8.78,4.11,-4.09,-3.75,-3.74,4.68,4.68,4.67
183.95,8.72,4.15,8.72,4.15,-4.13,-3.79,-3.79,4.59,4.59,4.58
185.79,8.67,4.17,8.67,4.17,-4.17,-3.84,-3.84,4.50,4.50,4.50
187.65,8.61,4.19,8.61,4.19,-4.20,-3.88,-3.90,4.41,4.41,4.42
189.52,8.55,4.21,8.55,4.21,-4.22,-3.92,-3.96,4.33,4.33,4.34
191.42,8.50,4.24,8.50,4.24,-4.24,-3.97,-4.01,4.25,4.25,4.26
193.33,8.44,4.26,8.44,4.26,-4.26,-4.01,-4.08,4.18,4.18,4.18
195.27,8.39,4.28,8.39,4.28,-4.28,-4.06,-4.14,4.10,4.10,4.11
197.22,8.34,4.31,8.33,4.31,-4.30,-4.10,-4.21,4.03,4.03,4.03
199.19,8.28,4.33,8.28,4.33,-4.32,-4.15,-4.27,3.96,3.96,3.95
201.18,8.22,4.34,8.22,4.34,-4.34,-4.19,-4.34,3.88,3.88,3.87
203.19,8.15,4.35,8.15,4.35,-4.35,-4.24,-4.41,3.80,3.80,3.80
205.23,8.09,4.36,8.09,4.36,-4.37,-4.29,-4.49,3.72,3.72,3.72
207.28,8.02,4.37,8.02,4.37,-4.38,-4.33,-4.56,3.64,3.64,3.65
209.35,7.96,4.38,7.96,4.38,-4.39,-4.38,-4.63,3.57,3.57,3.58
211.44,7.90,4.40,7.90,4.40,-4.40,-4.43,-4.70,3.50,3.50,3.50
213.56,7.85,4.42,7.85,4.41,-4.41,-4.47,-4.77,3.43,3.43,3.43
215.69,7.79,4.43,7.79,4.43,-4.42,-4.51,-4.85,3.36,3.36,3.36
217.85,7.73,4.44,7.73,4.44,-4.44,-4.56,-4.91,3.29,3.29,3.29
220.03,7.66,4.45,7.66,4.45,-4.45,-4.60,-4.98,3.21,3.21,3.21
222.23,7.60,4.46,7.60,4.46,-4.46,-4.64,-5.05,3.13,3.13,3.14
224.45,7.53,4.47,7.53,4.47,-4.47,-4.68,-5.11,3.06,3.06,3.06
226.70,7.47,4.49,7.47,4.49,-4.48,-4.72,-5.16,2.98,2.98,2.98
228.96,7.40,4.50,7.40,4.50,-4.49,-4.76,-5.22,2.91,2.91,2.90
231.25,7.34,4.51,7.34,4.51,-4.50,-4.80,-5.27,2.83,2.83,2.83
233.57,7.27,4.52,7.27,4.52,-4.51,-4.83,-5.31,2.76,2.76,2.75
235.90,7.20,4.52,7.20,4.52,-4.53,-4.87,-5.35,2.68,2.68,2.68
238.26,7.14,4.53,7.14,4.53,-4.54,-4.90,-5.38,2.60,2.60,2.61
240.64,7.08,4.55,7.08,4.55,-4.56,-4.93,-5.40,2.52,2.52,2.53
243.05,7.03,4.57,7.03,4.57,-4.58,-4.95,-5.42,2.44,2.45,2.45
245.48,6.97,4.60,6.97,4.60,-4.60,-4.98,-5.43,2.37,2.37,2.37
247.93,6.92,4.63,6.92,4.63,-4.63,-5.00,-5.43,2.30,2.30,2.29
250.41,6.87,4.66,6.87,4.66,-4.65,-5.02,-5.43,2.22,2.22,2.21
252.92,6.82,4.68,6.82,4.68,-4.68,-5.03,-5.42,2.14,2.14,2.13
255.45,6.76,4.71,6.76,4.71,-4.70,-5.04,-5.39,2.06,2.06,2.06
258.00,6.70,4.73,6.70,4.73,-4.73,-5.06,-5.37,1.97,1.97,1.98
260.58,6.65,4.75,6.65,4.75,-4.76,-5.06,-5.33,1.89,1.89,1.90
263.19,6.59,4.77,6.59,4.77,-4.78,-5.07,-5.29,1.81,1.81,1.82
265.82,6.53,4.80,6.53,4.80,-4.80,-5.07,-5.24,1.73,1.73,1.73
268.48,6.47,4.82,6.47,4.82,-4.82,-5.06,-5.18,1.65,1.65,1.65
271.16,6.42,4.85,6.42,4.85,-4.84,-5.06,-5.12,1.57,1.57,1.57
273.87,6.36,4.86,6.36,4.86,-4.86,-5.05,-5.05,1.50,1.50,1.49
276.61,6.30,4.88,6.30,4.88,-4.88,-5.03,-4.98,1.42,1.42,1.42
279.38,6.23,4.89,6.23,4.89,-4.89,-5.02,-4.91,1.35,1.35,1.35
282.17,6.17,4.89,6.17,4.89,-4.89,-5.00,-4.83,1.28,1.28,1.28
284.99,6.11,4.89,6.11,4.89,-4.89,-4.98,-4.74,1.21,1.21,1.22
287.84,6.04,4.89,6.04,4.89,-4.89,-4.95,-4.66,1.15,1.15,1.16
290.72,5.98,4.88,5.98,4.88,-4.88,-4.92,-4.57,1.10,1.10,1.10
293.63,5.91,4.87,5.91,4.87,-4.87,-4.88,-4.48,1.05,1.05,1.04
296.57,5.85,4.85,5.85,4.85,-4.85,-4.85,-4.39,1.00,1.00,1.00
299.53,5.78,4.83,5.78,4.83,-4.82,-4.81,-4.30,0.96,0.96,0.95
302.53,5.71,4.79,5.71,4.79,-4.79,-4.77,-4.21,0.92,0.92,0.91
305.55,5.63,4.75,5.63,4.75,-4.75,-4.72,-4.12,0.89,0.89,0.88
308.61,5.56,4.70,5.56,4.70,-4.70,-4.67,-4.03,0.86,0.86,0.86
311.69,5.49,4.65,5.49,4.65,-4.65,-4.62,-3.94,0.84,0.84,0.84
314.81,5.42,4.59,5.42,4.59,-4.59,-4.56,-3.85,0.83,0.83,0.83
317.96,5.35,4.53,5.35,4.53,-4.53,-4.51,-3.76,0.82,0.82,0.82
321.14,5.28,4.46,5.28,4.46,-4.46,-4.45,-3.68,0.82,0.82,0.81
324.35,5.20,4.39,5.20,4.39,-4.39,-4.39,-3.60,0.82,0.81,0.81
327.59,5.13,4.32,5.13,4.32,-4.32,-4.32,-3.51,0.81,0.81,0.81
330.87,5.06,4.24,5.06,4.24,-4.25,-4.25,-3.43,0.82,0.82,0.82
334.18,4.99,4.17,4.99,4.17,-4.17,-4.19,-3.35,0.82,0.82,0.82
337.52,4.93,4.10,4.93,4.10,-4.10,-4.12,-3.28,0.82,0.82,0.83
340.90,4.87,4.03,4.87,4.03,-4.04,-4.04,-3.20,0.83,0.83,0.84
344.30,4.81,3.96,4.82,3.96,-3.97,-3.97,-3.13,0.84,0.85,0.85
347.75,4.76,3.90,4.76,3.90,-3.90,-3.89,-3.06,0.86,0.86,0.86
351.23,4.72,3.84,4.72,3.84,-3.84,-3.82,-3.00,0.88,0.88,0.87
354.74,4.67,3.78,4.67,3.78,-3.77,-3.74,-2.93,0.89,0.89,0.89
358.28,4.61,3.71,4.61,3.71,-3.70,-3.66,-2.87,0.91,0.91,0.90
361.87,4.56,3.64,4.56,3.64,-3.63,-3.59,-2.81,0.92,0.92,0.91
365.49,4.49,3.56,4.49,3.56,-3.56,-3.51,-2.75,0.93,0.93,0.93
369.14,4.43,3.49,4.43,3.49,-3.49,-3.43,-2.69,0.94,0.94,0.94
372.83,4.36,3.41,4.36,3.41,-3.41,-3.35,-2.64,0.95,0.95,0.95
376.56,4.29,3.33,4.29,3.33,-3.33,-3.27,-2.59,0.96,0.96,0.96
380.33,4.22,3.25,4.22,3.25,-3.25,-3.19,-2.54,0.97,0.97,0.97
384.13,4.15,3.17,4.15,3.17,-3.17,-3.12,-2.49,0.98,0.98,0.98
387.97,4.08,3.10,4.08,3.09,-3.09,-3.04,-2.45,0.98,0.98,0.98
391.85,4.01,3.02,4.01,3.02,-3.02,-2.97,-2.40,0.99,0.99,0.99
395.77,3.94,2.94,3.94,2.94,-2.94,-2.89,-2.36,1.00,1.00,0.99
399.73,3.87,2.87,3.87,2.87,-2.87,-2.82,-2.32,1.00,1.00,1.00
403.72,3.79,2.79,3.79,2.79,-2.79,-2.75,-2.28,1.00,1.00,1.00
407.76,3.72,2.72,3.72,2.72,-2.72,-2.68,-2.25,1.00,1.00,1.00
411.84,3.65,2.64,3.65,2.64,-2.64,-2.61,-2.21,1.00,1.00,1.00
415.96,3.57,2.57,3.57,2.57,-2.57,-2.54,-2.18,1.00,1.00,1.00
420.12,3.50,2.50,3.50,2.50,-2.50,-2.47,-2.14,1.00,1.00,1.00
424.32,3.43,2.43,3.43,2.43,-2.43,-2.40,-2.11,1.01,1.01,1.01
428.56,3.37,2.36,3.37,2.36,-2.36,-2.34,-2.08,1.01,1.01,1.01
432.85,3.30,2.29,3.30,2.29,-2.29,-2.27,-2.04,1.01,1.01,1.01
437.18,3.23,2.22,3.23,2.22,-2.22,-2.20,-2.01,1.01,1.01,1.01
441.55,3.16,2.15,3.16,2.15,-2.15,-2.14,-1.98,1.01,1.01,1.01
445.96,3.09,2.08,3.09,2.08,-2.08,-2.07,-1.95,1.01,1.01,1.01
450.42,3.02,2.01,3.02,2.01,-2.01,-2.01,-1.92,1.01,1.01,1.01
454.93,2.95,1.94,2.95,1.94,-1.93,-1.95,-1.89,1.01,1.01,1.01
459.48,2.88,1.86,2.88,1.86,-1.86,-1.88,-1.85,1.01,1.01,1.01
464.07,2.81,1.79,2.81,1.79,-1.79,-1.82,-1.82,1.01,1.01,1.01
468.71,2.74,1.72,2.74,1.72,-1.72,-1.75,-1.79,1.01,1.01,1.02
473.40,2.67,1.65,2.67,1.65,-1.65,-1.69,-1.75,1.01,1.01,1.01
478.13,2.60,1.58,2.60,1.58,-1.58,-1.63,-1.71,1.01,1.01,1.01
