frequency,raw,error,smoothed,error_smoothed,equalization,parametric_eq,fixed_band_eq,equalized_raw,equalized_smoothed,target
20.00,8.56,2.43,8.56,2.43,-2.43,-2.11,-1.05,6.13,6.14,6.13
20.20,8.56,2.30,8.56,2.30,-2.30,-2.11,-1.08,6.26,6.26,6.26
20.40,8.56,2.18,8.56,2.18,-2.19,-2.11,-1.11,6.38,6.38,6.38
20.61,8.57,2.07,8.57,2.07,-2.08,-2.08,-1.14,6.49,6.49,6.50
20.81,8.58,1.98,8.58,1.98,-1.99,-2.05,-1.18,6.59,6.59,6.60
21.02,8.59,1.90,8.59,1.90,-1.90,-2.01,-1.21,6.69,6.69,6.69
21.23,8.61,1.83,8.61,1.83,-1.82,-1.97,-1.25,6.79,6.79,6.77
21.44,8.62,1.77,8.62,1.77,-1.76,-1.93,-1.28,6.87,6.87,6.85
21.66,8.64,1.71,8.64,1.71,-1.69,-1.90,-1.32,6.95,6.95,6.92
21.87,8.65,1.66,8.65,1.65,-1.63,-1.88,-1.36,7.01,7.01,6.99
22.09,8.65,1.60,8.65,1.60,-1.59,-1.86,-1.40,7.06,7.06,7.05
22.31,8.65,1.56,8.65,1.56,-1.56,-1.84,-1.44,7.09,7.09,7.09
22.54,8.65,1.54,8.65,1.54,-1.56,-1.83,-1.48,7.09,7.09,7.11
22.76,8.64,1.54,8.64,1.54,-1.59,-1.83,-1.52,7.06,7.06,7.11
22.99,8.64,1.59,8.64,1.59,-1.64,-1.83,-1.56,7.00,7.00,7.05
23.22,8.64,1.67,8.64,1.67,-1.72,-1.84,-1.61,6.92,6.92,6.98
23.45,8.65,1.78,8.65,1.78,-1.83,-1.85,-1.65,6.83,6.83,6.87
23.69,8.67,1.92,8.67,1.92,-1.93,-1.86,-1.70,6.73,6.73,6.74
23.92,8.69,2.06,8.69,2.06,-2.04,-1.87,-1.74,6.65,6.65,6.62
24.16,8.71,2.19,8.71,2.18,-2.12,-1.89,-1.79,6.59,6.59,6.52
24.40,8.73,2.26,8.73,2.25,-2.16,-1.90,-1.84,6.57,6.57,6.47
24.65,8.75,2.27,8.75,2.26,-2.18,-1.92,-1.89,6.57,6.57,6.48
24.89,8.76,2.22,8.76,2.21,-2.15,-1.94,-1.94,6.61,6.61,6.54
25.14,8.77,2.12,8.77,2.12,-2.10,-1.96,-1.99,6.68,6.68,6.65
25.39,8.78,2.01,8.78,2.01,-2.03,-1.98,-2.04,6.75,6.75,6.77
25.65,8.79,1.90,8.79,1.90,-1.96,-2.00,-2.09,6.83,6.83,6.89
25.91,8.80,1.82,8.80,1.83,-1.91,-2.02,-2.14,6.89,6.89,6.98
26.16,8.81,1.80,8.81,1.80,-1.88,-2.05,-2.19,6.93,6.93,7.00
26.43,8.82,1.83,8.82,1.83,-1.88,-2.07,-2.25,6.94,6.94,6.99
26.69,8.83,1.89,8.83,1.89,-1.91,-2.09,-2.30,6.92,6.92,6.94
26.96,8.84,1.98,8.84,1.98,-1.96,-2.11,-2.35,6.88,6.88,6.86
27.23,8.85,2.07,8.85,2.07,-2.04,-2.14,-2.39,6.82,6.81,6.78
27.50,8.86,2.16,8.86,2.15,-2.11,-2.16,-2.44,6.74,6.74,6.70
27.77,8.86,2.22,8.86,2.22,-2.19,-2.18,-2.49,6.67,6.67,6.64
28.05,8.86,2.28,8.86,2.28,-2.27,-2.20,-2.54,6.60,6.60,6.59
28.33,8.86,2.32,8.86,2.33,-2.33,-2.22,-2.58,6.53,6.53,6.54
28.62,8.86,2.38,8.86,2.38,-2.39,-2.25,-2.62,6.47,6.47,6.48
28.90,8.85,2.43,8.85,2.43,-2.44,-2.27,-2.66,6.41,6.41,6.42
29.19,8.84,2.49,8.84,2.49,-2.49,-2.29,-2.70,6.35,6.35,6.36
29.48,8.83,2.54,8.83,2.54,-2.54,-2.31,-2.73,6.29,6.29,6.29
29.78,8.82,2.59,8.82,2.59,-2.60,-2.33,-2.77,6.22,6.22,6.24
30.08,8.82,2.63,8.82,2.63,-2.66,-2.35,-2.79,6.16,6.16,6.19
30.38,8.82,2.68,8.82,2.68,-2.71,-2.37,-2.82,6.12,6.12,6.15
30.68,8.83,2.73,8.83,2.73,-2.74,-2.39,-2.84,6.10,6.10,6.11
30.99,8.85,2.77,8.85,2.77,-2.74,-2.40,-2.87,6.11,6.11,6.08
31.30,8.87,2.80,8.87,2.79,-2.72,-2.42,-2.88,6.15,6.15,6.07
31.61,8.88,2.76,8.88,2.76,-2.67,-2.44,-2.90,6.21,6.21,6.12
31.93,8.88,2.68,8.88,2.67,-2.60,-2.46,-2.91,6.28,6.28,6.21
32.24,8.88,2.55,8.88,2.55,-2.53,-2.47,-2.92,6.35,6.35,6.32
32.57,8.87,2.41,8.87,2.42,-2.46,-2.49,-2.92,6.40,6.40,6.45
32.89,8.85,2.31,8.85,2.32,-2.41,-2.51,-2.93,6.44,6.44,6.54
33.22,8.84,2.26,8.85,2.27,-2.38,-2.52,-2.93,6.47,6.47,6.59
33.55,8.84,2.28,8.84,2.29,-2.37,-2.54,-2.92,6.47,6.47,6.56
33.89,8.84,2.37,8.84,2.37,-2.39,-2.55,-2.92,6.45,6.45,6.47
34.23,8.85,2.47,8.85,2.47,-2.44,-2.57,-2.91,6.42,6.41,6.38
34.57,8.86,2.57,8.86,2.56,-2.49,-2.59,-2.90,6.37,6.36,6.29
34.92,8.86,2.62,8.86,2.62,-2.55,-2.60,-2.90,6.31,6.31,6.24
35.27,8.86,2.64,8.86,2.64,-2.61,-2.62,-2.88,6.25,6.25,6.22
35.62,8.86,2.65,8.86,2.65,-2.65,-2.63,-2.87,6.21,6.21,6.21
35.97,8.85,2.65,8.85,2.65,-2.68,-2.65,-2.86,6.17,6.17,6.20
36.33,8.85,2.66,8.85,2.67,-2.69,-2.66,-2.85,6.16,6.16,6.19
36.70,8.85,2.68,8.85,2.68,-2.69,-2.68,-2.83,6.16,6.16,6.17
37.06,8.85,2.70,8.85,2.70,-2.68,-2.69,-2.82,6.17,6.17,6.15
37.43,8.85,2.70,8.85,2.70,-2.66,-2.71,-2.81,6.19,6.19,6.15
37.81,8.85,2.68,8.85,2.68,-2.64,-2.73,-2.80,6.21,6.21,6.17
38.19,8.86,2.64,8.86,2.64,-2.62,-2.74,-2.78,6.23,6.23,6.21
38.57,8.86,2.60,8.86,2.60,-2.61,-2.76,-2.77,6.25,6.25,6.26
38.95,8.86,2.56,8.86,2.56,-2.60,-2.77,-2.76,6.27,6.27,6.30
39.34,8.86,2.54,8.86,2.55,-2.59,-2.79,-2.76,6.27,6.27,6.32
39.74,8.86,2.56,8.86,2.56,-2.60,-2.81,-2.75,6.26,6.26,6.29
40.14,8.85,2.61,8.85,2.61,-2.62,-2.83,-2.74,6.23,6.23,6.24
40.54,8.84,2.67,8.84,2.67,-2.65,-2.84,-2.74,6.19,6.19,6.17
40.94,8.84,2.73,8.84,2.72,-2.70,-2.86,-2.74,6.14,6.14,6.11
41.35,8.83,2.77,8.83,2.77,-2.75,-2.88,-2.74,6.08,6.08,6.06
41.76,8.83,2.80,8.83,2.80,-2.81,-2.90,-2.74,6.01,6.01,6.02
42.18,8.82,2.84,8.82,2.85,-2.87,-2.91,-2.74,5.96,5.96,5.98
42.60,8.82,2.90,8.82,2.91,-2.92,-2.93,-2.74,5.90,5.90,5.92
43.03,8.82,2.97,8.82,2.97,-2.96,-2.95,-2.75,5.86,5.86,5.85
43.46,8.82,3.03,8.82,3.03,-3.00,-2.97,-2.76,5.83,5.83,5.79
43.90,8.82,3.07,8.82,3.06,-3.03,-2.99,-2.77,5.79,5.79,5.75
44.33,8.81,3.08,8.81,3.08,-3.06,-3.01,-2.79,5.76,5.76,5.73
44.78,8.81,3.07,8.81,3.08,-3.08,-3.03,-2.80,5.72,5.72,5.73
45.23,8.80,3.08,8.80,3.08,-3.11,-3.05,-2.82,5.69,5.69,5.72
45.68,8.79,3.10,8.79,3.10,-3.13,-3.07,-2.84,5.66,5.66,5.69
46.13,8.78,3.14,8.78,3.14,-3.16,-3.09,-2.86,5.62,5.62,5.64
46.60,8.77,3.19,8.77,3.18,-3.19,-3.11,-2.89,5.58,5.58,5.59
47.06,8.77,3.23,8.77,3.23,-3.23,-3.12,-2.91,5.54,5.54,5.53
47.53,8.76,3.27,8.76,3.27,-3.26,-3.14,-2.94,5.50,5.50,5.49
48.01,8.75,3.30,8.75,3.31,-3.29,-3.17,-2.97,5.46,5.46,5.45
48.49,8.74,3.33,8.74,3.33,-3.32,-3.19,-3.00,5.42,5.42,5.41
48.97,8.73,3.35,8.73,3.34,-3.33,-3.21,-3.03,5.40,5.40,5.38
49.46,8.72,3.35,8.72,3.35,-3.34,-3.23,-3.07,5.38,5.38,5.37
49.96,8.71,3.35,8.71,3.35,-3.33,-3.25,-3.10,5.38,5.38,5.37
50.46,8.71,3.34,8.71,3.34,-3.33,-3.27,-3.14,5.38,5.38,5.37
50.96,8.70,3.32,8.70,3.32,-3.32,-3.29,-3.18,5.38,5.38,5.37
51.47,8.69,3.31,8.69,3.30,-3.32,-3.31,-3.22,5.37,5.37,5.38
51.99,8.68,3.29,8.68,3.29,-3.32,-3.33,-3.26,5.36,5.36,5.39
52.51,8.67,3.29,8.67,3.30,-3.34,-3.35,-3.30,5.33,5.33,5.38
53.03,8.66,3.33,8.66,3.33,-3.36,-3.37,-3.34,5.30,5.30,5.33
53.56,8.64,3.38,8.64,3.38,-3.39,-3.39,-3.38,5.26,5.26,5.26
54.10,8.63,3.44,8.63,3.43,-3.42,-3.41,-3.43,5.22,5.22,5.19
54.64,8.62,3.48,8.62,3.48,-3.45,-3.43,-3.47,5.17,5.17,5.14
55.18,8.61,3.50,8.61,3.50,-3.48,-3.45,-3.51,5.13,5.13,5.10
55.74,8.59,3.52,8.59,3.52,-3.51,-3.47,-3.54,5.08,5.08,5.07
56.29,8.57,3.53,8.57,3.53,-3.53,-3.48,-3.58,5.05,5.05,5.05
56.86,8.56,3.53,8.56,3.53,-3.54,-3.50,-3.62,5.01,5.01,5.03
57.42,8.54,3.53,8.54,3.54,-3.55,-3.52,-3.65,4.99,4.99,5.01
58.00,8.52,3.55,8.52,3.55,-3.56,-3.54,-3.68,4.96,4.96,4.97
58.58,8.51,3.57,8.51,3.57,-3.56,-3.56,-3.71,4.95,4.95,4.94
59.16,8.49,3.59,8.49,3.58,-3.56,-3.58,-3.74,4.93,4.93,4.90
59.76,8.47,3.59,8.47,3.58,-3.57,-3.59,-3.76,4.90,4.90,4.88
60.35,8.46,3.58,8.46,3.58,-3.58,-3.61,-3.78,4.88,4.88,4.88
60.96,8.44,3.57,8.44,3.57,-3.59,-3.63,-3.80,4.86,4.86,4.88
61.57,8.43,3.57,8.43,3.58,-3.60,-3.64,-3.81,4.83,4.83,4.86
62.18,8.42,3.60,8.42,3.60,-3.62,-3.66,-3.82,4.79,4.79,4.81
62.80,8.40,3.64,8.40,3.64,-3.64,-3.68,-3.83,4.76,4.76,4.76
63.43,8.39,3.68,8.39,3.67,-3.67,-3.69,-3.83,4.72,4.72,4.71
64.07,8.37,3.71,8.37,3.71,-3.69,-3.71,-3.83,4.68,4.68,4.67
64.71,8.36,3.73,8.36,3.73,-3.72,-3.72,-3.83,4.64,4.64,4.62
65.35,8.34,3.75,8.34,3.75,-3.74,-3.73,-3.82,4.60,4.60,4.59
66.01,8.33,3.77,8.33,3.77,-3.76,-3.75,-3.81,4.57,4.57,4.56
66.67,8.31,3.77,8.31,3.77,-3.78,-3.76,-3.80,4.53,4.53,4.54
67.33,8.30,3.78,8.30,3.78,-3.79,-3.77,-3.78,4.50,4.50,4.52
68.01,8.28,3.79,8.28,3.79,-3.81,-3.78,-3.77,4.47,4.47,4.49
68.69,8.26,3.81,8.26,3.81,-3.82,-3.79,-3.75,4.44,4.44,4.45
69.37,8.24,3.83,8.24,3.83,-3.83,-3.80,-3.72,4.41,4.41,4.40
70.07,8.22,3.85,8.22,3.85,-3.83,-3.81,-3.70,4.38,4.38,4.36
70.77,8.19,3.85,8.19,3.85,-3.84,-3.82,-3.68,4.36,4.36,4.34
71.48,8.17,3.85,8.17,3.85,-3.84,-3.83,-3.65,4.33,4.33,4.32
72.19,8.15,3.83,8.15,3.83,-3.84,-3.84,-3.62,4.31,4.31,4.31
72.91,8.12,3.82,8.12,3.82,-3.83,-3.84,-3.60,4.29,4.29,4.30
73.64,8.09,3.82,8.09,3.82,-3.83,-3.85,-3.57,4.27,4.27,4.28
74.38,8.07,3.82,8.07,3.82,-3.82,-3.85,-3.55,4.24,4.24,4.25
75.12,8.04,3.82,8.04,3.82,-3.82,-3.86,-3.52,4.22,4.22,4.21
75.87,8.01,3.82,8.01,3.82,-3.82,-3.86,-3.50,4.18,4.18,4.18
76.63,7.98,3.82,7.98,3.82,-3.83,-3.86,-3.47,4.15,4.15,4.15
77.40,7.95,3.83,7.95,3.83,-3.83,-3.86,-3.45,4.12,4.12,4.12
78.17,7.92,3.84,7.92,3.84,-3.84,-3.87,-3.43,4.08,4.08,4.09
78.95,7.90,3.85,7.90,3.85,-3.84,-3.87,-3.41,4.05,4.05,4.05
79.74,7.87,3.86,7.87,3.85,-3.85,-3.87,-3.39,4.02,4.02,4.01
80.54,7.85,3.86,7.85,3.86,-3.85,-3.87,-3.38,3.99,3.99,3.99
81.35,7.82,3.85,7.82,3.85,-3.85,-3.86,-3.36,3.97,3.97,3.97
82.16,7.79,3.85,7.79,3.85,-3.85,-3.86,-3.35,3.94,3.94,3.94
82.98,7.76,3.85,7.76,3.85,-3.84,-3.86,-3.34,3.92,3.92,3.91
83.81,7.73,3.85,7.73,3.84,-3.83,-3.86,-3.33,3.89,3.89,3.88
84.65,7.70,3.83,7.70,3.83,-3.83,-3.86,-3.33,3.87,3.87,3.87
85.50,7.67,3.81,7.67,3.82,-3.82,-3.85,-3.33,3.85,3.85,3.85
86.35,7.64,3.80,7.64,3.81,-3.82,-3.85,-3.33,3.82,3.82,3.83
87.22,7.61,3.81,7.61,3.80,-3.82,-3.85,-3.33,3.78,3.78,3.80
88.09,7.58,3.81,7.58,3.81,-3.83,-3.85,-3.33,3.75,3.75,3.77
88.97,7.55,3.82,7.55,3.83,-3.84,-3.85,-3.34,3.71,3.71,3.73
89.86,7.52,3.84,7.51,3.85,-3.84,-3.85,-3.35,3.67,3.67,3.67
90.76,7.48,3.88,7.48,3.87,-3.85,-3.85,-3.37,3.63,3.63,3.60
91.66,7.45,3.89,7.45,3.88,-3.85,-3.85,-3.38,3.60,3.60,3.56
92.58,7.41,3.87,7.41,3.87,-3.85,-3.85,-3.40,3.57,3.56,3.54
93.51,7.38,3.84,7.38,3.85,-3.85,-3.85,-3.42,3.53,3.54,3.54
94.44,7.36,3.82,7.36,3.82,-3.85,-3.85,-3.44,3.51,3.51,3.53
95.39,7.34,3.81,7.34,3.81,-3.85,-3.86,-3.47,3.49,3.49,3.53
96.34,7.32,3.81,7.33,3.82,-3.84,-3.86,-3.49,3.48,3.48,3.51
97.30,7.32,3.84,7.32,3.84,-3.85,-3.86,-3.52,3.48,3.48,3.49
98.28,7.32,3.86,7.32,3.86,-3.85,-3.86,-3.55,3.47,3.47,3.46
99.26,7.30,3.88,7.30,3.87,-3.85,-3.86,-3.59,3.45,3.44,3.42
100.25,7.26,3.88,7.26,3.87,-3.85,-3.86,-3.62,3.41,3.41,3.39
101.25,7.21,3.86,7.22,3.86,-3.85,-3.86,-3.66,3.36,3.36,3.36
102.27,7.17,3.84,7.17,3.84,-3.84,-3.86,-3.69,3.32,3.32,3.32
103.29,7.12,3.83,7.12,3.83,-3.83,-3.86,-3.73,3.29,3.29,3.29
104.32,7.08,3.81,7.08,3.81,-3.81,-3.86,-3.77,3.27,3.26,3.27
105.37,7.03,3.79,7.03,3.79,-3.79,-3.85,-3.81,3.24,3.24,3.24
106.42,6.99,3.77,6.98,3.77,-3.77,-3.85,-3.85,3.21,3.21,3.22
107.48,6.94,3.75,6.94,3.75,-3.76,-3.84,-3.89,3.19,3.19,3.19
108.56,6.90,3.74,6.90,3.74,-3.74,-3.84,-3.93,3.16,3.16,3.16
109.64,6.87,3.73,6.87,3.73,-3.73,-3.83,-3.96,3.13,3.14,3.14
110.74,6.84,3.73,6.84,3.73,-3.73,-3.82,-4.00,3.11,3.11,3.11
111.85,6.82,3.73,6.82,3.73,-3.73,-3.82,-4.03,3.08,3.08,3.09
112.97,6.79,3.73,6.79,3.73,-3.74,-3.81,-4.07,3.05,3.05,3.06
114.10,6.77,3.74,6.77,3.74,-3.75,-3.80,-4.10,3.02,3.02,3.02
115.24,6.74,3.76,6.74,3.76,-3.76,-3.79,-4.12,2.98,2.98,2.98
116.39,6.71,3.77,6.71,3.77,-3.77,-3.78,-4.15,2.94,2.94,2.93
117.55,6.67,3.79,6.67,3.78,-3.78,-3.77,-4.17,2.89,2.89,2.88
118.73,6.63,3.79,6.63,3.79,-3.78,-3.76,-4.19,2.85,2.85,2.84
119.92,6.59,3.79,6.60,3.79,-3.78,-3.74,-4.20,2.81,2.81,2.81
121.12,6.55,3.78,6.55,3.78,-3.78,-3.73,-4.21,2.78,2.78,2.77
122.33,6.51,3.77,6.51,3.77,-3.77,-3.72,-4.22,2.74,2.74,2.74
123.55,6.46,3.76,6.46,3.75,-3.75,-3.71,-4.22,2.72,2.72,2.71
124.79,6.41,3.73,6.41,3.73,-3.73,-3.69,-4.21,2.69,2.69,2.68
126.03,6.36,3.70,6.36,3.70,-3.70,-3.68,-4.20,2.66,2.66,2.66
127.29,6.31,3.67,6.31,3.67,-3.68,-3.66,-4.19,2.63,2.63,2.64
128.57,6.26,3.64,6.26,3.65,-3.66,-3.65,-4.17,2.60,2.60,2.61
129.85,6.21,3.63,6.21,3.63,-3.64,-3.63,-4.15,2.57,2.57,2.58
131.15,6.15,3.62,6.15,3.62,-3.62,-3.62,-4.12,2.53,2.53,2.54
132.46,6.10,3.61,6.10,3.61,-3.61,-3.60,-4.09,2.49,2.49,2.49
133.79,6.05,3.60,6.05,3.60,-3.59,-3.59,-4.06,2.45,2.45,2.45
135.12,6.00,3.59,6.00,3.59,-3.59,-3.57,-4.02,2.41,2.41,2.41
136.48,5.96,3.59,5.96,3.59,-3.59,-3.56,-3.98,2.37,2.37,2.37
137.84,5.92,3.58,5.92,3.58,-3.59,-3.54,-3.93,2.33,2.33,2.34
139.22,5.90,3.58,5.90,3.58,-3.59,-3.52,-3.88,2.31,2.31,2.32
140.61,5.89,3.59,5.89,3.59,-3.60,-3.51,-3.83,2.28,2.28,2.29
142.02,5.88,3.61,5.88,3.61,-3.61,-3.49,-3.78,2.27,2.27,2.28
143.44,5.88,3.62,5.88,3.62,-3.63,-3.48,-3.73,2.25,2.25,2.26
144.87,5.88,3.64,5.88,3.64,-3.64,-3.46,-3.67,2.24,2.24,2.24
146.32,5.87,3.65,5.87,3.65,-3.65,-3.44,-3.62,2.23,2.23,2.22
147.78,5.86,3.66,5.86,3.66,-3.65,-3.43,-3.56,2.21,2.21,2.20
149.26,5.84,3.66,5.84,3.66,-3.65,-3.41,-3.51,2.19,2.19,2.18
150.75,5.81,3.64,5.81,3.64,-3.63,-3.40,-3.45,2.18,2.18,2.17
152.26,5.77,3.61,5.77,3.61,-3.61,-3.38,-3.40,2.16,2.16,2.16
153.78,5.73,3.58,5.73,3.58,-3.58,-3.37,-3.34,2.15,2.15,2.15
155.32,5.68,3.54,5.68,3.54,-3.54,-3.35,-3.29,2.15,2.15,2.14
156.88,5.63,3.49,5.63,3.49,-3.49,-3.34,-3.23,2.14,2.14,2.14
158.44,5.58,3.44,5.58,3.44,-3.44,-3.32,-3.18,2.14,2.14,2.14
160.03,5.53,3.39,5.53,3.39,-3.39,-3.31,-3.13,2.14,2.14,2.14
161.63,5.47,3.33,5.47,3.33,-3.33,-3.30,-3.08,2.14,2.14,2.14
163.24,5.42,3.28,5.42,3.28,-3.28,-3.28,-3.03,2.14,2.14,2.13
164.88,5.36,3.23,5.36,3.23,-3.23,-3.27,-2.99,2.13,2.13,2.13
166.53,5.31,3.18,5.31,3.18,-3.18,-3.26,-2.94,2.12,2.12,2.12
168.19,5.25,3.14,5.25,3.14,-3.15,-3.25,-2.90,2.11,2.11,2.11
169.87,5.20,3.11,5.20,3.11,-3.12,-3.24,-2.86,2.08,2.08,2.09
171.57,5.15,3.09,5.15,3.09,-3.10,-3.23,-2.82,2.04,2.04,2.06
173.29,5.09,3.08,5.09,3.08,-3.10,-3.22,-2.79,2.00,2.00,2.01
175.02,5.04,3.09,5.04,3.09,-3.10,-3.21,-2.75,1.94,1.94,1.95
176.77,4.98,3.11,4.98,3.11,-3.11,-3.20,-2.72,1.87,1.87,1.88
178.54,4.93,3.13,4.93,3.13,-3.12,-3.19,-2.69,1.81,1.81,1.80
180.32,4.87,3.15,4.87,3.15,-3.14,-3.18,-2.66,1.74,1.74,1.73
182.13,4.82,3.16,4.82,3.16,-3.15,-3.17,-2.64,1.67,1.68,1.66
183.95,4.77,3.17,4.77,3.17,-3.15,-3.16,-2.61,1.62,1.62,1.60
185.79,4.72,3.16,4.72,3.16,-3.15,-3.14,-2.59,1.57,1.57,1.56
187.65,4.67,3.15,4.67,3.15,-3.15,-3.13,-2.57,1.53,1.53,1.52
189.52,4.62,3.13,4.62,3.13,-3.13,-3.12,-2.55,1.49,1.49,1.50
191.42,4.58,3.11,4.58,3.11,-3.12,-3.11,-2.54,1.46,1.46,1.47
193.33,4.53,3.09,4.53,3.09,-3.10,-3.09,-2.52,1.43,1.43,1.44
195.27,4.48,3.07,4.48,3.07,-3.08,-3.08,-2.51,1.41,1.41,1.41
197.22,4.44,3.06,4.44,3.05,-3.05,-3.06,-2.50,1.39,1.39,1.38
199.19,4.39,3.03,4.39,3.03,-3.02,-3.05,-2.49,1.37,1.37,1.36
201.18,4.34,3.00,4.34,3.00,-2.99,-3.03,-2.48,1.35,1.35,1.34
203.19,4.29,2.96,4.29,2.96,-2.96,-3.01,-2.47,1.33,1.33,1.33
205.23,4.23,2.92,4.23,2.92,-2.92,-2.98,-2.47,1.31,1.31,1.31
207.28,4.18,2.88,4.18,2.88,-2.88,-2.96,-2.46,1.30,1.30,1.30
209.35,4.13,2.84,4.13,2.84,-2.85,-2.93,-2.46,1.28,1.28,1.29
211.44,4.08,2.81,4.08,2.81,-2.82,-2.90,-2.45,1.26,1.26,1.27
213.56,4.03,2.78,4.03,2.78,-2.78,-2.87,-2.45,1.24,1.24,1.25
215.69,3.98,2.76,3.98,2.76,-2.76,-2.84,-2.45,1.22,1.22,1.22
217.85,3.93,2.73,3.93,2.73,-2.73,-2.80,-2.45,1.20,1.20,1.19
220.03,3.88,2.71,3.88,2.71,-2.70,-2.76,-2.45,1.17,1.17,1.17
222.23,3.82,2.68,3.82,2.68,-2.68,-2.72,-2.44,1.14,1.14,1.14
224.45,3.77,2.66,3.77,2.66,-2.66,-2.69,-2.44,1.12,1.12,1.11
226.70,3.72,2.63,3.72,2.63,-2.63,-2.64,-2.44,1.09,1.09,1.09
228.96,3.67,2.61,3.67,2.61,-2.61,-2.60,-2.43,1.06,1.06,1.07
231.25,3.62,2.58,3.62,2.58,-2.59,-2.56,-2.43,1.03,1.03,1.04
233.57,3.57,2.56,3.57,2.56,-2.57,-2.52,-2.42,1.01,1.01,1.01
235.90,3.52,2.54,3.52,2.54,-2.54,-2.47,-2.42,0.98,0.98,0.98
238.26,3.47,2.52,3.47,2.52,-2.51,-2.43,-2.41,0.96,0.96,0.95
240.64,3.42,2.49,3.42,2.49,-2.48,-2.39,-2.40,0.94,0.94,0.93
243.05,3.37,2.46,3.37,2.45,-2.45,-2.34,-2.39,0.92,0.92,0.91
245.48,3.31,2.41,3.31,2.41,-2.41,-2.30,-2.37,0.90,0.90,0.90
247.93,3.26,2.37,3.26,2.37,-2.37,-2.26,-2.36,0.89,0.89,0.90
250.41,3.21,2.32,3.21,2.32,-2.33,-2.22,-2.34,0.89,0.89,0.89
252.92,3.16,2.27,3.16,2.28,-2.28,-2.17,-2.32,0.88,0.88,0.89
255.45,3.11,2.23,3.11,2.23,-2.23,-2.13,-2.30,0.88,0.88,0.88
258.00,3.06,2.19,3.06,2.19,-2.18,-2.09,-2.28,0.87,0.87,0.87
260.58,3.01,2.14,3.01,2.14,-2.13,-2.05,-2.25,0.87,0.87,0.87
263.19,2.95,2.09,2.95,2.09,-2.08,-2.01,-2.23,0.87,0.87,0.86
265.82,2.90,2.04,2.90,2.04,-2.03,-1.97,-2.20,0.87,0.87,0.86
268.48,2.85,1.98,2.85,1.98,-1.98,-1.94,-2.17,0.87,0.87,0.87
271.16,2.80,1.92,2.80,1.92,-1.93,-1.90,-2.14,0.87,0.87,0.87
273.87,2.74,1.87,2.74,1.87,-1.88,-1.86,-2.10,0.87,0.87,0.87
276.61,2.69,1.82,2.69,1.82,-1.83,-1.83,-2.07,0.86,0.86,0.87
279.38,2.64,1.78,2.64,1.78,-1.78,-1.79,-2.03,0.86,0.86,0.86
282.17,2.58,1.74,2.58,1.74,-1.74,-1.76,-2.00,0.84,0.84,0.85
284.99,2.53,1.70,2.53,1.70,-1.70,-1.72,-1.96,0.83,0.83,0.83
287.84,2.48,1.67,2.48,1.67,-1.67,-1.69,-1.92,0.81,0.81,0.81
290.72,2.42,1.63,2.42,1.63,-1.63,-1.66,-1.89,0.79,0.79,0.79
293.63,2.37,1.60,2.37,1.60,-1.60,-1.63,-1.85,0.77,0.77,0.77
296.57,2.32,1.57,2.32,1.57,-1.57,-1.60,-1.81,0.74,0.74,0.75
299.53,2.26,1.54,2.26,1.54,-1.55,-1.57,-1.77,0.72,0.72,0.72
302.53,2.21,1.52,2.21,1.52,-1.52,-1.54,-1.74,0.69,0.69,0.69
305.55,2.16,1.49,2.16,1.49,-1.49,-1.51,-1.70,0.67,0.67,0.66
308.61,2.11,1.47,2.11,1.47,-1.46,-1.48,-1.66,0.65,0.65,0.64
311.69,2.06,1.44,2.06,1.44,-1.43,-1.46,-1.62,0.63,0.63,0.63
314.81,2.02,1.40,2.02,1.40,-1.40,-1.43,-1.59,0.62,0.62,0.62
317.96,1.99,1.37,1.99,1.37,-1.38,-1.40,-1.55,0.62,0.61,0.62
321.14,1.97,1.34,1.97,1.34,-1.35,-1.38,-1.51,0.62,0.62,0.62
324.35,1.95,1.32,1.95,1.32,-1.32,-1.35,-1.48,0.62,0.62,0.63
327.59,1.94,1.30,1.94,1.30,-1.30,-1.33,-1.45,0.63,0.63,0.64
330.87,1.92,1.28,1.92,1.28,-1.28,-1.30,-1.41,0.65,0.64,0.64
334.18,1.91,1.26,1.91,1.26,-1.26,-1.28,-1.38,0.65,0.65,0.65
337.52,1.89,1.24,1.89,1.24,-1.24,-1.26,-1.35,0.65,0.65,0.65
340.90,1.87,1.23,1.87,1.22,-1.22,-1.24,-1.32,0.65,0.65,0.64
344.30,1.84,1.20,1.84,1.20,-1.20,-1.21,-1.29,0.63,0.63,0.63
347.75,1.80,1.19,1.80,1.19,-1.19,-1.19,-1.26,0.61,0.61,0.61
351.23,1.76,1.17,1.76,1.17,-1.17,-1.17,-1.23,0.59,0.59,0.59
354.74,1.72,1.15,1.72,1.15,-1.16,-1.15,-1.20,0.56,0.56,0.56
358.28,1.67,1.14,1.67,1.14,-1.14,-1.13,-1.18,0.53,0.53,0.53
361.87,1.62,1.12,1.62,1.12,-1.13,-1.11,-1.15,0.50,0.50,0.50
365.49,1.58,1.11,1.58,1.11,-1.11,-1.09,-1.13,0.46,0.46,0.46
369.14,1.53,1.10,1.53,1.10,-1.09,-1.08,-1.10,0.43,0.43,0.43
372.83,1.48,1.08,1.48,1.08,-1.08,-1.06,-1.08,0.41,0.41,0.40
376.56,1.44,1.06,1.44,1.06,-1.06,-1.04,-1.06,0.38,0.38,0.37
380.33,1.39,1.04,1.39,1.04,-1.04,-1.02,-1.04,0.35,0.35,0.35
384.13,1.35,1.02,1.35,1.02,-1.02,-1.01,-1.02,0.33,0.33,0.33
387.97,1.30,0.99,1.30,0.99,-1.00,-0.99,-1.00,0.31,0.31,0.31
391.85,1.26,0.97,1.26,0.97,-0.97,-0.98,-0.98,0.28,0.28,0.29
395.77,1.21,0.95,1.21,0.95,-0.95,-0.96,-0.96,0.26,0.26,0.26
399.73,1.17,0.93,1.17,0.93,-0.93,-0.95,-0.94,0.24,0.24,0.24
403.72,1.13,0.92,1.13,0.92,-0.91,-0.94,-0.93,0.21,0.21,0.21
407.76,1.09,0.90,1.08,0.90,-0.90,-0.92,-0.91,0.19,0.19,0.19
411.84,1.04,0.88,1.04,0.88,-0.88,-0.91,-0.90,0.16,0.16,0.16
415.96,1.00,0.86,1.00,0.86,-0.87,-0.90,-0.88,0.13,0.13,0.14
420.12,0.96,0.85,0.96,0.85,-0.85,-0.89,-0.87,0.11,0.11,0.11
424.32,0.92,0.84,0.92,0.84,-0.84,-0.88,-0.85,0.08,0.08,0.08
428.56,0.88,0.83,0.88,0.83,-0.83,-0.87,-0.84,0.05,0.05,0.05
432.85,0.84,0.82,0.84,0.82,-0.82,-0.87,-0.83,0.02,0.02,0.01
437.18,0.80,0.82,0.80,0.82,-0.81,-0.86,-0.82,-0.01,-0.01,-0.02
441.55,0.76,0.81,0.76,0.81,-0.81,-0.85,-0.80,-0.04,-0.04,-0.05
445.96,0.73,0.80,0.73,0.80,-0.81,-0.85,-0.79,-0.08,-0.08,-0.08
450.42,0.69,0.80,0.69,0.80,-0.81,-0.85,-0.78,-0.12,-0.12,-0.11
454.93,0.66,0.81,0.66,0.81,-0.81,-0.84,-0.77,-0.15,-0.15,-0.15
459.48,0.62,0.81,0.62,0.81,-0.81,-0.84,-0.76,-0.20,-0.20,-0.19
464.07,0.58,0.82,0.58,0.82,-0.82,-0.84,-0.75,-0.24,-0.24,-0.24
468.71,0.55,0.83,0.55,0.83,-0.83,-0.84,-0.74,-0.28,-0.28,-0.28
473.40,0.51,0.84,0.51,0.84,-0.84,-0.84,-0.73,-0.33,-0.33,-0.33
478.13,0.48,0.85,0.48,0.85,-0.85,-0.84,-0.72,-0.38,-0.38,-0.37
482.91,0.44,0.86,0.44,0.86,-0.86,-0.84,-0.70,-0.42,-0.42,-0.42
487.74,0.41,0.87,0.41,0.87,-0.87,-0.83,-0.69,-0.46,-0.46,-0.46
492.62,0.38,0.88,0.38,0.88,-0.87,-0.83,-0.68,-0.50,-0.50,-0.50
497.55,0.34,0.88,0.34,0.88,-0.87,-0.83,-0.67,-0.53,-0.53,-0.53
502.52,0.31,0.87,0.31,0.87,-0.87,-0.82,-0.66,-0.56,-0.56,-0.56
507.55,0.28,0.86,0.28,0.86,-0.86,-0.81,-0.65,-0.58,-0.58,-0.58
512.62,0.25,0.85,0.25,0.85,-0.85,-0.80,-0.64,-0.60,-0.60,-0.60
517.75,0.22,0.83,0.22,0.83,-0.83,-0.78,-0.63,-0.61,-0.61,-0.61
522.93,0.19,0.81,0.19,0.81,-0.81,-0.77,-0.62,-0.62,-0.62,-0.62
528.16,0.16,0.79,0.16,0.79,-0.79,-0.75,-0.61,-0.63,-0.63,-0.63
533.44,0.13,0.77,0.13,0.77,-0.77,-0.73,-0.60,-0.64,-0.64,-0.64
538.77,0.10,0.74,0.10,0.74,-0.75,-0.70,-0.58,-0.65,-0.65,-0.64
