frequency,raw,error,smoothed,error_smoothed,equalization,parametric_eq,fixed_band_eq,equalized_raw,equalized_smoothed,target
20.00,12.71,8.28,12.71,8.28,-8.27,-8.94,-3.62,4.44,4.44,4.44
20.20,12.72,8.29,12.72,8.29,-8.29,-8.93,-3.72,4.43,4.43,4.43
20.40,12.73,8.30,12.73,8.30,-8.30,-8.92,-3.82,4.43,4.43,4.43
20.61,12.73,8.31,12.73,8.31,-8.31,-8.83,-3.92,4.42,4.42,4.43
20.81,12.73,8.31,12.73,8.31,-8.32,-8.75,-4.03,4.42,4.42,4.42
21.02,12.74,8.32,12.74,8.32,-8.32,-8.64,-4.14,4.41,4.41,4.41
21.23,12.74,8.33,12.74,8.33,-8.33,-8.53,-4.26,4.41,4.41,4.41
21.44,12.73,8.33,12.73,8.33,-8.33,-8.43,-4.37,4.40,4.40,4.40
21.66,12.73,8.34,12.73,8.34,-8.34,-8.32,-4.49,4.40,4.40,4.40
21.87,12.73,8.34,12.72,8.34,-8.34,-8.24,-4.62,4.39,4.39,4.39
22.09,12.72,8.34,12.72,8.34,-8.34,-8.15,-4.74,4.38,4.38,4.38
22.31,12.71,8.33,12.71,8.33,-8.33,-8.09,-4.88,4.37,4.37,4.37
22.54,12.69,8.33,12.69,8.33,-8.33,-8.02,-5.01,4.36,4.36,4.36
22.76,12.68,8.32,12.68,8.32,-8.32,-7.98,-5.15,4.36,4.36,4.36
22.99,12.66,8.31,12.66,8.31,-8.31,-7.93,-5.29,4.35,4.35,4.35
23.22,12.64,8.30,12.64,8.30,-8.30,-7.90,-5.44,4.34,4.34,4.34
23.45,12.61,8.28,12.61,8.28,-8.28,-7.86,-5.58,4.33,4.33,4.33
23.69,12.59,8.27,12.59,8.27,-8.27,-7.84,-5.73,4.32,4.32,4.32
23.92,12.56,8.25,12.56,8.25,-8.25,-7.82,-5.89,4.31,4.31,4.31
24.16,12.53,8.23,12.53,8.23,-8.23,-7.81,-6.05,4.31,4.31,4.30
24.40,12.50,8.20,12.50,8.20,-8.20,-7.79,-6.21,4.30,4.30,4.30
24.65,12.46,8.18,12.46,8.18,-8.17,-7.79,-6.37,4.29,4.29,4.29
24.89,12.42,8.15,12.42,8.15,-8.15,-7.78,-6.54,4.28,4.28,4.28
25.14,12.39,8.12,12.39,8.12,-8.12,-7.78,-6.71,4.27,4.27,4.27
25.39,12.35,8.09,12.35,8.09,-8.09,-7.77,-6.88,4.26,4.26,4.26
25.65,12.31,8.06,12.31,8.06,-8.06,-7.77,-7.05,4.25,4.25,4.25
25.91,12.27,8.03,12.27,8.03,-8.03,-7.77,-7.22,4.24,4.24,4.24
26.16,12.24,8.00,12.24,8.00,-8.00,-7.77,-7.39,4.23,4.23,4.23
26.43,12.20,7.98,12.20,7.98,-7.98,-7.78,-7.57,4.22,4.22,4.22
26.69,12.16,7.95,12.16,7.95,-7.95,-7.78,-7.74,4.21,4.21,4.21
26.96,12.13,7.92,12.13,7.92,-7.92,-7.78,-7.91,4.21,4.21,4.21
27.23,12.09,7.90,12.09,7.90,-7.90,-7.78,-8.08,4.20,4.20,4.20
27.50,12.06,7.87,12.06,7.87,-7.87,-7.78,-8.25,4.19,4.19,4.19
27.77,12.02,7.84,12.02,7.84,-7.84,-7.78,-8.41,4.18,4.18,4.18
28.05,11.98,7.81,11.98,7.81,-7.81,-7.78,-8.57,4.17,4.17,4.17
28.33,11.94,7.78,11.94,7.78,-7.78,-7.78,-8.71,4.16,4.16,4.16
28.62,11.91,7.76,11.91,7.76,-7.76,-7.78,-8.86,4.15,4.15,4.15
28.90,11.87,7.73,11.87,7.73,-7.73,-7.78,-8.99,4.14,4.14,4.14
29.19,11.84,7.70,11.84,7.70,-7.71,-7.78,-9.12,4.13,4.13,4.13
29.48,11.81,7.68,11.81,7.68,-7.69,-7.77,-9.22,4.12,4.12,4.12
29.78,11.78,7.67,11.78,7.67,-7.67,-7.77,-9.33,4.11,4.11,4.11
30.08,11.76,7.65,11.76,7.65,-7.65,-7.76,-9.41,4.11,4.11,4.11
30.38,11.73,7.64,11.73,7.64,-7.63,-7.76,-9.49,4.10,4.10,4.10
30.68,11.71,7.62,11.70,7.62,-7.61,-7.75,-9.54,4.10,4.10,4.09
30.99,11.67,7.59,11.67,7.59,-7.59,-7.74,-9.59,4.09,4.09,4.08
31.30,11.64,7.57,11.64,7.57,-7.56,-7.73,-9.61,4.07,4.07,4.07
31.61,11.60,7.54,11.60,7.54,-7.54,-7.72,-9.62,4.06,4.06,4.06
31.93,11.56,7.51,11.56,7.51,-7.52,-7.71,-9.61,4.04,4.04,4.05
32.24,11.53,7.49,11.53,7.49,-7.50,-7.70,-9.60,4.03,4.03,4.04
32.57,11.50,7.47,11.51,7.47,-7.48,-7.68,-9.56,4.03,4.03,4.03
32.89,11.48,7.46,11.48,7.46,-7.46,-7.67,-9.51,4.03,4.03,4.02
33.22,11.46,7.44,11.46,7.44,-7.44,-7.65,-9.45,4.02,4.02,4.02
33.55,11.43,7.43,11.43,7.43,-7.42,-7.64,-9.38,4.02,4.02,4.01
33.89,11.40,7.40,11.40,7.40,-7.39,-7.62,-9.29,4.01,4.01,4.00
34.23,11.36,7.38,11.36,7.38,-7.37,-7.60,-9.20,3.99,3.99,3.99
34.57,11.32,7.35,11.32,7.35,-7.35,-7.58,-9.09,3.98,3.98,3.98
34.92,11.29,7.32,11.29,7.32,-7.33,-7.56,-8.99,3.96,3.96,3.97
35.27,11.26,7.30,11.26,7.30,-7.31,-7.54,-8.87,3.95,3.95,3.96
35.62,11.23,7.28,11.24,7.28,-7.29,-7.52,-8.75,3.94,3.94,3.95
35.97,11.22,7.27,11.22,7.27,-7.28,-7.50,-8.63,3.94,3.94,3.94
36.33,11.20,7.27,11.20,7.27,-7.27,-7.47,-8.51,3.94,3.94,3.93
36.70,11.19,7.26,11.19,7.26,-7.26,-7.45,-8.38,3.93,3.93,3.92
37.06,11.17,7.25,11.17,7.25,-7.25,-7.42,-8.26,3.92,3.92,3.92
37.43,11.15,7.24,11.15,7.24,-7.24,-7.40,-8.13,3.91,3.91,3.91
37.81,11.13,7.24,11.13,7.24,-7.24,-7.37,-8.01,3.90,3.90,3.90
38.19,11.11,7.23,11.11,7.23,-7.23,-7.34,-7.88,3.89,3.89,3.89
38.57,11.10,7.22,11.10,7.22,-7.22,-7.32,-7.76,3.88,3.88,3.88
38.95,11.08,7.21,11.08,7.21,-7.21,-7.29,-7.64,3.87,3.87,3.87
39.34,11.06,7.20,11.06,7.20,-7.20,-7.26,-7.53,3.86,3.86,3.86
39.74,11.04,7.19,11.04,7.19,-7.19,-7.23,-7.42,3.85,3.85,3.85
40.14,11.02,7.17,11.02,7.18,-7.18,-7.20,-7.31,3.84,3.84,3.84
40.54,11.00,7.16,11.00,7.17,-7.17,-7.17,-7.20,3.83,3.83,3.83
40.94,10.98,7.16,10.98,7.16,-7.16,-7.14,-7.10,3.82,3.82,3.83
41.35,10.96,7.15,10.96,7.15,-7.15,-7.11,-7.01,3.82,3.82,3.82
41.76,10.95,7.14,10.94,7.14,-7.13,-7.08,-6.92,3.81,3.81,3.81
42.18,10.92,7.12,10.92,7.12,-7.12,-7.05,-6.83,3.80,3.80,3.80
42.60,10.89,7.10,10.89,7.10,-7.10,-7.02,-6.75,3.80,3.79,3.79
43.03,10.86,7.08,10.86,7.08,-7.07,-6.98,-6.67,3.78,3.78,3.78
43.46,10.82,7.05,10.82,7.05,-7.05,-6.95,-6.60,3.77,3.77,3.77
43.90,10.78,7.02,10.78,7.02,-7.02,-6.92,-6.53,3.76,3.76,3.76
44.33,10.74,6.99,10.74,6.99,-7.00,-6.89,-6.47,3.75,3.75,3.75
44.78,10.71,6.96,10.71,6.96,-6.97,-6.85,-6.41,3.74,3.74,3.74
45.23,10.67,6.94,10.67,6.94,-6.93,-6.82,-6.36,3.74,3.74,3.73
45.68,10.63,6.91,10.63,6.91,-6.90,-6.79,-6.31,3.73,3.73,3.73
46.13,10.59,6.87,10.59,6.87,-6.87,-6.76,-6.27,3.72,3.72,3.72
46.60,10.54,6.84,10.54,6.84,-6.83,-6.72,-6.23,3.71,3.71,3.71
47.06,10.50,6.80,10.50,6.80,-6.80,-6.69,-6.19,3.70,3.70,3.70
47.53,10.45,6.76,10.45,6.76,-6.76,-6.66,-6.16,3.68,3.69,3.69
48.01,10.41,6.73,10.41,6.73,-6.73,-6.62,-6.14,3.68,3.68,3.68
48.49,10.36,6.69,10.36,6.69,-6.69,-6.59,-6.11,3.67,3.67,3.67
48.97,10.32,6.66,10.32,6.66,-6.66,-6.55,-6.09,3.66,3.66,3.66
49.46,10.27,6.62,10.27,6.62,-6.62,-6.52,-6.08,3.65,3.65,3.65
49.96,10.23,6.59,10.23,6.59,-6.59,-6.48,-6.07,3.64,3.64,3.64
50.46,10.18,6.55,10.18,6.55,-6.55,-6.45,-6.06,3.63,3.63,3.63
50.96,10.14,6.51,10.14,6.51,-6.51,-6.41,-6.05,3.63,3.63,3.63
51.47,10.09,6.47,10.09,6.47,-6.47,-6.38,-6.05,3.62,3.62,3.62
51.99,10.03,6.43,10.03,6.43,-6.42,-6.34,-6.05,3.61,3.61,3.61
52.51,9.98,6.38,9.98,6.38,-6.38,-6.30,-6.05,3.60,3.60,3.60
53.03,9.92,6.33,9.92,6.33,-6.33,-6.27,-6.05,3.59,3.59,3.59
53.56,9.85,6.28,9.85,6.28,-6.27,-6.23,-6.06,3.58,3.58,3.58
54.10,9.79,6.22,9.79,6.22,-6.22,-6.19,-6.06,3.57,3.57,3.57
54.64,9.73,6.17,9.73,6.17,-6.17,-6.15,-6.07,3.56,3.56,3.56
55.18,9.66,6.12,9.67,6.12,-6.12,-6.11,-6.07,3.54,3.54,3.55
55.74,9.61,6.07,9.61,6.07,-6.07,-6.07,-6.08,3.53,3.53,3.54
56.29,9.55,6.02,9.55,6.02,-6.03,-6.03,-6.08,3.52,3.52,3.53
56.86,9.50,5.98,9.50,5.98,-5.98,-5.99,-6.08,3.52,3.52,3.52
57.42,9.45,5.94,9.45,5.94,-5.94,-5.95,-6.08,3.51,3.51,3.51
58.00,9.40,5.90,9.40,5.90,-5.90,-5.90,-6.08,3.50,3.50,3.50
58.58,9.35,5.86,9.35,5.86,-5.86,-5.86,-6.07,3.49,3.49,3.49
59.16,9.29,5.82,9.29,5.82,-5.82,-5.82,-6.06,3.48,3.48,3.48
59.76,9.24,5.77,9.24,5.77,-5.77,-5.77,-6.05,3.46,3.46,3.47
60.35,9.18,5.73,9.18,5.73,-5.73,-5.73,-6.04,3.46,3.46,3.45
60.96,9.13,5.69,9.13,5.69,-5.68,-5.68,-6.02,3.45,3.45,3.44
61.57,9.07,5.64,9.07,5.64,-5.63,-5.64,-5.99,3.44,3.44,3.43
62.18,9.00,5.59,9.00,5.58,-5.58,-5.59,-5.96,3.42,3.42,3.42
62.80,8.93,5.53,8.93,5.53,-5.53,-5.54,-5.93,3.41,3.41,3.40
63.43,8.87,5.47,8.87,5.47,-5.48,-5.50,-5.89,3.39,3.39,3.39
64.07,8.80,5.42,8.80,5.42,-5.43,-5.45,-5.85,3.37,3.37,3.38
64.71,8.74,5.37,8.74,5.37,-5.37,-5.40,-5.80,3.36,3.36,3.37
65.35,8.68,5.32,8.68,5.32,-5.33,-5.36,-5.75,3.35,3.35,3.35
66.01,8.62,5.28,8.62,5.28,-5.28,-5.31,-5.69,3.34,3.34,3.34
66.67,8.56,5.24,8.56,5.24,-5.24,-5.26,-5.64,3.33,3.32,3.33
67.33,8.51,5.20,8.51,5.19,-5.20,-5.22,-5.57,3.31,3.31,3.31
68.01,8.45,5.15,8.45,5.15,-5.16,-5.17,-5.51,3.30,3.30,3.30
68.69,8.40,5.12,8.40,5.12,-5.12,-5.12,-5.44,3.28,3.28,3.28
69.37,8.35,5.08,8.35,5.08,-5.08,-5.08,-5.37,3.27,3.27,3.27
70.07,8.30,5.04,8.30,5.04,-5.04,-5.03,-5.29,3.26,3.26,3.26
70.77,8.24,5.00,8.24,5.00,-5.00,-4.99,-5.22,3.25,3.25,3.24
71.48,8.19,4.96,8.19,4.96,-4.95,-4.94,-5.14,3.23,3.23,3.23
72.19,8.13,4.91,8.13,4.91,-4.91,-4.90,-5.06,3.22,3.22,3.21
72.91,8.07,4.87,8.07,4.87,-4.87,-4.85,-4.98,3.20,3.20,3.20
73.64,8.01,4.82,8.01,4.82,-4.82,-4.81,-4.91,3.18,3.18,3.19
74.38,7.95,4.78,7.95,4.78,-4.78,-4.76,-4.83,3.17,3.17,3.17
75.12,7.90,4.74,7.90,4.74,-4.74,-4.72,-4.75,3.16,3.16,3.16
75.87,7.84,4.70,7.84,4.70,-4.70,-4.68,-4.67,3.14,3.14,3.14
76.63,7.79,4.66,7.79,4.66,-4.66,-4.64,-4.60,3.13,3.13,3.13
77.40,7.74,4.62,7.74,4.62,-4.62,-4.59,-4.52,3.12,3.12,3.12
78.17,7.69,4.59,7.69,4.59,-4.59,-4.55,-4.45,3.10,3.10,3.10
78.95,7.64,4.55,7.64,4.55,-4.55,-4.51,-4.38,3.09,3.09,3.09
79.74,7.59,4.51,7.59,4.51,-4.51,-4.47,-4.31,3.07,3.07,3.07
80.54,7.54,4.48,7.54,4.48,-4.48,-4.43,-4.24,3.06,3.06,3.06
81.35,7.49,4.44,7.49,4.44,-4.44,-4.39,-4.18,3.05,3.05,3.05
82.16,7.44,4.41,7.44,4.41,-4.41,-4.35,-4.11,3.03,3.03,3.03
82.98,7.39,4.37,7.39,4.37,-4.37,-4.31,-4.05,3.02,3.02,3.02
83.81,7.34,4.33,7.34,4.33,-4.33,-4.28,-4.00,3.00,3.00,3.00
84.65,7.28,4.29,7.28,4.29,-4.29,-4.24,-3.94,2.99,2.99,2.99
85.50,7.23,4.25,7.23,4.25,-4.25,-4.20,-3.89,2.98,2.98,2.97
86.35,7.17,4.21,7.17,4.21,-4.21,-4.16,-3.84,2.96,2.96,2.96
87.22,7.12,4.17,7.12,4.17,-4.17,-4.13,-3.79,2.95,2.95,2.95
88.09,7.06,4.13,7.06,4.13,-4.13,-4.09,-3.75,2.93,2.93,2.93
88.97,7.01,4.09,7.01,4.09,-4.09,-4.05,-3.71,2.91,2.91,2.92
89.86,6.95,4.05,6.95,4.05,-4.05,-4.02,-3.67,2.90,2.90,2.90
90.76,6.90,4.01,6.90,4.01,-4.01,-3.98,-3.63,2.89,2.89,2.89
91.66,6.85,3.98,6.85,3.98,-3.98,-3.95,-3.60,2.88,2.88,2.88
92.58,6.80,3.94,6.80,3.94,-3.94,-3.92,-3.57,2.86,2.86,2.86
93.51,6.75,3.90,6.75,3.90,-3.90,-3.88,-3.54,2.85,2.85,2.85
94.44,6.69,3.86,6.69,3.86,-3.85,-3.85,-3.52,2.84,2.84,2.83
95.39,6.63,3.81,6.63,3.81,-3.81,-3.81,-3.49,2.83,2.83,2.82
96.34,6.57,3.77,6.57,3.76,-3.76,-3.78,-3.47,2.81,2.81,2.80
97.30,6.50,3.71,6.50,3.71,-3.71,-3.75,-3.45,2.79,2.79,2.79
98.28,6.44,3.66,6.44,3.66,-3.66,-3.72,-3.44,2.77,2.77,2.78
99.26,6.37,3.61,6.37,3.61,-3.62,-3.69,-3.42,2.75,2.75,2.76
100.25,6.32,3.57,6.32,3.57,-3.58,-3.65,-3.41,2.74,2.74,2.75
101.25,6.27,3.53,6.27,3.53,-3.54,-3.62,-3.40,2.72,2.73,2.73
102.27,6.22,3.50,6.22,3.50,-3.51,-3.59,-3.39,2.72,2.72,2.72
103.29,6.19,3.48,6.19,3.48,-3.48,-3.56,-3.38,2.71,2.71,2.71
104.32,6.15,3.46,6.15,3.46,-3.45,-3.53,-3.38,2.69,2.69,2.69
105.37,6.11,3.43,6.11,3.43,-3.43,-3.50,-3.37,2.68,2.68,2.68
106.42,6.07,3.41,6.07,3.41,-3.40,-3.47,-3.37,2.67,2.67,2.66
107.48,6.03,3.38,6.03,3.38,-3.38,-3.44,-3.37,2.65,2.65,2.65
108.56,5.99,3.35,5.99,3.35,-3.35,-3.41,-3.36,2.64,2.64,2.64
109.64,5.94,3.32,5.94,3.32,-3.32,-3.38,-3.36,2.62,2.62,2.62
110.74,5.89,3.29,5.89,3.28,-3.28,-3.36,-3.36,2.61,2.61,2.61
111.85,5.84,3.25,5.84,3.25,-3.24,-3.33,-3.35,2.60,2.60,2.59
112.97,5.79,3.21,5.79,3.21,-3.20,-3.30,-3.35,2.58,2.58,2.58
114.10,5.73,3.17,5.73,3.17,-3.16,-3.27,-3.35,2.57,2.57,2.56
115.24,5.67,3.12,5.67,3.12,-3.12,-3.24,-3.34,2.55,2.55,2.55
116.39,5.61,3.08,5.61,3.08,-3.08,-3.22,-3.34,2.54,2.54,2.54
117.55,5.56,3.04,5.56,3.04,-3.04,-3.19,-3.33,2.51,2.52,2.52
118.73,5.52,3.01,5.51,3.01,-3.02,-3.16,-3.32,2.50,2.50,2.51
119.92,5.48,2.99,5.48,2.98,-3.00,-3.14,-3.31,2.48,2.48,2.49
121.12,5.45,2.97,5.45,2.97,-2.99,-3.11,-3.30,2.46,2.47,2.48
122.33,5.44,2.97,5.44,2.98,-2.99,-3.08,-3.28,2.45,2.45,2.47
123.55,5.44,2.99,5.44,2.99,-2.99,-3.06,-3.27,2.45,2.44,2.45
124.79,5.44,3.00,5.44,3.00,-3.00,-3.03,-3.25,2.44,2.44,2.44
126.03,5.45,3.02,5.45,3.02,-3.02,-3.00,-3.23,2.43,2.43,2.42
127.29,5.45,3.04,5.45,3.04,-3.03,-2.98,-3.20,2.42,2.42,2.41
128.57,5.44,3.04,5.44,3.04,-3.03,-2.95,-3.18,2.41,2.40,2.39
129.85,5.42,3.04,5.42,3.04,-3.03,-2.93,-3.15,2.39,2.39,2.38
131.15,5.40,3.03,5.40,3.03,-3.02,-2.90,-3.12,2.37,2.37,2.37
132.46,5.37,3.01,5.36,3.01,-3.01,-2.88,-3.09,2.36,2.36,2.35
133.79,5.32,2.99,5.32,2.99,-2.98,-2.85,-3.06,2.34,2.34,2.34
135.12,5.28,2.95,5.28,2.95,-2.95,-2.83,-3.02,2.33,2.33,2.32
136.48,5.23,2.92,5.23,2.92,-2.92,-2.81,-2.99,2.31,2.31,2.31
137.84,5.17,2.88,5.17,2.88,-2.88,-2.78,-2.95,2.29,2.29,2.30
139.22,5.12,2.84,5.12,2.84,-2.85,-2.76,-2.91,2.27,2.27,2.28
140.61,5.07,2.80,5.07,2.81,-2.81,-2.73,-2.87,2.26,2.26,2.27
142.02,5.03,2.78,5.03,2.78,-2.78,-2.71,-2.83,2.25,2.25,2.25
143.44,4.99,2.75,4.99,2.75,-2.75,-2.69,-2.79,2.24,2.24,2.24
144.87,4.95,2.72,4.95,2.72,-2.72,-2.66,-2.75,2.23,2.23,2.22
146.32,4.90,2.69,4.90,2.69,-2.69,-2.64,-2.71,2.22,2.22,2.21
147.78,4.86,2.66,4.86,2.66,-2.66,-2.62,-2.67,2.20,2.20,2.20
149.26,4.82,2.64,4.82,2.64,-2.64,-2.59,-2.63,2.18,2.18,2.18
150.75,4.78,2.61,4.78,2.61,-2.61,-2.57,-2.59,2.16,2.16,2.17
152.26,4.74,2.59,4.74,2.59,-2.59,-2.55,-2.55,2.15,2.15,2.15
153.78,4.71,2.57,4.71,2.57,-2.58,-2.52,-2.51,2.14,2.13,2.14
155.32,4.68,2.56,4.68,2.56,-2.56,-2.50,-2.47,2.12,2.12,2.13
156.88,4.66,2.55,4.66,2.55,-2.55,-2.48,-2.43,2.11,2.11,2.11
158.44,4.63,2.53,4.63,2.53,-2.53,-2.46,-2.39,2.10,2.10,2.10
160.03,4.61,2.52,4.61,2.52,-2.52,-2.43,-2.36,2.09,2.09,2.08
161.63,4.58,2.51,4.58,2.51,-2.50,-2.41,-2.32,2.07,2.07,2.07
163.24,4.55,2.49,4.55,2.49,-2.49,-2.39,-2.29,2.06,2.06,2.06
164.88,4.51,2.47,4.51,2.47,-2.46,-2.37,-2.26,2.05,2.05,2.04
166.53,4.47,2.44,4.47,2.44,-2.44,-2.35,-2.23,2.03,2.03,2.03
168.19,4.42,2.41,4.42,2.41,-2.41,-2.32,-2.20,2.01,2.01,2.01
169.87,4.37,2.37,4.37,2.38,-2.38,-2.30,-2.17,2.00,2.00,2.00
171.57,4.32,2.34,4.32,2.34,-2.34,-2.28,-2.15,1.98,1.98,1.98
173.29,4.28,2.31,4.28,2.31,-2.31,-2.26,-2.12,1.97,1.97,1.97
175.02,4.23,2.27,4.23,2.27,-2.27,-2.24,-2.10,1.95,1.95,1.96
176.77,4.18,2.24,4.18,2.24,-2.24,-2.22,-2.08,1.94,1.94,1.94
178.54,4.14,2.21,4.14,2.21,-2.21,-2.20,-2.06,1.93,1.93,1.93
180.32,4.09,2.18,4.09,2.18,-2.18,-2.17,-2.04,1.91,1.91,1.91
182.13,4.05,2.15,4.05,2.15,-2.15,-2.15,-2.02,1.90,1.90,1.90
183.95,4.00,2.12,4.00,2.12,-2.12,-2.13,-2.01,1.88,1.88,1.89
185.79,3.96,2.09,3.96,2.09,-2.09,-2.11,-1.99,1.87,1.87,1.87
187.65,3.92,2.06,3.92,2.06,-2.06,-2.09,-1.98,1.85,1.85,1.86
189.52,3.88,2.04,3.88,2.04,-2.04,-2.07,-1.97,1.84,1.84,1.84
191.42,3.84,2.02,3.84,2.02,-2.02,-2.05,-1.96,1.83,1.83,1.83
193.33,3.81,1.99,3.81,1.99,-2.00,-2.03,-1.95,1.81,1.81,1.81
195.27,3.78,1.97,3.78,1.98,-1.97,-2.01,-1.94,1.80,1.80,1.80
197.22,3.74,1.96,3.74,1.95,-1.95,-1.99,-1.94,1.79,1.79,1.79
199.19,3.70,1.93,3.70,1.93,-1.93,-1.97,-1.93,1.78,1.78,1.77
201.18,3.66,1.91,3.66,1.91,-1.90,-1.95,-1.93,1.76,1.76,1.76
203.19,3.62,1.88,3.62,1.88,-1.88,-1.93,-1.93,1.75,1.75,1.74
205.23,3.58,1.85,3.58,1.85,-1.85,-1.91,-1.92,1.73,1.73,1.73
207.28,3.53,1.82,3.53,1.82,-1.82,-1.88,-1.92,1.71,1.71,1.72
209.35,3.49,1.78,3.49,1.78,-1.79,-1.86,-1.92,1.70,1.70,1.70
211.44,3.44,1.75,3.44,1.75,-1.75,-1.84,-1.92,1.69,1.69,1.69
213.56,3.40,1.72,3.40,1.72,-1.72,-1.82,-1.92,1.67,1.67,1.67
215.69,3.35,1.69,3.35,1.69,-1.69,-1.80,-1.92,1.66,1.66,1.66
217.85,3.31,1.66,3.31,1.66,-1.66,-1.78,-1.92,1.64,1.64,1.64
220.03,3.26,1.63,3.26,1.63,-1.63,-1.76,-1.92,1.63,1.63,1.63
222.23,3.22,1.60,3.22,1.60,-1.60,-1.74,-1.92,1.62,1.62,1.62
224.45,3.18,1.57,3.18,1.57,-1.57,-1.72,-1.92,1.61,1.60,1.60
226.70,3.13,1.54,3.13,1.54,-1.54,-1.70,-1.91,1.59,1.59,1.59
228.96,3.08,1.51,3.08,1.51,-1.50,-1.68,-1.91,1.58,1.58,1.57
231.25,3.03,1.47,3.03,1.47,-1.47,-1.67,-1.91,1.56,1.56,1.56
233.57,2.98,1.44,2.98,1.44,-1.43,-1.65,-1.90,1.55,1.55,1.55
235.90,2.93,1.40,2.93,1.40,-1.40,-1.63,-1.90,1.53,1.53,1.53
238.26,2.88,1.37,2.88,1.37,-1.36,-1.61,-1.89,1.52,1.52,1.52
240.64,2.84,1.33,2.84,1.33,-1.33,-1.59,-1.88,1.50,1.50,1.50
243.05,2.80,1.31,2.80,1.31,-1.31,-1.57,-1.87,1.49,1.49,1.49
245.48,2.77,1.29,2.76,1.29,-1.30,-1.55,-1.86,1.47,1.47,1.48
247.93,2.74,1.28,2.74,1.28,-1.29,-1.53,-1.85,1.45,1.45,1.46
250.41,2.73,1.28,2.73,1.28,-1.30,-1.51,-1.83,1.43,1.43,1.45
252.92,2.73,1.30,2.73,1.30,-1.31,-1.49,-1.82,1.42,1.42,1.43
255.45,2.74,1.32,2.74,1.33,-1.33,-1.47,-1.80,1.41,1.41,1.42
258.00,2.76,1.36,2.76,1.36,-1.36,-1.45,-1.78,1.41,1.41,1.40
260.58,2.78,1.39,2.78,1.39,-1.38,-1.43,-1.76,1.40,1.40,1.39
263.19,2.79,1.42,2.79,1.42,-1.40,-1.41,-1.73,1.39,1.39,1.38
265.82,2.79,1.43,2.79,1.43,-1.42,-1.39,-1.71,1.38,1.38,1.36
268.48,2.79,1.44,2.78,1.44,-1.43,-1.38,-1.68,1.36,1.36,1.35
271.16,2.76,1.43,2.76,1.43,-1.43,-1.36,-1.65,1.34,1.34,1.33
273.87,2.74,1.42,2.74,1.42,-1.42,-1.34,-1.63,1.32,1.32,1.32
276.61,2.70,1.40,2.70,1.40,-1.40,-1.32,-1.60,1.30,1.30,1.31
279.38,2.67,1.38,2.67,1.38,-1.38,-1.30,-1.56,1.29,1.29,1.29
282.17,2.63,1.35,2.63,1.35,-1.36,-1.28,-1.53,1.27,1.27,1.28
284.99,2.59,1.33,2.59,1.33,-1.33,-1.26,-1.50,1.26,1.26,1.26
287.84,2.55,1.30,2.55,1.30,-1.30,-1.24,-1.47,1.25,1.25,1.25
290.72,2.51,1.28,2.51,1.28,-1.28,-1.23,-1.43,1.23,1.23,1.23
293.63,2.47,1.25,2.47,1.25,-1.25,-1.21,-1.40,1.22,1.22,1.22
296.57,2.43,1.22,2.43,1.22,-1.22,-1.19,-1.36,1.21,1.21,1.21
299.53,2.39,1.20,2.39,1.20,-1.20,-1.17,-1.33,1.19,1.19,1.19
302.53,2.35,1.17,2.35,1.17,-1.17,-1.15,-1.30,1.18,1.18,1.18
305.55,2.31,1.15,2.31,1.15,-1.15,-1.13,-1.26,1.16,1.16,1.16
308.61,2.27,1.12,2.27,1.12,-1.12,-1.12,-1.23,1.15,1.15,1.15
311.69,2.24,1.10,2.24,1.10,-1.10,-1.10,-1.19,1.14,1.14,1.14
314.81,2.20,1.08,2.20,1.08,-1.08,-1.08,-1.16,1.12,1.12,1.12
317.96,2.16,1.06,2.16,1.06,-1.06,-1.06,-1.12,1.11,1.11,1.11
321.14,2.13,1.03,2.13,1.03,-1.04,-1.04,-1.09,1.09,1.09,1.09
324.35,2.09,1.01,2.09,1.01,-1.01,-1.02,-1.06,1.08,1.08,1.08
327.59,2.06,0.99,2.06,0.99,-0.99,-1.01,-1.02,1.07,1.07,1.06
330.87,2.02,0.97,2.02,0.97,-0.97,-0.99,-0.99,1.05,1.05,1.05
334.18,1.99,0.95,1.99,0.95,-0.95,-0.97,-0.96,1.04,1.04,1.04
337.52,1.95,0.93,1.95,0.93,-0.93,-0.95,-0.93,1.02,1.02,1.02
340.90,1.92,0.91,1.92,0.91,-0.91,-0.93,-0.90,1.01,1.01,1.01
344.30,1.89,0.89,1.89,0.89,-0.89,-0.92,-0.87,0.99,0.99,0.99
347.75,1.85,0.87,1.85,0.87,-0.87,-0.90,-0.84,0.98,0.98,0.98
351.23,1.82,0.85,1.82,0.85,-0.85,-0.88,-0.81,0.97,0.97,0.97
354.74,1.79,0.83,1.79,0.83,-0.84,-0.86,-0.78,0.95,0.95,0.95
358.28,1.75,0.82,1.75,0.82,-0.82,-0.84,-0.75,0.94,0.94,0.94
361.87,1.72,0.80,1.72,0.80,-0.80,-0.83,-0.73,0.92,0.92,0.92
365.49,1.69,0.78,1.69,0.78,-0.78,-0.81,-0.70,0.91,0.91,0.91
369.14,1.66,0.76,1.66,0.76,-0.76,-0.79,-0.67,0.90,0.90,0.90
372.83,1.63,0.75,1.63,0.75,-0.74,-0.77,-0.65,0.88,0.88,0.88
376.56,1.59,0.73,1.59,0.73,-0.73,-0.76,-0.62,0.87,0.87,0.87
380.33,1.56,0.71,1.56,0.71,-0.71,-0.74,-0.60,0.85,0.85,0.85
384.13,1.53,0.69,1.53,0.69,-0.69,-0.72,-0.58,0.84,0.84,0.84
387.97,1.50,0.68,1.50,0.68,-0.68,-0.70,-0.55,0.82,0.82,0.82
391.85,1.47,0.66,1.47,0.66,-0.66,-0.68,-0.53,0.81,0.81,0.81
395.77,1.44,0.64,1.44,0.64,-0.64,-0.67,-0.51,0.80,0.80,0.80
399.73,1.41,0.63,1.41,0.63,-0.63,-0.65,-0.49,0.78,0.78,0.78
403.72,1.38,0.61,1.38,0.61,-0.61,-0.63,-0.46,0.77,0.77,0.77
407.76,1.35,0.59,1.35,0.59,-0.59,-0.61,-0.44,0.75,0.75,0.75
411.84,1.32,0.58,1.32,0.58,-0.58,-0.60,-0.42,0.74,0.74,0.74
415.96,1.29,0.56,1.29,0.56,-0.56,-0.58,-0.40,0.73,0.73,0.73
420.12,1.25,0.54,1.25,0.54,-0.54,-0.56,-0.38,0.71,0.71,0.71
424.32,1.22,0.53,1.22,0.53,-0.53,-0.54,-0.37,0.70,0.70,0.70
428.56,1.19,0.51,1.19,0.51,-0.51,-0.53,-0.35,0.68,0.68,0.68
432.85,1.16,0.49,1.16,0.49,-0.49,-0.51,-0.33,0.67,0.67,0.67
437.18,1.13,0.48,1.13,0.48,-0.48,-0.49,-0.31,0.65,0.66,0.65
441.55,1.10,0.46,1.10,0.46,-0.46,-0.47,-0.30,0.64,0.64,0.64
445.96,1.07,0.45,1.07,0.45,-0.45,-0.46,-0.28,0.63,0.63,0.63
450.42,1.04,0.43,1.04,0.43,-0.43,-0.44,-0.26,0.61,0.61,0.61
454.93,1.01,0.41,1.01,0.41,-0.41,-0.42,-0.25,0.60,0.60,0.60
459.48,0.98,0.40,0.98,0.40,-0.40,-0.40,-0.24,0.58,0.58,0.58
464.07,0.95,0.38,0.95,0.38,-0.38,-0.39,-0.22,0.57,0.57,0.57
468.71,0.92,0.37,0.92,0.37,-0.37,-0.37,-0.21,0.56,0.56,0.56
473.40,0.89,0.35,0.89,0.35,-0.35,-0.35,-0.20,0.54,0.54,0.54
478.13,0.86,0.34,0.86,0.34,-0.34,-0.33,-0.18,0.53,0.53,0.53
482.91,0.83,0.32,0.83,0.32,-0.32,-0.32,-0.17,0.51,0.51,0.51
487.74,0.80,0.31,0.80,0.31,-0.31,-0.30,-0.16,0.50,0.50,0.50
492.62,0.77,0.29,0.77,0.29,-0.29,-0.28,-0.15,0.48,0.48,0.48
497.55,0.75,0.27,0.75,0.27,-0.27,-0.26,-0.14,0.47,0.47,0.47
502.52,0.72,0.26,0.72,0.26,-0.26,-0.25,-0.13,0.46,0.46,0.46
507.55,0.69,0.24,0.69,0.24,-0.24,-0.23,-0.12,0.44,0.44,0.44
512.62,0.66,0.23,0.66,0.23,-0.23,-0.21,-0.12,0.43,0.43,0.43
517.75,0.63,0.21,0.63,0.21,-0.21,-0.20,-0.11,0.41,0.41,0.41
522.93,0.60,0.20,0.60,0.20,-0.20,-0.18,-0.10,0.40,0.40,0.40
528.16,0.57,0.18,0.57,0.18,-0.18,-0.17,-0.10,0.39,0.39,0.39
