frequency,raw,error,smoothed,error_smoothed,equalization,parametric_eq,fixed_band_eq,equalized_raw,equalized_smoothed,target
20.00,7.06,-2.60,7.06,-2.60,2.60,0.00,0.72,9.65,9.65,9.65
20.20,7.09,-2.57,7.09,-2.57,2.57,0.00,0.74,9.65,9.65,9.65
20.40,7.12,-2.54,7.12,-2.54,2.54,0.00,0.76,9.65,9.65,9.65
20.61,7.15,-2.51,7.15,-2.51,2.50,0.00,0.78,9.65,9.65,9.65
20.81,7.18,-2.48,7.18,-2.47,2.47,0.00,0.81,9.65,9.65,9.65
21.02,7.21,-2.44,7.21,-2.44,2.44,0.00,0.83,9.65,9.65,9.65
21.23,7.24,-2.41,7.24,-2.41,2.41,0.00,0.86,9.65,9.65,9.65
21.44,7.27,-2.39,7.27,-2.38,2.38,0.00,0.88,9.65,9.65,9.65
21.66,7.29,-2.36,7.29,-2.36,2.36,0.00,0.91,9.65,9.65,9.65
21.87,7.32,-2.33,7.32,-2.33,2.33,0.00,0.94,9.65,9.65,9.65
22.09,7.35,-2.30,7.35,-2.30,2.30,0.00,0.97,9.64,9.64,9.64
22.31,7.37,-2.27,7.37,-2.27,2.27,0.00,0.99,9.64,9.64,9.64
22.54,7.40,-2.24,7.40,-2.24,2.24,0.00,1.02,9.64,9.64,9.64
22.76,7.42,-2.21,7.42,-2.21,2.22,0.00,1.06,9.64,9.64,9.63
22.99,7.44,-2.19,7.44,-2.19,2.19,0.00,1.09,9.63,9.63,9.63
23.22,7.47,-2.16,7.47,-2.16,2.16,0.00,1.12,9.63,9.63,9.63
23.45,7.49,-2.14,7.49,-2.14,2.14,0.00,1.15,9.63,9.63,9.63
23.69,7.51,-2.12,7.51,-2.12,2.11,0.00,1.18,9.63,9.63,9.63
23.92,7.54,-2.09,7.54,-2.09,2.09,0.00,1.22,9.63,9.63,9.63
24.16,7.56,-2.07,7.56,-2.07,2.07,0.00,1.25,9.62,9.62,9.62
24.40,7.58,-2.04,7.58,-2.04,2.04,0.00,1.29,9.62,9.62,9.62
24.65,7.60,-2.02,7.60,-2.02,2.02,0.00,1.32,9.62,9.62,9.62
24.89,7.62,-1.99,7.62,-1.99,1.99,0.00,1.36,9.61,9.61,9.61
25.14,7.64,-1.97,7.64,-1.97,1.97,0.00,1.39,9.61,9.61,9.61
25.39,7.66,-1.94,7.66,-1.94,1.94,0.00,1.43,9.60,9.60,9.60
25.65,7.68,-1.92,7.68,-1.92,1.92,0.00,1.47,9.60,9.60,9.60
25.91,7.70,-1.89,7.70,-1.89,1.89,0.00,1.50,9.59,9.59,9.59
26.16,7.72,-1.87,7.72,-1.87,1.87,0.00,1.54,9.59,9.59,9.59
26.43,7.74,-1.84,7.74,-1.84,1.84,0.00,1.57,9.58,9.58,9.58
26.69,7.76,-1.82,7.76,-1.82,1.82,0.00,1.61,9.58,9.58,9.58
26.96,7.78,-1.79,7.78,-1.79,1.79,0.00,1.64,9.57,9.57,9.58
27.23,7.80,-1.77,7.80,-1.77,1.77,0.00,1.67,9.57,9.57,9.57
27.50,7.82,-1.74,7.82,-1.74,1.74,0.00,1.71,9.56,9.56,9.56
27.77,7.84,-1.72,7.84,-1.72,1.72,0.00,1.73,9.56,9.56,9.55
28.05,7.85,-1.69,7.85,-1.69,1.70,0.00,1.76,9.55,9.55,9.55
28.33,7.87,-1.67,7.87,-1.67,1.67,0.00,1.79,9.54,9.54,9.54
28.62,7.89,-1.65,7.89,-1.65,1.65,0.00,1.82,9.54,9.54,9.54
28.90,7.90,-1.63,7.90,-1.63,1.63,0.00,1.84,9.53,9.53,9.53
29.19,7.92,-1.61,7.92,-1.61,1.60,0.00,1.86,9.52,9.52,9.53
29.48,7.94,-1.58,7.94,-1.58,1.58,0.00,1.88,9.52,9.52,9.52
29.78,7.95,-1.56,7.95,-1.56,1.56,0.00,1.90,9.51,9.51,9.51
30.08,7.96,-1.54,7.96,-1.54,1.54,0.00,1.91,9.51,9.51,9.51
30.38,7.98,-1.52,7.98,-1.52,1.52,0.00,1.92,9.50,9.50,9.50
30.68,7.98,-1.51,7.99,-1.51,1.51,0.00,1.93,9.49,9.49,9.49
30.99,7.99,-1.49,7.99,-1.49,1.49,0.00,1.93,9.48,9.48,9.48
31.30,8.00,-1.47,8.00,-1.47,1.47,0.00,1.93,9.48,9.48,9.48
31.61,8.01,-1.46,8.01,-1.46,1.46,0.00,1.93,9.47,9.47,9.47
31.93,8.02,-1.44,8.02,-1.44,1.44,0.00,1.92,9.46,9.46,9.46
32.24,8.02,-1.43,8.02,-1.43,1.43,0.00,1.92,9.45,9.45,9.45
32.57,8.03,-1.41,8.03,-1.41,1.41,0.00,1.91,9.44,9.44,9.44
32.89,8.04,-1.39,8.04,-1.39,1.39,0.00,1.89,9.43,9.43,9.43
33.22,8.05,-1.37,8.05,-1.37,1.37,0.00,1.88,9.43,9.43,9.43
33.55,8.06,-1.36,8.06,-1.36,1.36,0.00,1.86,9.42,9.42,9.42
33.89,8.07,-1.34,8.07,-1.34,1.34,0.00,1.84,9.41,9.41,9.41
34.23,8.08,-1.32,8.08,-1.32,1.32,0.00,1.81,9.40,9.40,9.40
34.57,8.08,-1.31,8.08,-1.31,1.31,0.00,1.79,9.39,9.39,9.39
34.92,8.09,-1.29,8.09,-1.29,1.29,0.00,1.76,9.38,9.38,9.38
35.27,8.09,-1.28,8.09,-1.28,1.27,0.00,1.73,9.37,9.37,9.37
35.62,8.10,-1.26,8.10,-1.26,1.26,0.00,1.70,9.36,9.36,9.36
35.97,8.11,-1.24,8.11,-1.24,1.24,0.00,1.67,9.35,9.35,9.35
36.33,8.12,-1.22,8.12,-1.22,1.22,0.00,1.64,9.34,9.34,9.34
36.70,8.13,-1.20,8.13,-1.20,1.20,0.00,1.61,9.33,9.33,9.33
37.06,8.13,-1.18,8.13,-1.18,1.18,0.00,1.57,9.32,9.32,9.32
37.43,8.14,-1.16,8.14,-1.16,1.16,0.00,1.54,9.31,9.31,9.31
37.81,8.15,-1.15,8.15,-1.14,1.15,0.00,1.50,9.30,9.30,9.30
38.19,8.16,-1.13,8.16,-1.13,1.13,0.00,1.47,9.29,9.29,9.29
38.57,8.16,-1.11,8.16,-1.11,1.12,0.00,1.43,9.28,9.28,9.28
38.95,8.16,-1.10,8.16,-1.10,1.10,0.00,1.40,9.27,9.27,9.26
39.34,8.16,-1.09,8.16,-1.09,1.09,0.00,1.36,9.25,9.25,9.25
39.74,8.17,-1.08,8.17,-1.08,1.08,0.00,1.33,9.24,9.24,9.24
40.14,8.17,-1.07,8.17,-1.07,1.06,0.00,1.29,9.23,9.23,9.23
40.54,8.17,-1.05,8.17,-1.05,1.05,0.00,1.26,9.22,9.22,9.22
40.94,8.17,-1.04,8.17,-1.04,1.04,0.00,1.22,9.20,9.20,9.21
41.35,8.17,-1.02,8.17,-1.02,1.02,0.00,1.19,9.19,9.19,9.19
41.76,8.17,-1.01,8.17,-1.01,1.01,0.00,1.16,9.18,9.18,9.17
42.18,8.17,-0.99,8.17,-0.99,1.00,0.00,1.13,9.16,9.16,9.16
42.60,8.17,-0.98,8.17,-0.98,0.98,0.00,1.10,9.15,9.15,9.15
43.03,8.17,-0.97,8.17,-0.97,0.97,0.00,1.07,9.14,9.13,9.14
43.46,8.16,-0.96,8.16,-0.96,0.96,0.00,1.04,9.12,9.12,9.12
43.90,8.16,-0.95,8.16,-0.95,0.95,0.00,1.01,9.11,9.11,9.10
44.33,8.15,-0.94,8.15,-0.94,0.94,0.00,0.98,9.09,9.09,9.09
44.78,8.15,-0.93,8.15,-0.93,0.93,0.00,0.95,9.08,9.08,9.08
45.23,8.15,-0.92,8.15,-0.92,0.92,0.00,0.93,9.06,9.06,9.06
45.68,8.14,-0.91,8.14,-0.91,0.91,0.00,0.90,9.05,9.05,9.05
46.13,8.14,-0.90,8.14,-0.90,0.89,0.00,0.88,9.03,9.03,9.04
46.60,8.13,-0.88,8.13,-0.88,0.88,0.00,0.85,9.02,9.02,9.02
47.06,8.13,-0.87,8.13,-0.87,0.87,0.00,0.83,9.00,9.00,9.00
47.53,8.13,-0.85,8.13,-0.86,0.86,0.00,0.81,8.99,8.99,8.98
48.01,8.12,-0.84,8.12,-0.84,0.85,0.00,0.78,8.97,8.97,8.97
48.49,8.12,-0.83,8.12,-0.83,0.83,0.00,0.76,8.95,8.95,8.95
48.97,8.11,-0.82,8.11,-0.82,0.82,0.00,0.74,8.94,8.94,8.94
49.46,8.11,-0.81,8.11,-0.81,0.81,0.00,0.72,8.92,8.92,8.92
49.96,8.10,-0.80,8.10,-0.80,0.80,0.00,0.70,8.90,8.90,8.90
50.46,8.10,-0.79,8.10,-0.79,0.79,0.00,0.69,8.89,8.89,8.89
50.96,8.09,-0.78,8.09,-0.78,0.78,0.00,0.67,8.87,8.87,8.87
51.47,8.09,-0.77,8.09,-0.77,0.77,0.00,0.65,8.86,8.86,8.86
51.99,8.08,-0.76,8.08,-0.76,0.76,0.00,0.63,8.84,8.84,8.84
52.51,8.08,-0.74,8.08,-0.74,0.74,0.00,0.62,8.82,8.82,8.82
53.03,8.07,-0.73,8.07,-0.73,0.73,0.00,0.60,8.80,8.80,8.80
53.56,8.07,-0.72,8.07,-0.72,0.71,0.00,0.59,8.78,8.78,8.78
54.10,8.06,-0.70,8.06,-0.70,0.70,0.00,0.57,8.76,8.76,8.76
54.64,8.06,-0.69,8.06,-0.69,0.68,0.00,0.56,8.74,8.74,8.74
55.18,8.05,-0.67,8.05,-0.67,0.67,0.00,0.55,8.73,8.73,8.72
55.74,8.05,-0.65,8.05,-0.66,0.66,0.00,0.53,8.71,8.71,8.70
56.29,8.04,-0.65,8.04,-0.65,0.65,0.00,0.52,8.69,8.69,8.68
56.86,8.02,-0.64,8.02,-0.64,0.65,0.00,0.51,8.67,8.67,8.66
57.42,8.00,-0.64,8.00,-0.64,0.64,0.00,0.50,8.64,8.64,8.64
58.00,7.98,-0.64,7.98,-0.64,0.64,0.00,0.49,8.62,8.62,8.62
58.58,7.96,-0.64,7.96,-0.64,0.63,0.00,0.48,8.60,8.60,8.60
59.16,7.95,-0.64,7.95,-0.64,0.63,0.00,0.47,8.58,8.58,8.58
59.76,7.93,-0.63,7.93,-0.63,0.63,0.00,0.46,8.56,8.56,8.56
60.35,7.92,-0.62,7.92,-0.62,0.62,0.00,0.45,8.54,8.54,8.54
60.96,7.91,-0.61,7.91,-0.61,0.62,0.00,0.44,8.52,8.52,8.52
61.57,7.89,-0.61,7.89,-0.61,0.61,0.00,0.43,8.50,8.50,8.50
62.18,7.88,-0.60,7.87,-0.60,0.60,0.00,0.42,8.48,8.48,8.48
62.80,7.86,-0.60,7.86,-0.60,0.60,0.00,0.42,8.45,8.45,8.45
63.43,7.84,-0.60,7.84,-0.60,0.59,0.00,0.41,8.43,8.43,8.43
64.07,7.82,-0.59,7.82,-0.59,0.59,0.00,0.40,8.41,8.41,8.41
64.71,7.80,-0.59,7.80,-0.59,0.58,0.00,0.39,8.38,8.38,8.38
65.35,7.78,-0.58,7.78,-0.58,0.58,0.00,0.39,8.36,8.36,8.36
66.01,7.76,-0.57,7.76,-0.57,0.58,0.00,0.38,8.34,8.34,8.34
66.67,7.75,-0.57,7.74,-0.57,0.57,0.00,0.38,8.32,8.32,8.31
67.33,7.73,-0.56,7.73,-0.56,0.56,0.00,0.37,8.29,8.29,8.29
68.01,7.71,-0.56,7.71,-0.56,0.56,0.00,0.37,8.27,8.27,8.27
68.69,7.69,-0.55,7.69,-0.55,0.55,0.00,0.36,8.24,8.24,8.24
69.37,7.67,-0.55,7.67,-0.55,0.55,0.00,0.36,8.22,8.22,8.22
70.07,7.65,-0.54,7.65,-0.54,0.54,0.00,0.35,8.19,8.19,8.19
70.77,7.63,-0.54,7.63,-0.54,0.54,0.00,0.35,8.17,8.17,8.17
71.48,7.61,-0.53,7.61,-0.53,0.53,0.01,0.35,8.14,8.14,8.14
72.19,7.59,-0.53,7.59,-0.53,0.53,0.01,0.34,8.12,8.12,8.12
72.91,7.57,-0.52,7.57,-0.52,0.52,0.01,0.34,8.09,8.09,8.09
73.64,7.55,-0.51,7.55,-0.51,0.51,0.01,0.34,8.06,8.06,8.06
74.38,7.53,-0.51,7.53,-0.51,0.51,0.01,0.33,8.03,8.03,8.03
75.12,7.51,-0.50,7.51,-0.50,0.50,0.01,0.33,8.01,8.01,8.01
75.87,7.48,-0.49,7.48,-0.49,0.49,0.01,0.33,7.98,7.98,7.98
76.63,7.46,-0.49,7.46,-0.49,0.49,0.01,0.33,7.95,7.95,7.95
77.40,7.44,-0.48,7.44,-0.48,0.49,0.01,0.33,7.92,7.92,7.92
78.17,7.41,-0.48,7.41,-0.48,0.48,0.01,0.32,7.90,7.90,7.90
78.95,7.39,-0.48,7.39,-0.48,0.48,0.01,0.32,7.87,7.87,7.87
79.74,7.36,-0.48,7.36,-0.48,0.48,0.01,0.32,7.84,7.84,7.84
80.54,7.34,-0.47,7.34,-0.47,0.47,0.01,0.32,7.81,7.81,7.81
81.35,7.31,-0.47,7.31,-0.47,0.47,0.01,0.32,7.78,7.78,7.78
82.16,7.29,-0.47,7.29,-0.47,0.47,0.01,0.32,7.75,7.75,7.75
82.98,7.26,-0.46,7.26,-0.46,0.46,0.01,0.32,7.72,7.72,7.72
83.81,7.24,-0.46,7.24,-0.46,0.46,0.01,0.32,7.69,7.69,7.69
84.65,7.21,-0.45,7.21,-0.45,0.45,0.01,0.32,7.66,7.66,7.66
85.50,7.18,-0.45,7.18,-0.45,0.45,0.01,0.32,7.63,7.63,7.63
86.35,7.15,-0.44,7.15,-0.44,0.45,0.01,0.33,7.60,7.60,7.60
87.22,7.12,-0.44,7.13,-0.44,0.44,0.01,0.33,7.57,7.57,7.57
88.09,7.10,-0.44,7.10,-0.44,0.44,0.01,0.33,7.53,7.53,7.53
88.97,7.07,-0.43,7.07,-0.43,0.44,0.01,0.33,7.50,7.50,7.50
89.86,7.04,-0.43,7.04,-0.43,0.43,0.01,0.33,7.47,7.47,7.47
90.76,7.01,-0.43,7.01,-0.43,0.43,0.01,0.34,7.44,7.44,7.44
91.66,6.98,-0.43,6.98,-0.43,0.43,0.01,0.34,7.40,7.40,7.40
92.58,6.94,-0.43,6.94,-0.43,0.43,0.01,0.34,7.37,7.37,7.37
93.51,6.91,-0.42,6.91,-0.42,0.42,0.01,0.34,7.34,7.34,7.34
94.44,6.88,-0.42,6.88,-0.42,0.42,0.01,0.35,7.30,7.30,7.30
95.39,6.85,-0.42,6.85,-0.42,0.42,0.01,0.35,7.27,7.27,7.27
96.34,6.81,-0.42,6.81,-0.42,0.42,0.02,0.35,7.24,7.24,7.23
97.30,6.78,-0.42,6.78,-0.42,0.42,0.02,0.36,7.20,7.20,7.20
98.28,6.74,-0.42,6.74,-0.42,0.42,0.02,0.36,7.16,7.16,7.16
99.26,6.70,-0.42,6.71,-0.42,0.42,0.02,0.37,7.13,7.13,7.13
100.25,6.67,-0.42,6.67,-0.42,0.42,0.02,0.37,7.09,7.09,7.09
101.25,6.63,-0.42,6.63,-0.42,0.42,0.02,0.38,7.05,7.05,7.06
102.27,6.60,-0.42,6.60,-0.42,0.42,0.02,0.38,7.02,7.02,7.02
103.29,6.56,-0.42,6.56,-0.42,0.42,0.02,0.38,6.98,6.98,6.98
104.32,6.53,-0.41,6.53,-0.41,0.41,0.02,0.39,6.94,6.94,6.94
105.37,6.49,-0.41,6.49,-0.41,0.41,0.02,0.39,6.91,6.91,6.90
106.42,6.46,-0.41,6.46,-0.41,0.41,0.02,0.40,6.87,6.87,6.87
107.48,6.43,-0.40,6.42,-0.40,0.41,0.02,0.40,6.83,6.83,6.83
108.56,6.39,-0.40,6.39,-0.40,0.40,0.03,0.41,6.79,6.79,6.79
109.64,6.35,-0.40,6.35,-0.40,0.40,0.03,0.41,6.75,6.75,6.75
110.74,6.31,-0.40,6.31,-0.40,0.40,0.03,0.42,6.71,6.71,6.71
111.85,6.27,-0.40,6.27,-0.40,0.40,0.03,0.42,6.67,6.67,6.67
112.97,6.23,-0.41,6.23,-0.40,0.40,0.03,0.42,6.63,6.63,6.63
114.10,6.19,-0.41,6.19,-0.41,0.41,0.03,0.43,6.59,6.59,6.59
115.24,6.14,-0.41,6.14,-0.41,0.41,0.03,0.43,6.55,6.55,6.55
116.39,6.10,-0.41,6.10,-0.41,0.41,0.04,0.43,6.51,6.51,6.51
117.55,6.06,-0.41,6.06,-0.42,0.42,0.04,0.44,6.47,6.47,6.47
118.73,6.01,-0.42,6.01,-0.42,0.42,0.04,0.44,6.43,6.43,6.43
119.92,5.96,-0.43,5.96,-0.43,0.43,0.04,0.44,6.39,6.39,6.39
121.12,5.91,-0.43,5.91,-0.43,0.43,0.04,0.44,6.34,6.34,6.34
122.33,5.86,-0.44,5.86,-0.44,0.44,0.05,0.44,6.30,6.30,6.30
123.55,5.82,-0.44,5.82,-0.44,0.44,0.05,0.44,6.26,6.26,6.26
124.79,5.77,-0.44,5.77,-0.44,0.44,0.05,0.44,6.21,6.22,6.22
126.03,5.73,-0.45,5.73,-0.45,0.45,0.06,0.44,6.17,6.17,6.17
127.29,5.68,-0.45,5.68,-0.45,0.45,0.06,0.44,6.13,6.13,6.13
128.57,5.64,-0.45,5.64,-0.45,0.45,0.06,0.44,6.09,6.09,6.09
129.85,5.59,-0.45,5.59,-0.45,0.46,0.07,0.44,6.04,6.04,6.04
131.15,5.54,-0.46,5.54,-0.46,0.46,0.07,0.44,6.00,6.00,6.00
132.46,5.49,-0.46,5.49,-0.46,0.46,0.07,0.44,5.95,5.95,5.95
133.79,5.44,-0.47,5.44,-0.47,0.47,0.08,0.43,5.91,5.91,5.91
135.12,5.39,-0.47,5.39,-0.47,0.47,0.08,0.43,5.86,5.86,5.86
136.48,5.34,-0.48,5.34,-0.48,0.48,0.09,0.43,5.82,5.82,5.82
137.84,5.29,-0.48,5.29,-0.48,0.48,0.09,0.42,5.77,5.77,5.77
139.22,5.24,-0.49,5.24,-0.49,0.49,0.10,0.42,5.73,5.73,5.73
140.61,5.19,-0.49,5.19,-0.49,0.49,0.11,0.41,5.68,5.68,5.68
142.02,5.15,-0.48,5.15,-0.49,0.48,0.11,0.41,5.63,5.63,5.63
143.44,5.11,-0.48,5.11,-0.48,0.48,0.12,0.41,5.59,5.59,5.59
144.87,5.07,-0.47,5.07,-0.47,0.47,0.13,0.40,5.54,5.54,5.54
146.32,5.03,-0.46,5.03,-0.46,0.46,0.14,0.40,5.49,5.49,5.50
147.78,5.00,-0.45,5.00,-0.45,0.45,0.15,0.39,5.45,5.45,5.45
149.26,4.97,-0.43,4.97,-0.43,0.43,0.16,0.39,5.40,5.40,5.40
150.75,4.94,-0.41,4.94,-0.41,0.41,0.17,0.38,5.35,5.35,5.35
152.26,4.92,-0.39,4.92,-0.39,0.39,0.18,0.38,5.31,5.31,5.31
153.78,4.89,-0.37,4.89,-0.37,0.37,0.19,0.37,5.26,5.26,5.26
155.32,4.87,-0.34,4.87,-0.34,0.34,0.20,0.37,5.21,5.21,5.21
156.88,4.84,-0.32,4.84,-0.32,0.32,0.21,0.37,5.16,5.16,5.16
158.44,4.81,-0.30,4.81,-0.30,0.30,0.22,0.36,5.11,5.11,5.11
160.03,4.78,-0.28,4.78,-0.28,0.28,0.23,0.36,5.07,5.06,5.06
161.63,4.75,-0.26,4.75,-0.26,0.27,0.24,0.36,5.02,5.02,5.01
163.24,4.71,-0.25,4.71,-0.25,0.25,0.25,0.35,4.97,4.97,4.96
164.88,4.67,-0.24,4.67,-0.24,0.25,0.26,0.35,4.92,4.91,4.91
166.53,4.62,-0.24,4.62,-0.24,0.24,0.26,0.35,4.86,4.86,4.86
168.19,4.58,-0.24,4.58,-0.24,0.23,0.27,0.34,4.81,4.81,4.81
169.87,4.53,-0.23,4.53,-0.23,0.23,0.27,0.34,4.76,4.76,4.76
171.57,4.47,-0.23,4.47,-0.23,0.23,0.28,0.34,4.71,4.71,4.71
173.29,4.42,-0.23,4.42,-0.23,0.23,0.28,0.34,4.66,4.66,4.66
175.02,4.37,-0.23,4.37,-0.24,0.24,0.27,0.33,4.60,4.60,4.60
176.77,4.32,-0.24,4.32,-0.24,0.24,0.27,0.33,4.55,4.55,4.55
178.54,4.26,-0.24,4.26,-0.24,0.24,0.27,0.33,4.50,4.50,4.50
180.32,4.21,-0.24,4.21,-0.24,0.24,0.26,0.33,4.45,4.45,4.45
182.13,4.16,-0.24,4.16,-0.24,0.24,0.25,0.33,4.40,4.40,4.40
183.95,4.10,-0.24,4.10,-0.24,0.24,0.24,0.33,4.35,4.35,4.35
185.79,4.05,-0.24,4.05,-0.24,0.24,0.23,0.33,4.29,4.29,4.29
187.65,4.00,-0.24,4.00,-0.24,0.24,0.22,0.33,4.24,4.24,4.24
189.52,3.95,-0.24,3.95,-0.24,0.24,0.21,0.33,4.19,4.19,4.19
191.42,3.90,-0.24,3.90,-0.24,0.24,0.20,0.33,4.13,4.13,4.14
193.33,3.84,-0.24,3.84,-0.24,0.24,0.18,0.33,4.08,4.08,4.08
195.27,3.79,-0.23,3.79,-0.23,0.23,0.17,0.33,4.03,4.03,4.03
197.22,3.74,-0.23,3.74,-0.23,0.23,0.16,0.33,3.97,3.97,3.97
199.19,3.69,-0.23,3.69,-0.23,0.23,0.15,0.33,3.92,3.92,3.92
201.18,3.63,-0.23,3.63,-0.23,0.23,0.14,0.34,3.86,3.86,3.86
203.19,3.58,-0.23,3.57,-0.23,0.23,0.13,0.34,3.81,3.81,3.81
205.23,3.52,-0.23,3.52,-0.23,0.23,0.12,0.34,3.75,3.75,3.75
207.28,3.46,-0.24,3.46,-0.24,0.23,0.11,0.34,3.70,3.70,3.70
209.35,3.41,-0.24,3.41,-0.24,0.23,0.10,0.34,3.64,3.64,3.64
211.44,3.35,-0.23,3.35,-0.23,0.23,0.09,0.34,3.59,3.59,3.59
213.56,3.30,-0.23,3.30,-0.23,0.23,0.09,0.35,3.53,3.53,3.53
215.69,3.24,-0.23,3.24,-0.23,0.23,0.08,0.35,3.48,3.48,3.47
217.85,3.19,-0.23,3.19,-0.23,0.23,0.07,0.35,3.42,3.42,3.42
220.03,3.13,-0.23,3.13,-0.23,0.23,0.07,0.35,3.36,3.36,3.36
222.23,3.08,-0.23,3.08,-0.23,0.23,0.06,0.35,3.31,3.31,3.31
224.45,3.02,-0.23,3.02,-0.23,0.23,0.05,0.36,3.25,3.25,3.25
226.70,2.97,-0.23,2.96,-0.23,0.23,0.05,0.36,3.19,3.19,3.19
228.96,2.91,-0.23,2.91,-0.23,0.23,0.04,0.36,3.14,3.14,3.14
231.25,2.85,-0.23,2.85,-0.23,0.23,0.04,0.36,3.08,3.08,3.08
233.57,2.80,-0.22,2.80,-0.22,0.22,0.03,0.36,3.02,3.02,3.02
235.90,2.74,-0.22,2.74,-0.22,0.22,0.03,0.36,2.97,2.96,2.96
238.26,2.69,-0.22,2.69,-0.22,0.22,0.02,0.36,2.91,2.91,2.91
240.64,2.63,-0.22,2.63,-0.22,0.22,0.02,0.36,2.85,2.85,2.85
243.05,2.58,-0.22,2.58,-0.22,0.22,0.02,0.36,2.80,2.80,2.80
245.48,2.52,-0.22,2.52,-0.22,0.22,0.01,0.36,2.74,2.74,2.74
247.93,2.47,-0.21,2.47,-0.21,0.21,0.01,0.36,2.68,2.68,2.68
250.41,2.41,-0.21,2.41,-0.21,0.21,0.01,0.36,2.63,2.63,2.63
252.92,2.36,-0.21,2.36,-0.21,0.21,0.00,0.35,2.57,2.57,2.57
255.45,2.31,-0.21,2.31,-0.21,0.20,-0.00,0.35,2.51,2.51,2.51
258.00,2.25,-0.20,2.25,-0.20,0.20,-0.00,0.35,2.45,2.45,2.46
260.58,2.20,-0.19,2.20,-0.19,0.19,-0.01,0.34,2.40,2.40,2.40
263.19,2.16,-0.19,2.16,-0.19,0.19,-0.01,0.34,2.34,2.34,2.34
265.82,2.11,-0.18,2.11,-0.18,0.18,-0.01,0.34,2.29,2.29,2.29
268.48,2.06,-0.17,2.06,-0.17,0.18,-0.01,0.33,2.23,2.23,2.23
271.16,2.00,-0.17,2.00,-0.17,0.17,-0.02,0.33,2.17,2.17,2.17
273.87,1.95,-0.16,1.95,-0.16,0.17,-0.02,0.32,2.11,2.11,2.11
276.61,1.89,-0.16,1.90,-0.16,0.16,-0.02,0.32,2.05,2.05,2.05
279.38,1.84,-0.15,1.84,-0.15,0.15,-0.02,0.31,1.99,1.99,1.99
282.17,1.79,-0.15,1.79,-0.15,0.14,-0.03,0.31,1.93,1.93,1.94
284.99,1.74,-0.14,1.74,-0.14,0.13,-0.03,0.30,1.87,1.87,1.88
287.84,1.69,-0.13,1.69,-0.13,0.12,-0.03,0.30,1.81,1.81,1.82
290.72,1.65,-0.11,1.65,-0.11,0.11,-0.03,0.29,1.75,1.76,1.76
293.63,1.61,-0.09,1.61,-0.09,0.09,-0.04,0.29,1.70,1.70,1.70
296.57,1.57,-0.07,1.57,-0.07,0.07,-0.04,0.28,1.64,1.64,1.64
299.53,1.53,-0.05,1.53,-0.05,0.06,-0.04,0.27,1.58,1.58,1.58
302.53,1.48,-0.04,1.48,-0.04,0.04,-0.04,0.27,1.53,1.53,1.52
305.55,1.44,-0.02,1.44,-0.02,0.03,-0.05,0.26,1.47,1.46,1.46
308.61,1.39,-0.01,1.39,-0.01,0.01,-0.05,0.26,1.40,1.40,1.40
311.69,1.34,-0.00,1.34,-0.00,0.00,-0.05,0.25,1.34,1.34,1.34
314.81,1.29,0.01,1.29,0.01,-0.01,-0.05,0.25,1.29,1.29,1.29
317.96,1.24,0.01,1.24,0.01,-0.01,-0.06,0.24,1.23,1.23,1.23
321.14,1.19,0.01,1.19,0.01,-0.01,-0.06,0.23,1.18,1.18,1.18
324.35,1.14,0.02,1.14,0.01,-0.01,-0.06,0.23,1.12,1.12,1.12
327.59,1.08,0.01,1.08,0.01,-0.01,-0.06,0.22,1.07,1.07,1.07
330.87,1.03,0.01,1.03,0.01,-0.01,-0.06,0.22,1.02,1.02,1.02
334.18,0.98,0.00,0.98,0.00,-0.00,-0.07,0.21,0.98,0.98,0.98
337.52,0.93,-0.00,0.93,-0.00,0.00,-0.07,0.21,0.93,0.93,0.93
340.90,0.88,-0.01,0.88,-0.01,0.01,-0.07,0.21,0.89,0.89,0.89
344.30,0.83,-0.02,0.83,-0.02,0.02,-0.07,0.20,0.84,0.84,0.84
347.75,0.77,-0.02,0.77,-0.02,0.02,-0.08,0.20,0.79,0.79,0.80
351.23,0.72,-0.03,0.72,-0.03,0.02,-0.08,0.19,0.75,0.75,0.75
354.74,0.67,-0.03,0.67,-0.03,0.03,-0.08,0.19,0.70,0.70,0.70
358.28,0.62,-0.03,0.62,-0.03,0.03,-0.08,0.19,0.65,0.65,0.65
361.87,0.57,-0.03,0.57,-0.03,0.03,-0.09,0.18,0.59,0.59,0.59
365.49,0.52,-0.02,0.52,-0.02,0.02,-0.09,0.18,0.54,0.54,0.54
369.14,0.47,-0.02,0.47,-0.02,0.02,-0.09,0.18,0.49,0.49,0.49
372.83,0.42,-0.01,0.42,-0.01,0.01,-0.10,0.17,0.43,0.43,0.43
376.56,0.37,-0.01,0.37,-0.01,0.01,-0.10,0.17,0.38,0.38,0.38
380.33,0.32,-0.00,0.32,-0.00,0.00,-0.10,0.17,0.32,0.32,0.33
384.13,0.27,0.00,0.27,0.00,-0.00,-0.10,0.16,0.27,0.27,0.27
387.97,0.23,0.01,0.23,0.01,-0.01,-0.11,0.16,0.22,0.22,0.22
391.85,0.18,0.02,0.18,0.02,-0.02,-0.11,0.16,0.16,0.16,0.16
395.77,0.14,0.03,0.14,0.03,-0.03,-0.11,0.16,0.11,0.11,0.11
399.73,0.09,0.04,0.09,0.03,-0.03,-0.12,0.15,0.06,0.06,0.06
403.72,0.05,0.04,0.05,0.04,-0.04,-0.12,0.15,0.01,0.01,0.00
407.76,-0.00,0.05,-0.00,0.05,-0.05,-0.12,0.15,-0.05,-0.05,-0.05
411.84,-0.05,0.05,-0.05,0.05,-0.05,-0.13,0.15,-0.10,-0.10,-0.10
415.96,-0.09,0.06,-0.09,0.06,-0.06,-0.13,0.14,-0.15,-0.15,-0.15
420.12,-0.14,0.07,-0.14,0.07,-0.07,-0.13,0.14,-0.20,-0.20,-0.20
424.32,-0.18,0.07,-0.18,0.07,-0.07,-0.14,0.14,-0.25,-0.25,-0.25
428.56,-0.22,0.08,-0.22,0.08,-0.08,-0.14,0.14,-0.30,-0.30,-0.30
432.85,-0.27,0.09,-0.27,0.09,-0.09,-0.14,0.13,-0.35,-0.35,-0.35
437.18,-0.31,0.10,-0.31,0.10,-0.10,-0.15,0.13,-0.40,-0.40,-0.41
441.55,-0.35,0.10,-0.35,0.10,-0.10,-0.15,0.13,-0.45,-0.45,-0.46
445.96,-0.39,0.11,-0.39,0.11,-0.11,-0.15,0.12,-0.50,-0.50,-0.51
450.42,-0.43,0.12,-0.43,0.12,-0.12,-0.16,0.12,-0.55,-0.55,-0.55
454.93,-0.47,0.13,-0.47,0.13,-0.13,-0.16,0.11,-0.60,-0.60,-0.60
459.48,-0.51,0.13,-0.51,0.13,-0.13,-0.17,0.11,-0.65,-0.65,-0.65
464.07,-0.55,0.14,-0.55,0.14,-0.14,-0.17,0.10,-0.70,-0.70,-0.69
468.71,-0.59,0.15,-0.59,0.15,-0.15,-0.18,0.10,-0.74,-0.74,-0.74
473.40,-0.63,0.16,-0.63,0.16,-0.16,-0.18,0.09,-0.79,-0.79,-0.79
478.13,-0.67,0.17,-0.67,0.17,-0.17,-0.18,0.08,-0.83,-0.83,-0.84
482.91,-0.71,0.18,-0.71,0.18,-0.18,-0.19,0.08,-0.88,-0.88,-0.88
487.74,-0.74,0.19,-0.74,0.19,-0.19,-0.19,0.07,-0.93,-0.93,-0.93
492.62,-0.78,0.19,-0.78,0.19,-0.19,-0.20,0.06,-0.97,-0.97,-0.97
497.55,-0.81,0.20,-0.81,0.20,-0.20,-0.20,0.05,-1.02,-1.02,-1.02
502.52,-0.85,0.21,-0.85,0.21,-0.21,-0.21,0.04,-1.06,-1.06,-1.06
507.55,-0.88,0.22,-0.88,0.22,-0.22,-0.21,0.03,-1.10,-1.10,-1.10
512.62,-0.91,0.23,-0.91,0.23,-0.23,-0.22,0.02,-1.15,-1.15,-1.15
517.75,-0.95,0.24,-0.95,0.24,-0.24,-0.23,0.01,-1.19,-1.19,-1.19
522.93,-0.98,0.25,-0.98,0.25,-0.25,-0.23,-0.00,-1.23,-1.23,-1.23
528.16,-1.01,0.26,-1.01,0.26,-0.26,-0.24,-0.02,-1.27,-1.27,-1.27
533.44,-1.04,0.27,-1.04,0.27,-0.27,-0.24,-0.03,-1.31,-1.31,-1.32
538.77,-1.07,0.28,-1.07,0.28,-0.28,-0.25,-0.05,-1.35,-1.35,-1.36
544.16,-1.10,0.29,-1.10,0.29,-0.29,-0.26,-0.06,-1.39,-1.39,-1.40
549.60,-1.13,0.30,-1.13,0.30,-0.30,-0.26,-0.08,-1.43,-1.43,-1.43
555.10,-1.16,0.31,-1.16,0.31,-0.31,-0.27,-0.09,-1.47,-1.47,-1.47
560.65,-1.19,0.32,-1.19,0.32,-0.32,-0.28,-0.11,-1.51,-1.51,-1.51
