frequency,raw,error,smoothed,error_smoothed,equalization,parametric_eq,fixed_band_eq,equalized_raw,equalized_smoothed,target
20.00,13.11,8.05,13.11,8.05,-8.06,0.01,-3.32,5.05,5.05,5.06
20.20,13.10,8.03,13.10,8.03,-8.03,0.01,-3.42,5.07,5.07,5.07
20.40,13.10,8.01,13.10,8.01,-8.01,0.01,-3.51,5.09,5.09,5.08
20.61,13.09,7.99,13.09,7.99,-7.98,0.01,-3.61,5.11,5.11,5.10
20.81,13.08,7.96,13.08,7.96,-7.96,0.01,-3.71,5.12,5.12,5.12
21.02,13.07,7.93,13.07,7.93,-7.93,0.01,-3.82,5.14,5.14,5.14
21.23,13.05,7.90,13.05,7.90,-7.91,0.01,-3.92,5.15,5.15,5.15
21.44,13.04,7.88,13.04,7.88,-7.88,0.01,-4.03,5.16,5.16,5.16
21.66,13.03,7.85,13.03,7.85,-7.86,0.01,-4.14,5.17,5.17,5.17
21.87,13.02,7.83,13.02,7.83,-7.84,0.01,-4.26,5.18,5.18,5.18
22.09,13.00,7.81,13.00,7.81,-7.81,0.01,-4.38,5.19,5.19,5.19
22.31,12.99,7.79,12.99,7.79,-7.79,0.01,-4.50,5.20,5.20,5.20
22.54,12.98,7.77,12.98,7.77,-7.76,0.01,-4.63,5.21,5.21,5.21
22.76,12.96,7.74,12.96,7.74,-7.74,0.01,-4.76,5.22,5.22,5.22
22.99,12.94,7.71,12.94,7.71,-7.71,0.01,-4.89,5.23,5.23,5.23
23.22,12.92,7.69,12.92,7.69,-7.69,0.01,-5.02,5.24,5.24,5.24
23.45,12.90,7.66,12.90,7.66,-7.66,0.01,-5.16,5.24,5.24,5.25
23.69,12.88,7.63,12.88,7.63,-7.64,0.01,-5.30,5.25,5.25,5.25
23.92,12.86,7.61,12.86,7.61,-7.61,0.01,-5.45,5.25,5.25,5.25
24.16,12.84,7.59,12.84,7.59,-7.59,0.01,-5.59,5.25,5.25,5.25
24.40,12.82,7.57,12.82,7.57,-7.56,0.01,-5.74,5.26,5.26,5.26
24.65,12.80,7.54,12.80,7.54,-7.54,0.01,-5.90,5.26,5.26,5.26
24.89,12.78,7.52,12.78,7.52,-7.51,0.01,-6.05,5.27,5.27,5.26
25.14,12.76,7.49,12.76,7.49,-7.49,0.01,-6.21,5.27,5.27,5.27
25.39,12.74,7.46,12.74,7.46,-7.46,0.01,-6.37,5.28,5.28,5.28
25.65,12.73,7.43,12.73,7.43,-7.44,0.01,-6.53,5.29,5.29,5.29
25.91,12.71,7.41,12.71,7.41,-7.41,0.01,-6.69,5.30,5.30,5.30
26.16,12.69,7.38,12.69,7.38,-7.39,0.01,-6.85,5.31,5.31,5.31
26.43,12.68,7.36,12.68,7.36,-7.36,0.01,-7.01,5.32,5.32,5.32
26.69,12.67,7.34,12.67,7.34,-7.34,0.01,-7.17,5.33,5.33,5.33
26.96,12.65,7.32,12.65,7.32,-7.32,0.01,-7.33,5.34,5.34,5.33
27.23,12.64,7.30,12.64,7.30,-7.29,0.01,-7.48,5.34,5.34,5.34
27.50,12.62,7.28,12.62,7.28,-7.27,0.01,-7.63,5.35,5.35,5.34
27.77,12.59,7.25,12.59,7.25,-7.24,0.01,-7.78,5.35,5.35,5.34
28.05,12.57,7.22,12.57,7.22,-7.22,0.01,-7.92,5.35,5.35,5.35
28.33,12.54,7.19,12.54,7.19,-7.19,0.01,-8.06,5.35,5.35,5.35
28.62,12.51,7.15,12.51,7.15,-7.16,0.01,-8.19,5.35,5.35,5.36
28.90,12.49,7.12,12.49,7.12,-7.13,0.01,-8.30,5.36,5.36,5.36
29.19,12.46,7.09,12.46,7.09,-7.10,0.01,-8.42,5.37,5.37,5.37
29.48,12.44,7.06,12.44,7.06,-7.06,0.01,-8.51,5.38,5.38,5.38
29.78,12.42,7.03,12.42,7.03,-7.03,0.01,-8.60,5.39,5.39,5.38
30.08,12.39,7.00,12.39,7.00,-7.00,0.01,-8.67,5.40,5.40,5.39
30.38,12.37,6.97,12.37,6.97,-6.96,0.01,-8.74,5.41,5.41,5.40
30.68,12.34,6.93,12.34,6.93,-6.92,0.01,-8.78,5.41,5.41,5.41
30.99,12.30,6.89,12.31,6.89,-6.89,0.01,-8.81,5.42,5.42,5.42
31.30,12.27,6.85,12.27,6.85,-6.85,0.02,-8.82,5.42,5.42,5.43
31.61,12.24,6.81,12.24,6.81,-6.82,0.02,-8.83,5.42,5.42,5.43
31.93,12.21,6.78,12.21,6.78,-6.78,0.02,-8.81,5.43,5.43,5.43
32.24,12.18,6.75,12.18,6.75,-6.75,0.02,-8.78,5.43,5.43,5.43
32.57,12.15,6.72,12.15,6.72,-6.71,0.02,-8.74,5.44,5.44,5.44
32.89,12.13,6.69,12.12,6.69,-6.68,0.02,-8.68,5.44,5.44,5.44
33.22,12.10,6.65,12.10,6.65,-6.65,0.02,-8.61,5.45,5.45,5.44
33.55,12.07,6.62,12.07,6.62,-6.62,0.02,-8.53,5.45,5.45,5.45
33.89,12.04,6.58,12.04,6.58,-6.59,0.02,-8.44,5.46,5.46,5.46
34.23,12.01,6.55,12.01,6.55,-6.55,0.02,-8.34,5.46,5.46,5.46
34.57,11.98,6.51,11.98,6.52,-6.52,0.02,-8.23,5.46,5.46,5.47
34.92,11.95,6.48,11.95,6.48,-6.48,0.02,-8.12,5.47,5.47,5.47
35.27,11.91,6.45,11.91,6.45,-6.45,0.02,-7.99,5.47,5.47,5.47
35.62,11.88,6.41,11.88,6.41,-6.41,0.02,-7.87,5.47,5.47,5.47
35.97,11.85,6.37,11.85,6.37,-6.37,0.02,-7.74,5.47,5.47,5.47
36.33,11.81,6.33,11.81,6.33,-6.33,0.02,-7.61,5.48,5.48,5.48
36.70,11.78,6.29,11.78,6.29,-6.29,0.02,-7.47,5.49,5.49,5.48
37.06,11.75,6.25,11.75,6.25,-6.25,0.02,-7.34,5.50,5.50,5.50
37.43,11.71,6.21,11.71,6.21,-6.21,0.02,-7.20,5.51,5.51,5.51
37.81,11.68,6.16,11.68,6.16,-6.16,0.02,-7.06,5.52,5.52,5.52
38.19,11.64,6.12,11.64,6.12,-6.12,0.02,-6.93,5.53,5.52,5.53
38.57,11.61,6.07,11.61,6.07,-6.08,0.02,-6.80,5.53,5.53,5.53
38.95,11.57,6.03,11.57,6.03,-6.04,0.02,-6.66,5.53,5.53,5.54
39.34,11.53,5.99,11.53,5.99,-5.99,0.02,-6.53,5.54,5.54,5.54
39.74,11.49,5.95,11.49,5.95,-5.95,0.02,-6.41,5.54,5.54,5.54
40.14,11.45,5.91,11.45,5.91,-5.91,0.03,-6.29,5.54,5.54,5.54
40.54,11.41,5.87,11.41,5.87,-5.87,0.03,-6.17,5.55,5.55,5.54
40.94,11.38,5.83,11.38,5.83,-5.82,0.03,-6.05,5.55,5.55,5.55
41.35,11.34,5.79,11.34,5.78,-5.78,0.03,-5.94,5.56,5.56,5.55
41.76,11.30,5.74,11.30,5.74,-5.73,0.03,-5.82,5.56,5.56,5.56
42.18,11.26,5.68,11.26,5.68,-5.69,0.03,-5.72,5.57,5.57,5.57
42.60,11.22,5.63,11.22,5.64,-5.64,0.03,-5.62,5.57,5.57,5.58
43.03,11.18,5.59,11.18,5.59,-5.60,0.03,-5.52,5.58,5.58,5.59
43.46,11.13,5.55,11.13,5.55,-5.55,0.03,-5.43,5.58,5.58,5.58
43.90,11.09,5.51,11.09,5.51,-5.51,0.03,-5.34,5.58,5.58,5.58
44.33,11.05,5.47,11.05,5.47,-5.46,0.03,-5.25,5.59,5.59,5.58
44.78,11.01,5.43,11.01,5.43,-5.42,0.03,-5.17,5.59,5.59,5.58
45.23,10.97,5.38,10.97,5.38,-5.38,0.03,-5.09,5.59,5.59,5.59
45.68,10.92,5.33,10.92,5.33,-5.33,0.03,-5.01,5.59,5.59,5.59
46.13,10.88,5.28,10.88,5.28,-5.29,0.03,-4.94,5.59,5.59,5.60
46.60,10.83,5.23,10.83,5.24,-5.24,0.03,-4.88,5.59,5.59,5.60
47.06,10.79,5.19,10.79,5.19,-5.19,0.03,-4.81,5.60,5.60,5.60
47.53,10.75,5.15,10.75,5.15,-5.15,0.04,-4.75,5.60,5.60,5.60
48.01,10.71,5.11,10.71,5.11,-5.10,0.04,-4.70,5.61,5.61,5.60
48.49,10.66,5.06,10.66,5.06,-5.05,0.04,-4.64,5.61,5.61,5.61
48.97,10.62,5.00,10.62,5.00,-5.01,0.04,-4.59,5.62,5.62,5.62
49.46,10.58,4.95,10.58,4.95,-4.96,0.04,-4.55,5.62,5.62,5.63
49.96,10.54,4.91,10.54,4.91,-4.92,0.04,-4.50,5.63,5.63,5.63
50.46,10.50,4.86,10.50,4.86,-4.87,0.04,-4.46,5.63,5.63,5.64
50.96,10.46,4.82,10.46,4.82,-4.82,0.04,-4.42,5.64,5.64,5.64
51.47,10.42,4.78,10.42,4.78,-4.77,0.04,-4.38,5.65,5.65,5.64
51.99,10.37,4.73,10.37,4.73,-4.72,0.04,-4.35,5.66,5.66,5.64
52.51,10.33,4.68,10.33,4.67,-4.67,0.04,-4.32,5.66,5.66,5.65
53.03,10.28,4.61,10.28,4.61,-4.62,0.04,-4.29,5.66,5.66,5.67
53.56,10.23,4.55,10.23,4.55,-4.57,0.05,-4.26,5.67,5.67,5.69
54.10,10.19,4.50,10.19,4.50,-4.51,0.05,-4.23,5.67,5.67,5.69
54.64,10.14,4.47,10.14,4.46,-4.46,0.05,-4.20,5.68,5.68,5.67
55.18,10.09,4.43,10.09,4.42,-4.41,0.05,-4.17,5.68,5.68,5.66
55.74,10.04,4.37,10.04,4.37,-4.36,0.05,-4.14,5.68,5.68,5.68
56.29,9.99,4.31,9.99,4.31,-4.31,0.05,-4.11,5.69,5.69,5.69
56.86,9.95,4.25,9.95,4.25,-4.26,0.05,-4.09,5.69,5.69,5.69
57.42,9.90,4.20,9.90,4.20,-4.21,0.05,-4.06,5.69,5.69,5.69
58.00,9.85,4.16,9.85,4.16,-4.16,0.05,-4.03,5.69,5.69,5.69
58.58,9.80,4.11,9.80,4.11,-4.11,0.06,-4.00,5.69,5.69,5.69
59.16,9.76,4.06,9.76,4.06,-4.07,0.06,-3.96,5.69,5.69,5.69
59.76,9.71,4.01,9.71,4.01,-4.02,0.06,-3.93,5.69,5.69,5.70
60.35,9.67,3.97,9.67,3.98,-3.97,0.06,-3.89,5.69,5.69,5.69
60.96,9.62,3.95,9.62,3.95,-3.93,0.06,-3.86,5.69,5.69,5.67
61.57,9.57,3.91,9.57,3.90,-3.87,0.06,-3.82,5.70,5.70,5.66
62.18,9.52,3.83,9.52,3.83,-3.82,0.06,-3.77,5.70,5.70,5.69
62.80,9.47,3.75,9.47,3.76,-3.77,0.06,-3.73,5.70,5.70,5.72
63.43,9.42,3.69,9.42,3.70,-3.72,0.07,-3.68,5.70,5.70,5.72
64.07,9.37,3.65,9.37,3.65,-3.66,0.07,-3.63,5.70,5.70,5.71
64.71,9.32,3.61,9.32,3.61,-3.61,0.07,-3.58,5.71,5.71,5.71
65.35,9.26,3.56,9.26,3.56,-3.56,0.07,-3.53,5.71,5.71,5.70
66.01,9.21,3.51,9.21,3.51,-3.51,0.07,-3.47,5.70,5.70,5.70
66.67,9.16,3.47,9.16,3.47,-3.46,0.07,-3.41,5.70,5.70,5.69
67.33,9.11,3.42,9.11,3.42,-3.41,0.07,-3.35,5.69,5.69,5.69
68.01,9.05,3.36,9.05,3.37,-3.36,0.08,-3.29,5.69,5.69,5.69
68.69,9.00,3.31,9.00,3.31,-3.31,0.08,-3.23,5.69,5.69,5.69
69.37,8.94,3.25,8.94,3.25,-3.25,0.08,-3.16,5.69,5.69,5.69
70.07,8.89,3.19,8.89,3.19,-3.20,0.08,-3.09,5.69,5.69,5.69
70.77,8.83,3.14,8.83,3.14,-3.14,0.08,-3.03,5.69,5.69,5.70
71.48,8.77,3.08,8.77,3.08,-3.09,0.08,-2.96,5.69,5.69,5.70
72.19,8.72,3.03,8.72,3.03,-3.03,0.09,-2.89,5.69,5.69,5.69
72.91,8.66,2.98,8.66,2.98,-2.97,0.09,-2.82,5.69,5.69,5.68
73.64,8.60,2.92,8.60,2.92,-2.92,0.09,-2.75,5.68,5.68,5.68
74.38,8.54,2.86,8.54,2.86,-2.86,0.09,-2.68,5.68,5.68,5.68
75.12,8.48,2.79,8.48,2.80,-2.80,0.09,-2.61,5.68,5.68,5.69
75.87,8.42,2.74,8.42,2.74,-2.74,0.10,-2.54,5.68,5.68,5.68
76.63,8.36,2.68,8.36,2.68,-2.68,0.10,-2.47,5.68,5.68,5.68
77.40,8.30,2.61,8.30,2.62,-2.62,0.10,-2.40,5.69,5.69,5.69
78.17,8.24,2.56,8.24,2.56,-2.55,0.10,-2.33,5.69,5.69,5.69
78.95,8.18,2.49,8.18,2.49,-2.49,0.11,-2.27,5.69,5.69,5.68
79.74,8.12,2.43,8.12,2.43,-2.43,0.11,-2.20,5.69,5.69,5.69
80.54,8.05,2.36,8.05,2.36,-2.36,0.11,-2.14,5.69,5.69,5.69
81.35,7.99,2.30,7.99,2.30,-2.30,0.11,-2.07,5.69,5.69,5.69
82.16,7.93,2.23,7.93,2.23,-2.24,0.12,-2.01,5.69,5.69,5.69
82.98,7.86,2.17,7.86,2.17,-2.17,0.12,-1.94,5.69,5.69,5.69
83.81,7.80,2.11,7.80,2.11,-2.11,0.12,-1.88,5.69,5.69,5.69
84.65,7.73,2.04,7.73,2.04,-2.04,0.12,-1.82,5.69,5.69,5.69
85.50,7.66,1.98,7.66,1.98,-1.98,0.13,-1.76,5.69,5.69,5.68
86.35,7.59,1.91,7.60,1.91,-1.91,0.13,-1.71,5.68,5.68,5.68
87.22,7.53,1.84,7.53,1.85,-1.85,0.13,-1.65,5.68,5.68,5.68
88.09,7.46,1.78,7.46,1.78,-1.78,0.14,-1.59,5.68,5.68,5.68
88.97,7.39,1.72,7.39,1.72,-1.72,0.14,-1.54,5.67,5.67,5.67
89.86,7.33,1.66,7.33,1.66,-1.66,0.14,-1.49,5.67,5.67,5.67
90.76,7.26,1.60,7.26,1.60,-1.60,0.14,-1.43,5.67,5.67,5.67
91.66,7.20,1.54,7.20,1.54,-1.54,0.15,-1.38,5.66,5.66,5.66
92.58,7.14,1.48,7.14,1.48,-1.48,0.15,-1.33,5.66,5.66,5.66
93.51,7.08,1.42,7.08,1.42,-1.42,0.16,-1.28,5.65,5.65,5.65
94.44,7.02,1.37,7.02,1.37,-1.37,0.16,-1.24,5.65,5.65,5.65
95.39,6.96,1.31,6.96,1.31,-1.32,0.16,-1.19,5.65,5.65,5.65
96.34,6.91,1.26,6.91,1.26,-1.26,0.17,-1.14,5.64,5.64,5.65
97.30,6.86,1.21,6.86,1.21,-1.21,0.17,-1.10,5.64,5.64,5.64
98.28,6.80,1.17,6.80,1.16,-1.17,0.17,-1.05,5.64,5.64,5.64
99.26,6.75,1.12,6.75,1.12,-1.12,0.18,-1.01,5.63,5.63,5.64
100.25,6.70,1.07,6.70,1.07,-1.08,0.18,-0.97,5.63,5.63,5.63
101.25,6.65,1.03,6.66,1.03,-1.03,0.19,-0.92,5.63,5.63,5.63
102.27,6.61,0.99,6.61,0.99,-0.98,0.19,-0.88,5.62,5.62,5.62
103.29,6.56,0.94,6.56,0.94,-0.93,0.20,-0.84,5.62,5.62,5.62
104.32,6.50,0.89,6.50,0.89,-0.88,0.20,-0.80,5.62,5.62,5.61
105.37,6.44,0.84,6.44,0.84,-0.83,0.21,-0.76,5.61,5.61,5.61
106.42,6.38,0.78,6.38,0.78,-0.78,0.21,-0.73,5.60,5.60,5.60
107.48,6.32,0.72,6.32,0.72,-0.72,0.22,-0.69,5.60,5.60,5.60
108.56,6.26,0.66,6.26,0.66,-0.66,0.22,-0.65,5.59,5.59,5.60
109.64,6.19,0.60,6.19,0.60,-0.61,0.23,-0.61,5.59,5.59,5.59
110.74,6.13,0.55,6.13,0.55,-0.55,0.23,-0.58,5.58,5.58,5.59
111.85,6.08,0.50,6.08,0.50,-0.50,0.24,-0.54,5.58,5.58,5.58
112.97,6.02,0.45,6.02,0.45,-0.45,0.25,-0.50,5.57,5.57,5.57
114.10,5.96,0.40,5.96,0.40,-0.39,0.25,-0.47,5.57,5.57,5.57
115.24,5.91,0.34,5.90,0.34,-0.34,0.26,-0.43,5.57,5.56,5.56
116.39,5.85,0.29,5.85,0.29,-0.29,0.27,-0.39,5.56,5.56,5.56
117.55,5.79,0.23,5.79,0.23,-0.23,0.27,-0.36,5.55,5.55,5.55
118.73,5.72,0.18,5.72,0.18,-0.18,0.28,-0.32,5.55,5.55,5.55
119.92,5.66,0.12,5.66,0.12,-0.12,0.29,-0.29,5.54,5.54,5.54
121.12,5.60,0.06,5.60,0.06,-0.07,0.30,-0.25,5.53,5.53,5.54
122.33,5.54,0.01,5.54,0.01,-0.01,0.30,-0.22,5.53,5.53,5.53
123.55,5.47,-0.05,5.47,-0.05,0.05,0.31,-0.18,5.52,5.52,5.52
124.79,5.41,-0.10,5.41,-0.10,0.10,0.32,-0.14,5.51,5.51,5.51
126.03,5.35,-0.16,5.35,-0.16,0.16,0.33,-0.11,5.51,5.51,5.51
127.29,5.29,-0.21,5.29,-0.21,0.21,0.34,-0.07,5.50,5.50,5.50
128.57,5.23,-0.26,5.23,-0.26,0.26,0.35,-0.04,5.49,5.49,5.49
129.85,5.17,-0.31,5.17,-0.32,0.31,0.36,0.00,5.49,5.49,5.49
131.15,5.11,-0.37,5.11,-0.36,0.37,0.37,0.04,5.48,5.48,5.48
132.46,5.06,-0.41,5.06,-0.41,0.41,0.38,0.08,5.47,5.47,5.47
133.79,5.00,-0.46,5.00,-0.46,0.46,0.39,0.11,5.46,5.46,5.46
135.12,4.95,-0.51,4.94,-0.51,0.51,0.40,0.15,5.45,5.45,5.45
136.48,4.89,-0.55,4.89,-0.55,0.55,0.41,0.19,5.44,5.44,5.44
137.84,4.84,-0.60,4.84,-0.60,0.59,0.42,0.23,5.43,5.43,5.44
139.22,4.79,-0.63,4.79,-0.63,0.63,0.44,0.27,5.43,5.43,5.43
140.61,4.75,-0.67,4.75,-0.67,0.67,0.45,0.31,5.42,5.42,5.42
142.02,4.70,-0.71,4.70,-0.71,0.71,0.46,0.35,5.41,5.41,5.41
143.44,4.66,-0.74,4.66,-0.74,0.74,0.48,0.39,5.40,5.40,5.40
144.87,4.62,-0.78,4.62,-0.78,0.78,0.49,0.43,5.39,5.39,5.39
146.32,4.57,-0.81,4.57,-0.81,0.81,0.51,0.47,5.38,5.38,5.38
147.78,4.53,-0.84,4.53,-0.84,0.84,0.52,0.52,5.37,5.37,5.37
149.26,4.49,-0.87,4.49,-0.87,0.87,0.54,0.56,5.36,5.36,5.36
150.75,4.45,-0.90,4.45,-0.90,0.90,0.56,0.60,5.35,5.35,5.35
152.26,4.41,-0.93,4.41,-0.93,0.93,0.58,0.65,5.34,5.34,5.34
153.78,4.37,-0.96,4.37,-0.96,0.96,0.60,0.70,5.33,5.33,5.33
155.32,4.33,-0.99,4.33,-0.99,0.99,0.62,0.74,5.32,5.32,5.32
156.88,4.28,-1.02,4.28,-1.02,1.02,0.64,0.79,5.31,5.31,5.31
158.44,4.24,-1.05,4.24,-1.05,1.05,0.66,0.84,5.29,5.29,5.29
160.03,4.20,-1.09,4.20,-1.09,1.09,0.68,0.89,5.28,5.28,5.28
161.63,4.15,-1.12,4.15,-1.12,1.12,0.71,0.94,5.27,5.27,5.27
163.24,4.10,-1.15,4.10,-1.15,1.15,0.73,0.99,5.26,5.26,5.26
164.88,4.06,-1.19,4.05,-1.19,1.19,0.76,1.04,5.24,5.24,5.24
166.53,4.00,-1.23,4.00,-1.23,1.23,0.79,1.09,5.23,5.23,5.23
168.19,3.95,-1.26,3.95,-1.26,1.26,0.82,1.15,5.22,5.22,5.22
169.87,3.90,-1.30,3.90,-1.30,1.30,0.85,1.20,5.20,5.20,5.20
171.57,3.85,-1.34,3.85,-1.34,1.34,0.88,1.26,5.19,5.19,5.19
173.29,3.79,-1.38,3.79,-1.38,1.38,0.92,1.32,5.17,5.17,5.17
175.02,3.73,-1.42,3.73,-1.42,1.42,0.96,1.38,5.16,5.16,5.16
176.77,3.67,-1.46,3.67,-1.46,1.46,0.99,1.44,5.14,5.14,5.14
178.54,3.62,-1.51,3.62,-1.51,1.51,1.04,1.50,5.12,5.12,5.12
180.32,3.55,-1.55,3.55,-1.55,1.55,1.08,1.56,5.10,5.10,5.10
182.13,3.49,-1.59,3.49,-1.59,1.59,1.13,1.63,5.08,5.08,5.09
183.95,3.43,-1.63,3.43,-1.63,1.63,1.17,1.69,5.06,5.06,5.07
185.79,3.37,-1.67,3.37,-1.67,1.67,1.23,1.76,5.04,5.04,5.05
187.65,3.31,-1.71,3.31,-1.71,1.71,1.28,1.82,5.02,5.02,5.02
189.52,3.25,-1.75,3.25,-1.75,1.75,1.34,1.89,4.99,4.99,5.00
191.42,3.19,-1.79,3.19,-1.79,1.78,1.40,1.96,4.97,4.97,4.98
193.33,3.13,-1.83,3.13,-1.82,1.82,1.47,2.03,4.95,4.95,4.95
195.27,3.07,-1.86,3.07,-1.86,1.86,1.54,2.10,4.92,4.92,4.93
197.22,3.01,-1.90,3.01,-1.90,1.91,1.61,2.17,4.91,4.91,4.91
199.19,2.94,-1.95,2.94,-1.95,1.96,1.69,2.24,4.91,4.91,4.89
201.18,2.88,-2.01,2.88,-2.01,2.03,1.77,2.31,4.91,4.91,4.89
203.19,2.82,-2.08,2.82,-2.08,2.11,1.85,2.39,4.93,4.93,4.90
205.23,2.76,-2.17,2.76,-2.17,2.19,1.94,2.46,4.96,4.96,4.94
207.28,2.70,-2.28,2.70,-2.28,2.28,2.03,2.53,4.99,4.99,4.98
209.35,2.64,-2.39,2.64,-2.39,2.37,2.13,2.61,5.02,5.02,5.03
211.44,2.58,-2.49,2.58,-2.49,2.46,2.22,2.68,5.05,5.05,5.07
213.56,2.52,-2.58,2.52,-2.57,2.55,2.32,2.75,5.07,5.07,5.10
215.69,2.46,-2.64,2.46,-2.64,2.62,2.42,2.82,5.09,5.09,5.10
217.85,2.40,-2.70,2.41,-2.70,2.69,2.52,2.89,5.09,5.09,5.10
220.03,2.35,-2.75,2.35,-2.75,2.75,2.61,2.96,5.09,5.09,5.09
222.23,2.29,-2.79,2.29,-2.79,2.79,2.70,3.02,5.08,5.08,5.07
224.45,2.23,-2.82,2.23,-2.83,2.83,2.78,3.08,5.06,5.06,5.05
226.70,2.17,-2.86,2.17,-2.86,2.87,2.86,3.14,5.04,5.04,5.03
228.96,2.11,-2.90,2.11,-2.90,2.91,2.93,3.20,5.01,5.01,5.01
231.25,2.04,-2.94,2.04,-2.94,2.95,2.98,3.26,4.99,4.99,4.99
233.57,1.98,-2.98,1.98,-2.98,2.99,3.03,3.31,4.97,4.97,4.97
235.90,1.92,-3.02,1.92,-3.02,3.02,3.05,3.36,4.95,4.95,4.94
238.26,1.86,-3.06,1.86,-3.06,3.06,3.08,3.40,4.93,4.93,4.92
240.64,1.80,-3.10,1.80,-3.10,3.10,3.09,3.44,4.90,4.90,4.90
243.05,1.75,-3.14,1.75,-3.13,3.13,3.09,3.48,4.88,4.88,4.88
245.48,1.69,-3.16,1.69,-3.16,3.16,3.08,3.51,4.85,4.85,4.86
247.93,1.65,-3.19,1.65,-3.19,3.18,3.06,3.54,4.83,4.83,4.83
250.41,1.60,-3.20,1.61,-3.20,3.20,3.04,3.56,4.80,4.80,4.81
252.92,1.57,-3.22,1.57,-3.21,3.21,3.02,3.57,4.78,4.78,4.79
255.45,1.55,-3.22,1.55,-3.22,3.21,2.99,3.59,4.76,4.76,4.76
258.00,1.53,-3.21,1.53,-3.21,3.21,2.97,3.60,4.74,4.74,4.74
260.58,1.52,-3.20,1.51,-3.20,3.20,2.94,3.60,4.72,4.72,4.72
263.19,1.50,-3.19,1.50,-3.19,3.20,2.92,3.60,4.70,4.70,4.69
265.82,1.48,-3.19,1.48,-3.19,3.20,2.90,3.60,4.68,4.68,4.67
268.48,1.46,-3.19,1.46,-3.19,3.20,2.89,3.59,4.66,4.66,4.65
271.16,1.42,-3.20,1.42,-3.20,3.21,2.88,3.58,4.63,4.63,4.62
273.87,1.39,-3.21,1.39,-3.21,3.22,2.87,3.57,4.60,4.60,4.60
276.61,1.34,-3.23,1.34,-3.23,3.23,2.88,3.55,4.58,4.58,4.58
279.38,1.30,-3.25,1.30,-3.25,3.25,2.88,3.53,4.55,4.55,4.55
282.17,1.25,-3.28,1.25,-3.28,3.28,2.89,3.51,4.53,4.53,4.53
284.99,1.20,-3.30,1.20,-3.30,3.30,2.91,3.49,4.50,4.50,4.50
287.84,1.15,-3.32,1.15,-3.33,3.32,2.93,3.47,4.48,4.48,4.48
290.72,1.10,-3.35,1.10,-3.35,3.35,2.96,3.44,4.45,4.45,4.45
293.63,1.05,-3.37,1.05,-3.37,3.37,2.99,3.42,4.43,4.43,4.43
296.57,1.01,-3.40,1.01,-3.39,3.39,3.02,3.40,4.40,4.40,4.40
299.53,0.96,-3.41,0.96,-3.42,3.42,3.06,3.37,4.37,4.37,4.37
302.53,0.91,-3.44,0.91,-3.44,3.44,3.10,3.35,4.35,4.35,4.35
305.55,0.86,-3.46,0.86,-3.46,3.46,3.15,3.32,4.32,4.32,4.32
308.61,0.82,-3.48,0.82,-3.48,3.48,3.20,3.30,4.30,4.30,4.30
311.69,0.77,-3.50,0.77,-3.50,3.50,3.25,3.28,4.27,4.27,4.27
314.81,0.73,-3.52,0.73,-3.52,3.51,3.31,3.26,4.24,4.24,4.24
317.96,0.68,-3.53,0.68,-3.53,3.53,3.36,3.24,4.22,4.22,4.22
321.14,0.64,-3.55,0.64,-3.55,3.55,3.42,3.23,4.19,4.19,4.19
324.35,0.60,-3.56,0.60,-3.56,3.56,3.48,3.21,4.16,4.16,4.16
327.59,0.56,-3.57,0.56,-3.57,3.58,3.54,3.20,4.13,4.13,4.13
330.87,0.51,-3.59,0.51,-3.59,3.59,3.60,3.19,4.10,4.10,4.10
334.18,0.47,-3.60,0.47,-3.60,3.60,3.65,3.18,4.07,4.07,4.07
337.52,0.43,-3.61,0.43,-3.61,3.61,3.71,3.17,4.04,4.04,4.04
340.90,0.39,-3.62,0.39,-3.62,3.62,3.76,3.17,4.01,4.01,4.01
344.30,0.35,-3.63,0.35,-3.63,3.63,3.81,3.17,3.98,3.98,3.98
347.75,0.31,-3.64,0.31,-3.64,3.63,3.86,3.17,3.94,3.94,3.95
351.23,0.27,-3.64,0.27,-3.64,3.64,3.90,3.17,3.91,3.91,3.91
354.74,0.23,-3.64,0.23,-3.64,3.64,3.94,3.18,3.88,3.88,3.88
358.28,0.20,-3.64,0.20,-3.65,3.65,3.97,3.18,3.84,3.84,3.84
361.87,0.16,-3.65,0.16,-3.65,3.65,4.00,3.20,3.81,3.81,3.81
365.49,0.12,-3.66,0.12,-3.66,3.66,4.03,3.21,3.78,3.78,3.78
369.14,0.08,-3.67,0.08,-3.67,3.67,4.04,3.22,3.76,3.76,3.75
372.83,0.05,-3.68,0.05,-3.68,3.69,4.05,3.24,3.74,3.74,3.73
376.56,0.01,-3.70,0.01,-3.70,3.71,4.06,3.26,3.72,3.72,3.71
380.33,-0.02,-3.72,-0.02,-3.73,3.73,4.06,3.29,3.71,3.71,3.70
384.13,-0.06,-3.75,-0.06,-3.75,3.75,4.05,3.31,3.69,3.69,3.69
387.97,-0.09,-3.78,-0.09,-3.77,3.77,4.04,3.34,3.67,3.67,3.68
391.85,-0.13,-3.79,-0.13,-3.79,3.78,4.03,3.37,3.66,3.66,3.66
395.77,-0.16,-3.80,-0.16,-3.80,3.79,4.01,3.40,3.63,3.63,3.64
399.73,-0.19,-3.81,-0.19,-3.80,3.80,3.98,3.43,3.61,3.61,3.61
403.72,-0.23,-3.80,-0.23,-3.80,3.80,3.96,3.46,3.58,3.58,3.58
407.76,-0.26,-3.80,-0.26,-3.80,3.80,3.93,3.50,3.54,3.54,3.54
411.84,-0.29,-3.80,-0.29,-3.80,3.80,3.90,3.53,3.51,3.51,3.51
415.96,-0.32,-3.79,-0.32,-3.79,3.79,3.86,3.57,3.47,3.47,3.47
420.12,-0.35,-3.78,-0.35,-3.78,3.79,3.83,3.60,3.43,3.43,3.43
424.32,-0.38,-3.78,-0.38,-3.78,3.78,3.79,3.64,3.40,3.40,3.40
428.56,-0.41,-3.78,-0.41,-3.78,3.78,3.76,3.68,3.36,3.36,3.36
432.85,-0.44,-3.77,-0.44,-3.77,3.77,3.72,3.71,3.33,3.33,3.33
437.18,-0.47,-3.77,-0.47,-3.77,3.77,3.69,3.75,3.30,3.30,3.30
441.55,-0.50,-3.76,-0.50,-3.76,3.76,3.66,3.78,3.26,3.26,3.26
445.96,-0.53,-3.76,-0.53,-3.76,3.76,3.63,3.81,3.23,3.23,3.23
450.42,-0.56,-3.75,-0.56,-3.75,3.75,3.60,3.84,3.19,3.19,3.20
454.93,-0.59,-3.75,-0.59,-3.75,3.75,3.57,3.87,3.16,3.16,3.16
459.48,-0.61,-3.74,-0.61,-3.74,3.74,3.55,3.90,3.12,3.12,3.12
464.07,-0.64,-3.73,-0.64,-3.73,3.72,3.53,3.92,3.08,3.08,3.09
468.71,-0.67,-3.71,-0.67,-3.71,3.71,3.51,3.93,3.05,3.05,3.05
473.40,-0.69,-3.70,-0.69,-3.70,3.70,3.49,3.95,3.01,3.01,3.01
478.13,-0.72,-3.68,-0.72,-3.68,3.68,3.48,3.96,2.97,2.97,2.97
482.91,-0.74,-3.67,-0.74,-3.67,3.67,3.46,3.96,2.93,2.93,2.93
487.74,-0.77,-3.65,-0.77,-3.65,3.65,3.45,3.96,2.89,2.89,2.89
492.62,-0.79,-3.64,-0.79,-3.63,3.63,3.44,3.96,2.85,2.85,2.85
497.55,-0.81,-3.62,-0.81,-3.62,3.62,3.43,3.95,2.80,2.80,2.80
502.52,-0.84,-3.60,-0.84,-3.60,3.60,3.42,3.94,2.76,2.76,2.76
507.55,-0.86,-3.58,-0.86,-3.58,3.58,3.41,3.92,2.72,2.72,2.72
512.62,-0.88,-3.56,-0.88,-3.56,3.56,3.39,3.89,2.68,2.68,2.68
517.75,-0.90,-3.54,-0.90,-3.54,3.54,3.38,3.86,2.64,2.64,2.64
522.93,-0.92,-3.52,-0.92,-3.52,3.52,3.37,3.83,2.59,2.59,2.59
528.16,-0.94,-3.49,-0.94,-3.49,3.49,3.35,3.79,2.55,2.55,2.55
533.44,-0.96,-3.47,-0.96,-3.47,3.47,3.33,3.75,2.51,2.51,2.51
538.77,-0.98,-3.45,-0.98,-3.45,3.44,3.31,3.70,2.46,2.46,2.46
544.16,-1.00,-3.42,-1.00,-3.42,3.42,3.29,3.65,2.42,2.42,2.42
549.60,-1.02,-3.40,-1.02,-3.39,3.39,3.26,3.60,2.37,2.37,2.37
