frequency,raw,error,smoothed,error_smoothed,equalization,parametric_eq,fixed_band_eq,equalized_raw,equalized_smoothed,target
20.00,6.71,-7.27,6.71,-7.30,6.00,5.94,2.89,12.71,12.71,13.98
20.20,6.79,-7.02,6.79,-6.99,6.00,5.95,2.97,12.79,12.79,13.81
20.40,6.85,-6.79,6.86,-6.75,6.00,5.97,3.06,12.85,12.86,13.64
20.61,6.91,-6.57,6.91,-6.58,6.00,5.98,3.15,12.91,12.91,13.48
20.81,6.95,-6.44,6.95,-6.45,6.00,5.99,3.23,12.95,12.95,13.39
21.02,6.97,-6.41,6.97,-6.41,6.00,6.00,3.33,12.97,12.97,13.38
21.23,6.98,-6.47,6.98,-6.49,6.00,6.01,3.42,12.98,12.98,13.45
21.44,6.98,-6.66,6.98,-6.67,6.00,6.02,3.52,12.98,12.98,13.64
21.66,6.97,-6.92,6.97,-6.91,6.00,6.02,3.62,12.97,12.97,13.89
21.87,6.97,-7.17,6.97,-7.17,6.00,6.03,3.72,12.97,12.97,14.15
22.09,6.99,-7.37,6.99,-7.37,6.00,6.03,3.83,12.99,12.99,14.36
22.31,7.02,-7.50,7.02,-7.49,6.00,6.03,3.94,13.02,13.02,14.52
22.54,7.07,-7.51,7.07,-7.50,6.01,6.04,4.05,13.08,13.08,14.58
22.76,7.14,-7.41,7.14,-7.39,6.01,6.04,4.16,13.15,13.15,14.54
22.99,7.22,-7.19,7.22,-7.17,6.00,6.04,4.28,13.21,13.21,14.40
23.22,7.30,-6.87,7.29,-6.87,5.99,6.03,4.40,13.28,13.28,14.17
23.45,7.37,-6.54,7.37,-6.54,5.98,6.03,4.52,13.35,13.35,13.91
23.69,7.43,-6.24,7.43,-6.24,5.97,6.03,4.65,13.40,13.40,13.66
23.92,7.47,-6.00,7.47,-6.01,5.97,6.02,4.78,13.44,13.44,13.47
24.16,7.50,-5.88,7.50,-5.90,5.97,6.02,4.91,13.47,13.46,13.38
24.40,7.51,-5.89,7.51,-5.90,5.97,6.01,5.04,13.48,13.48,13.40
24.65,7.51,-5.99,7.51,-5.99,5.97,6.00,5.18,13.48,13.48,13.50
24.89,7.51,-6.14,7.51,-6.13,5.97,6.00,5.31,13.48,13.48,13.65
25.14,7.51,-6.28,7.51,-6.28,5.98,5.99,5.45,13.49,13.49,13.78
25.39,7.51,-6.40,7.51,-6.38,5.99,5.98,5.59,13.50,13.50,13.91
25.65,7.52,-6.43,7.52,-6.43,6.00,5.97,5.73,13.52,13.52,13.94
25.91,7.54,-6.41,7.54,-6.41,6.02,5.96,5.87,13.55,13.55,13.95
26.16,7.57,-6.35,7.57,-6.34,6.01,5.96,6.01,13.58,13.58,13.91
26.43,7.61,-6.25,7.61,-6.25,6.00,5.95,6.15,13.61,13.61,13.86
26.69,7.67,-6.14,7.67,-6.14,5.98,5.94,6.29,13.65,13.65,13.81
26.96,7.73,-6.04,7.73,-6.04,5.96,5.93,6.43,13.70,13.70,13.77
27.23,7.80,-5.96,7.80,-5.97,5.95,5.92,6.56,13.75,13.75,13.76
27.50,7.86,-5.92,7.86,-5.92,5.93,5.91,6.70,13.80,13.80,13.78
27.77,7.92,-5.89,7.92,-5.89,5.93,5.91,6.82,13.84,13.84,13.81
28.05,7.96,-5.89,7.95,-5.89,5.92,5.90,6.95,13.88,13.88,13.84
28.33,7.98,-5.90,7.98,-5.90,5.92,5.89,7.06,13.90,13.90,13.88
28.62,7.99,-5.92,7.99,-5.92,5.93,5.89,7.17,13.92,13.92,13.91
28.90,7.99,-5.95,7.99,-5.95,5.94,5.89,7.27,13.93,13.93,13.94
29.19,7.98,-6.00,7.98,-6.00,5.96,5.88,7.36,13.94,13.94,13.98
29.48,7.98,-6.05,7.98,-6.06,5.98,5.88,7.44,13.96,13.96,14.03
29.78,7.98,-6.13,7.98,-6.13,5.99,5.88,7.51,13.97,13.97,14.11
30.08,7.98,-6.20,7.99,-6.20,6.00,5.88,7.57,13.99,13.99,14.19
30.38,7.99,-6.27,7.99,-6.27,6.01,5.89,7.62,14.00,14.00,14.26
30.68,7.99,-6.33,7.99,-6.32,6.01,5.89,7.65,14.00,14.00,14.32
30.99,7.99,-6.35,7.99,-6.34,6.00,5.90,7.68,14.00,14.00,14.34
31.30,7.99,-6.33,7.99,-6.33,6.00,5.91,7.68,13.99,13.99,14.32
31.61,8.00,-6.28,8.00,-6.27,6.00,5.92,7.68,14.00,14.00,14.28
31.93,8.01,-6.20,8.01,-6.20,6.00,5.93,7.65,14.01,14.01,14.21
32.24,8.04,-6.12,8.04,-6.12,6.00,5.94,7.63,14.04,14.04,14.15
32.57,8.07,-6.05,8.07,-6.05,6.00,5.96,7.58,14.07,14.07,14.12
32.89,8.11,-6.01,8.11,-6.02,6.00,5.97,7.52,14.11,14.11,14.12
33.22,8.15,-6.02,8.15,-6.02,6.00,5.99,7.45,14.15,14.15,14.17
33.55,8.19,-6.04,8.19,-6.04,6.00,6.01,7.38,14.19,14.19,14.23
33.89,8.23,-6.08,8.23,-6.07,6.00,6.03,7.29,14.23,14.23,14.31
34.23,8.27,-6.11,8.27,-6.11,6.00,6.04,7.19,14.27,14.27,14.38
34.57,8.31,-6.14,8.31,-6.14,6.00,6.06,7.08,14.31,14.31,14.45
34.92,8.35,-6.17,8.35,-6.17,6.00,6.08,6.97,14.35,14.35,14.52
35.27,8.40,-6.21,8.40,-6.21,6.00,6.10,6.86,14.40,14.40,14.60
35.62,8.44,-6.26,8.44,-6.26,6.00,6.11,6.73,14.44,14.44,14.70
35.97,8.47,-6.32,8.47,-6.32,6.00,6.12,6.61,14.47,14.47,14.80
36.33,8.50,-6.39,8.50,-6.39,6.00,6.13,6.48,14.50,14.50,14.89
36.70,8.52,-6.45,8.52,-6.45,6.00,6.13,6.35,14.52,14.52,14.97
37.06,8.53,-6.49,8.53,-6.49,6.00,6.13,6.22,14.53,14.53,15.02
37.43,8.54,-6.52,8.54,-6.52,6.00,6.12,6.08,14.54,14.54,15.05
37.81,8.54,-6.52,8.54,-6.53,6.00,6.10,5.95,14.54,14.54,15.06
38.19,8.54,-6.53,8.54,-6.53,6.01,6.08,5.81,14.54,14.55,15.07
38.57,8.55,-6.51,8.55,-6.51,6.02,6.05,5.68,14.56,14.57,15.06
38.95,8.56,-6.47,8.56,-6.47,6.03,6.01,5.55,14.59,14.59,15.03
39.34,8.59,-6.41,8.59,-6.41,6.03,5.96,5.42,14.61,14.61,15.00
39.74,8.61,-6.32,8.61,-6.32,6.01,5.90,5.29,14.62,14.62,14.93
40.14,8.63,-6.20,8.62,-6.21,5.98,5.83,5.17,14.61,14.60,14.83
40.54,8.63,-6.07,8.63,-6.07,5.93,5.76,5.04,14.56,14.56,14.70
40.94,8.63,-5.92,8.63,-5.92,5.85,5.67,4.92,14.47,14.48,14.55
41.35,8.62,-5.77,8.62,-5.77,5.75,5.58,4.80,14.37,14.37,14.39
41.76,8.62,-5.61,8.62,-5.61,5.62,5.49,4.69,14.24,14.25,14.23
42.18,8.63,-5.45,8.63,-5.45,5.48,5.38,4.57,14.11,14.11,14.08
42.60,8.64,-5.29,8.64,-5.29,5.31,5.27,4.46,13.95,13.95,13.93
43.03,8.66,-5.14,8.66,-5.14,5.14,5.16,4.36,13.79,13.79,13.80
43.46,8.67,-4.99,8.68,-4.98,4.96,5.05,4.25,13.64,13.64,13.66
43.90,8.69,-4.82,8.69,-4.82,4.80,4.93,4.15,13.49,13.49,13.51
44.33,8.71,-4.64,8.71,-4.64,4.66,4.81,4.05,13.37,13.37,13.35
44.78,8.72,-4.48,8.71,-4.49,4.53,4.69,3.96,13.25,13.24,13.20
45.23,8.71,-4.35,8.71,-4.36,4.42,4.57,3.87,13.13,13.12,13.06
45.68,8.69,-4.27,8.69,-4.28,4.32,4.45,3.78,13.01,13.01,12.96
46.13,8.66,-4.23,8.66,-4.23,4.24,4.33,3.69,12.89,12.90,12.89
46.60,8.64,-4.18,8.64,-4.18,4.16,4.22,3.61,12.80,12.80,12.82
47.06,8.62,-4.12,8.62,-4.12,4.09,4.10,3.53,12.71,12.72,12.75
47.53,8.61,-4.05,8.61,-4.05,4.02,3.99,3.45,12.63,12.63,12.66
48.01,8.61,-3.96,8.60,-3.96,3.94,3.87,3.38,12.54,12.54,12.57
48.49,8.59,-3.87,8.59,-3.87,3.84,3.76,3.31,12.43,12.43,12.46
48.97,8.57,-3.75,8.57,-3.75,3.73,3.66,3.24,12.30,12.30,12.32
49.46,8.54,-3.63,8.55,-3.62,3.62,3.55,3.17,12.16,12.16,12.17
49.96,8.53,-3.48,8.53,-3.49,3.50,3.45,3.11,12.03,12.03,12.01
50.46,8.53,-3.36,8.53,-3.36,3.39,3.35,3.05,11.92,11.92,11.89
50.96,8.53,-3.25,8.53,-3.25,3.29,3.25,2.98,11.82,11.82,11.78
51.47,8.54,-3.16,8.54,-3.16,3.19,3.16,2.93,11.73,11.73,11.70
51.99,8.56,-3.08,8.56,-3.09,3.09,3.07,2.87,11.64,11.64,11.64
52.51,8.57,-3.02,8.57,-3.02,2.98,2.98,2.82,11.56,11.56,11.59
53.03,8.59,-2.95,8.60,-2.95,2.88,2.89,2.76,11.48,11.48,11.55
53.56,8.63,-2.86,8.63,-2.85,2.79,2.80,2.71,11.42,11.42,11.49
54.10,8.67,-2.73,8.67,-2.72,2.71,2.72,2.66,11.38,11.38,11.39
54.64,8.70,-2.58,8.70,-2.58,2.65,2.64,2.61,11.35,11.35,11.28
55.18,8.71,-2.45,8.71,-2.48,2.59,2.56,2.56,11.30,11.29,11.16
55.74,8.69,-2.44,8.69,-2.45,2.53,2.48,2.52,11.21,11.21,11.13
56.29,8.65,-2.47,8.65,-2.47,2.46,2.41,2.47,11.11,11.11,11.12
56.86,8.59,-2.52,8.60,-2.49,2.40,2.33,2.42,11.00,11.00,11.12
57.42,8.56,-2.47,8.56,-2.46,2.35,2.26,2.38,10.91,10.92,11.03
58.00,8.54,-2.37,8.54,-2.36,2.31,2.19,2.33,10.85,10.86,10.91
58.58,8.54,-2.22,8.54,-2.23,2.27,2.12,2.29,10.81,10.81,10.76
59.16,8.54,-2.09,8.53,-2.12,2.22,2.05,2.24,10.76,10.75,10.63
59.76,8.53,-2.06,8.52,-2.07,2.14,1.99,2.20,10.67,10.67,10.59
60.35,8.51,-2.06,8.50,-2.07,2.05,1.92,2.15,10.55,10.55,10.57
60.96,8.48,-2.06,8.48,-2.04,1.94,1.86,2.10,10.42,10.42,10.54
61.57,8.46,-1.98,8.46,-1.95,1.84,1.80,2.06,10.30,10.30,10.44
62.18,8.46,-1.81,8.46,-1.81,1.75,1.74,2.01,10.21,10.21,10.27
62.80,8.48,-1.61,8.48,-1.63,1.67,1.68,1.96,10.15,10.15,10.09
63.43,8.50,-1.48,8.50,-1.49,1.60,1.62,1.91,10.10,10.10,9.99
64.07,8.52,-1.40,8.52,-1.42,1.54,1.56,1.87,10.07,10.06,9.92
64.71,8.51,-1.42,8.51,-1.41,1.50,1.51,1.82,10.01,10.01,9.93
65.35,8.48,-1.45,8.48,-1.45,1.46,1.45,1.77,9.94,9.94,9.93
66.01,8.43,-1.50,8.44,-1.49,1.44,1.40,1.72,9.87,9.87,9.93
66.67,8.39,-1.50,8.39,-1.50,1.40,1.34,1.66,9.79,9.79,9.89
67.33,8.36,-1.47,8.36,-1.47,1.36,1.29,1.61,9.71,9.72,9.83
68.01,8.34,-1.40,8.35,-1.38,1.29,1.24,1.56,9.63,9.64,9.74
68.69,8.36,-1.25,8.36,-1.24,1.21,1.18,1.51,9.57,9.57,9.61
69.37,8.38,-1.09,8.38,-1.09,1.13,1.13,1.45,9.51,9.51,9.47
70.07,8.40,-0.94,8.39,-0.95,1.05,1.08,1.40,9.45,9.45,9.34
70.77,8.39,-0.86,8.39,-0.87,1.00,1.03,1.34,9.39,9.38,9.25
71.48,8.36,-0.85,8.36,-0.85,0.96,0.99,1.29,9.32,9.32,9.21
72.19,8.31,-0.88,8.30,-0.89,0.93,0.94,1.24,9.24,9.24,9.19
72.91,8.24,-0.95,8.24,-0.95,0.91,0.89,1.18,9.16,9.16,9.19
73.64,8.19,-0.99,8.19,-0.98,0.88,0.84,1.12,9.07,9.08,9.18
74.38,8.16,-0.97,8.17,-0.96,0.84,0.79,1.07,9.00,9.00,9.14
75.12,8.17,-0.89,8.18,-0.87,0.76,0.75,1.01,8.94,8.94,9.06
75.87,8.23,-0.71,8.23,-0.71,0.66,0.70,0.96,8.89,8.89,8.94
76.63,8.29,-0.53,8.29,-0.53,0.55,0.66,0.90,8.84,8.84,8.82
77.40,8.37,-0.33,8.36,-0.35,0.42,0.61,0.84,8.78,8.78,8.70
78.17,8.40,-0.21,8.40,-0.21,0.29,0.57,0.79,8.70,8.70,8.61
78.95,8.42,-0.11,8.42,-0.12,0.19,0.52,0.73,8.61,8.61,8.54
79.74,8.40,-0.07,8.40,-0.07,0.10,0.48,0.68,8.50,8.50,8.47
80.54,8.35,-0.06,8.35,-0.05,0.04,0.43,0.62,8.39,8.39,8.40
81.35,8.28,-0.04,8.28,-0.04,0.01,0.39,0.56,8.29,8.29,8.33
82.16,8.21,-0.04,8.21,-0.03,-0.01,0.34,0.51,8.20,8.20,8.25
82.98,8.14,-0.02,8.14,-0.02,-0.01,0.30,0.45,8.13,8.13,8.16
83.81,8.08,-0.01,8.08,-0.00,0.00,0.26,0.40,8.08,8.09,8.09
84.65,8.03,0.01,8.03,0.01,0.04,0.21,0.34,8.07,8.07,8.02
85.50,8.00,0.00,8.00,-0.01,0.08,0.17,0.29,8.08,8.08,8.00
86.35,7.97,-0.04,7.97,-0.06,0.13,0.13,0.23,8.10,8.10,8.01
87.22,7.94,-0.15,7.94,-0.15,0.18,0.08,0.17,8.12,8.12,8.09
88.09,7.91,-0.26,7.91,-0.25,0.21,0.04,0.12,8.12,8.12,8.17
88.97,7.88,-0.31,7.88,-0.31,0.22,-0.01,0.06,8.10,8.10,8.19
89.86,7.84,-0.33,7.84,-0.31,0.20,-0.05,0.01,8.04,8.04,8.17
90.76,7.80,-0.25,7.79,-0.25,0.16,-0.09,-0.05,7.95,7.95,8.05
91.66,7.75,-0.12,7.75,-0.12,0.09,-0.14,-0.11,7.84,7.84,7.87
92.58,7.70,0.03,7.70,0.03,0.00,-0.18,-0.16,7.70,7.70,7.67
93.51,7.66,0.18,7.66,0.17,-0.10,-0.23,-0.22,7.56,7.56,7.48
94.44,7.63,0.29,7.63,0.28,-0.20,-0.28,-0.27,7.43,7.42,7.34
95.39,7.60,0.35,7.60,0.35,-0.29,-0.32,-0.33,7.31,7.31,7.25
96.34,7.59,0.39,7.59,0.39,-0.37,-0.37,-0.39,7.22,7.22,7.20
97.30,7.59,0.41,7.59,0.42,-0.43,-0.42,-0.44,7.16,7.16,7.17
98.28,7.59,0.45,7.59,0.45,-0.48,-0.47,-0.50,7.12,7.11,7.14
99.26,7.60,0.49,7.60,0.49,-0.52,-0.52,-0.55,7.08,7.08,7.11
100.25,7.60,0.55,7.60,0.55,-0.57,-0.58,-0.61,7.03,7.03,7.05
101.25,7.60,0.61,7.60,0.61,-0.63,-0.64,-0.66,6.97,6.97,6.99
102.27,7.60,0.68,7.60,0.69,-0.70,-0.70,-0.72,6.90,6.90,6.91
103.29,7.60,0.77,7.60,0.77,-0.77,-0.76,-0.77,6.83,6.83,6.83
104.32,7.60,0.85,7.60,0.85,-0.85,-0.82,-0.83,6.76,6.76,6.75
105.37,7.60,0.93,7.60,0.93,-0.92,-0.89,-0.88,6.69,6.69,6.67
106.42,7.60,1.00,7.60,1.00,-0.98,-0.96,-0.93,6.61,6.61,6.60
107.48,7.58,1.05,7.58,1.05,-1.04,-1.03,-0.99,6.54,6.54,6.53
108.56,7.56,1.10,7.56,1.10,-1.09,-1.10,-1.04,6.47,6.47,6.46
109.64,7.52,1.13,7.53,1.13,-1.12,-1.17,-1.09,6.40,6.41,6.39
110.74,7.48,1.16,7.48,1.16,-1.14,-1.23,-1.13,6.33,6.33,6.32
111.85,7.41,1.18,7.41,1.17,-1.16,-1.28,-1.18,6.25,6.25,6.24
112.97,7.33,1.18,7.33,1.18,-1.18,-1.31,-1.23,6.15,6.15,6.16
114.10,7.25,1.18,7.25,1.18,-1.21,-1.34,-1.27,6.05,6.05,6.07
115.24,7.18,1.19,7.18,1.20,-1.23,-1.35,-1.31,5.94,5.95,5.98
116.39,7.12,1.24,7.12,1.24,-1.26,-1.36,-1.35,5.85,5.85,5.88
117.55,7.07,1.28,7.07,1.28,-1.29,-1.36,-1.39,5.77,5.78,5.78
118.73,7.04,1.33,7.04,1.34,-1.32,-1.36,-1.43,5.72,5.72,5.71
119.92,7.03,1.38,7.03,1.38,-1.35,-1.37,-1.46,5.68,5.68,5.65
121.12,7.02,1.42,7.02,1.41,-1.37,-1.37,-1.49,5.65,5.65,5.60
122.33,7.02,1.43,7.02,1.42,-1.39,-1.38,-1.52,5.63,5.63,5.59
123.55,7.02,1.41,7.02,1.41,-1.41,-1.39,-1.55,5.61,5.61,5.61
124.79,7.03,1.39,7.04,1.40,-1.43,-1.40,-1.57,5.60,5.60,5.64
126.03,7.05,1.40,7.05,1.41,-1.46,-1.42,-1.60,5.59,5.59,5.65
127.29,7.06,1.44,7.05,1.45,-1.49,-1.44,-1.61,5.56,5.56,5.61
128.57,7.04,1.51,7.04,1.51,-1.53,-1.46,-1.63,5.51,5.51,5.53
129.85,7.00,1.58,7.01,1.59,-1.57,-1.48,-1.64,5.43,5.44,5.42
131.15,6.96,1.66,6.96,1.65,-1.60,-1.50,-1.66,5.36,5.35,5.30
132.46,6.89,1.68,6.89,1.68,-1.64,-1.52,-1.67,5.26,5.26,5.21
133.79,6.82,1.68,6.82,1.69,-1.66,-1.55,-1.68,5.16,5.16,5.13
135.12,6.74,1.68,6.74,1.68,-1.67,-1.58,-1.68,5.07,5.07,5.06
136.48,6.67,1.67,6.67,1.67,-1.67,-1.60,-1.69,5.00,5.00,5.00
137.84,6.61,1.66,6.61,1.66,-1.67,-1.63,-1.69,4.94,4.94,4.94
139.22,6.56,1.65,6.56,1.65,-1.67,-1.65,-1.69,4.89,4.89,4.91
140.61,6.52,1.65,6.52,1.66,-1.68,-1.68,-1.69,4.84,4.84,4.86
142.02,6.48,1.67,6.48,1.67,-1.70,-1.71,-1.69,4.78,4.78,4.81
143.44,6.44,1.70,6.44,1.71,-1.74,-1.73,-1.69,4.71,4.70,4.74
144.87,6.41,1.76,6.41,1.76,-1.78,-1.76,-1.69,4.63,4.63,4.65
146.32,6.38,1.82,6.38,1.82,-1.82,-1.79,-1.69,4.56,4.56,4.56
147.78,6.35,1.88,6.35,1.88,-1.85,-1.81,-1.69,4.50,4.50,4.47
149.26,6.33,1.92,6.33,1.92,-1.88,-1.84,-1.69,4.45,4.45,4.40
150.75,6.30,1.94,6.30,1.94,-1.89,-1.87,-1.69,4.41,4.41,4.36
152.26,6.27,1.94,6.27,1.93,-1.89,-1.89,-1.69,4.38,4.38,4.34
153.78,6.23,1.90,6.23,1.90,-1.89,-1.92,-1.68,4.35,4.34,4.33
155.32,6.19,1.86,6.19,1.86,-1.88,-1.94,-1.69,4.31,4.31,4.33
156.88,6.14,1.83,6.14,1.83,-1.87,-1.97,-1.69,4.27,4.27,4.31
158.44,6.10,1.83,6.10,1.83,-1.88,-1.99,-1.69,4.22,4.22,4.27
160.03,6.06,1.85,6.06,1.85,-1.89,-2.01,-1.69,4.17,4.17,4.21
161.63,6.03,1.90,6.03,1.90,-1.92,-2.03,-1.69,4.11,4.11,4.13
163.24,6.00,1.96,6.01,1.96,-1.96,-2.06,-1.70,4.04,4.04,4.04
164.88,5.98,2.03,5.98,2.03,-2.01,-2.08,-1.71,3.97,3.97,3.95
166.53,5.94,2.08,5.94,2.08,-2.06,-2.10,-1.71,3.88,3.88,3.85
168.19,5.90,2.13,5.90,2.13,-2.10,-2.11,-1.72,3.80,3.80,3.77
169.87,5.85,2.15,5.85,2.15,-2.13,-2.13,-1.73,3.72,3.72,3.69
171.57,5.80,2.16,5.80,2.16,-2.15,-2.15,-1.74,3.65,3.65,3.64
173.29,5.75,2.16,5.75,2.16,-2.16,-2.17,-1.76,3.59,3.59,3.59
175.02,5.71,2.16,5.71,2.16,-2.17,-2.18,-1.77,3.55,3.55,3.55
176.77,5.68,2.16,5.68,2.16,-2.17,-2.20,-1.79,3.51,3.51,3.52
178.54,5.64,2.16,5.64,2.16,-2.18,-2.21,-1.81,3.46,3.46,3.47
180.32,5.60,2.17,5.60,2.17,-2.19,-2.23,-1.83,3.41,3.41,3.42
182.13,5.55,2.19,5.55,2.19,-2.21,-2.24,-1.85,3.34,3.34,3.36
183.95,5.50,2.22,5.50,2.22,-2.23,-2.25,-1.87,3.27,3.27,3.28
185.79,5.45,2.25,5.45,2.25,-2.26,-2.26,-1.89,3.19,3.19,3.20
187.65,5.40,2.29,5.40,2.29,-2.29,-2.27,-1.92,3.11,3.11,3.11
189.52,5.35,2.33,5.35,2.33,-2.31,-2.27,-1.94,3.04,3.04,3.02
191.42,5.31,2.36,5.31,2.35,-2.33,-2.28,-1.97,2.97,2.98,2.95
193.33,5.26,2.37,5.26,2.36,-2.35,-2.29,-2.00,2.91,2.91,2.90
195.27,5.22,2.36,5.22,2.36,-2.36,-2.29,-2.03,2.86,2.86,2.86
197.22,5.17,2.36,5.17,2.36,-2.37,-2.29,-2.06,2.80,2.80,2.82
199.19,5.13,2.36,5.13,2.36,-2.37,-2.29,-2.09,2.75,2.75,2.77
201.18,5.07,2.36,5.07,2.37,-2.37,-2.30,-2.12,2.70,2.70,2.71
203.19,5.02,2.37,5.02,2.37,-2.37,-2.29,-2.15,2.65,2.65,2.65
205.23,4.97,2.38,4.97,2.38,-2.37,-2.29,-2.19,2.60,2.60,2.59
207.28,4.92,2.37,4.92,2.37,-2.36,-2.29,-2.22,2.56,2.56,2.55
209.35,4.87,2.36,4.87,2.36,-2.36,-2.29,-2.25,2.51,2.51,2.51
211.44,4.82,2.35,4.82,2.35,-2.35,-2.28,-2.28,2.47,2.47,2.48
213.56,4.77,2.34,4.77,2.34,-2.34,-2.27,-2.32,2.43,2.43,2.44
215.69,4.72,2.33,4.72,2.33,-2.33,-2.27,-2.35,2.39,2.39,2.40
217.85,4.67,2.32,4.67,2.32,-2.32,-2.26,-2.38,2.36,2.36,2.36
220.03,4.62,2.31,4.62,2.31,-2.30,-2.25,-2.40,2.32,2.32,2.32
222.23,4.57,2.29,4.57,2.29,-2.29,-2.24,-2.43,2.28,2.28,2.28
224.45,4.51,2.27,4.51,2.27,-2.27,-2.22,-2.45,2.24,2.24,2.24
226.70,4.46,2.26,4.46,2.26,-2.26,-2.21,-2.47,2.20,2.20,2.20
228.96,4.40,2.24,4.40,2.24,-2.24,-2.19,-2.49,2.16,2.16,2.17
231.25,4.35,2.22,4.35,2.22,-2.22,-2.18,-2.51,2.13,2.13,2.13
233.57,4.29,2.20,4.29,2.20,-2.20,-2.16,-2.52,2.09,2.09,2.09
235.90,4.24,2.18,4.24,2.18,-2.18,-2.14,-2.53,2.06,2.06,2.06
238.26,4.18,2.16,4.18,2.16,-2.16,-2.12,-2.53,2.02,2.02,2.02
240.64,4.13,2.14,4.13,2.14,-2.14,-2.10,-2.53,1.99,1.99,1.99
243.05,4.07,2.12,4.07,2.12,-2.11,-2.08,-2.53,1.95,1.95,1.95
245.48,4.01,2.09,4.01,2.09,-2.09,-2.06,-2.52,1.92,1.92,1.92
247.93,3.95,2.06,3.95,2.06,-2.06,-2.03,-2.51,1.89,1.89,1.89
250.41,3.89,2.03,3.89,2.03,-2.02,-2.01,-2.49,1.86,1.86,1.86
252.92,3.83,1.99,3.83,1.99,-1.99,-1.98,-2.47,1.84,1.84,1.83
255.45,3.76,1.95,3.76,1.95,-1.95,-1.95,-2.44,1.82,1.82,1.81
258.00,3.70,1.91,3.70,1.91,-1.91,-1.92,-2.41,1.80,1.80,1.79
260.58,3.64,1.86,3.64,1.86,-1.86,-1.89,-2.37,1.78,1.78,1.78
263.19,3.58,1.82,3.58,1.82,-1.82,-1.86,-2.33,1.76,1.76,1.76
265.82,3.51,1.77,3.51,1.78,-1.78,-1.83,-2.29,1.74,1.74,1.74
268.48,3.45,1.73,3.45,1.73,-1.73,-1.80,-2.24,1.72,1.72,1.71
271.16,3.38,1.69,3.38,1.69,-1.69,-1.76,-2.19,1.69,1.69,1.69
273.87,3.32,1.65,3.32,1.65,-1.65,-1.73,-2.13,1.67,1.67,1.67
276.61,3.26,1.61,3.26,1.61,-1.62,-1.69,-2.07,1.64,1.64,1.65
279.38,3.21,1.58,3.21,1.58,-1.59,-1.66,-2.01,1.62,1.62,1.63
282.17,3.17,1.56,3.17,1.56,-1.57,-1.62,-1.94,1.61,1.60,1.61
284.99,3.14,1.54,3.14,1.54,-1.55,-1.58,-1.88,1.59,1.59,1.60
287.84,3.12,1.53,3.12,1.53,-1.53,-1.54,-1.80,1.59,1.59,1.59
290.72,3.10,1.52,3.10,1.52,-1.52,-1.50,-1.73,1.58,1.58,1.58
293.63,3.09,1.51,3.09,1.51,-1.51,-1.46,-1.66,1.58,1.58,1.58
296.57,3.07,1.50,3.07,1.50,-1.49,-1.42,-1.58,1.58,1.58,1.57
299.53,3.05,1.48,3.05,1.48,-1.47,-1.38,-1.50,1.58,1.58,1.57
302.53,3.02,1.45,3.02,1.45,-1.44,-1.33,-1.43,1.57,1.57,1.56
305.55,2.98,1.42,2.98,1.42,-1.41,-1.29,-1.35,1.57,1.57,1.56
308.61,2.93,1.38,2.93,1.38,-1.37,-1.24,-1.27,1.56,1.56,1.56
311.69,2.88,1.33,2.88,1.33,-1.32,-1.19,-1.19,1.56,1.56,1.56
314.81,2.83,1.27,2.83,1.27,-1.27,-1.15,-1.10,1.56,1.56,1.56
317.96,2.78,1.21,2.78,1.21,-1.21,-1.10,-1.02,1.57,1.57,1.57
321.14,2.72,1.14,2.72,1.14,-1.15,-1.05,-0.94,1.58,1.58,1.58
324.35,2.67,1.08,2.67,1.08,-1.08,-1.00,-0.86,1.59,1.59,1.59
327.59,2.61,1.01,2.61,1.01,-1.01,-0.95,-0.78,1.60,1.60,1.60
330.87,2.56,0.94,2.56,0.94,-0.95,-0.90,-0.69,1.61,1.61,1.61
334.18,2.50,0.88,2.50,0.88,-0.88,-0.84,-0.61,1.62,1.62,1.62
337.52,2.45,0.82,2.45,0.82,-0.82,-0.79,-0.53,1.63,1.63,1.63
340.90,2.39,0.75,2.39,0.75,-0.75,-0.73,-0.45,1.64,1.64,1.64
344.30,2.34,0.69,2.34,0.69,-0.69,-0.68,-0.36,1.65,1.65,1.65
347.75,2.28,0.62,2.28,0.62,-0.62,-0.62,-0.28,1.66,1.66,1.66
351.23,2.23,0.56,2.23,0.56,-0.56,-0.56,-0.20,1.67,1.67,1.67
354.74,2.18,0.49,2.18,0.49,-0.49,-0.50,-0.12,1.68,1.68,1.68
358.28,2.12,0.43,2.12,0.43,-0.43,-0.44,-0.04,1.69,1.69,1.69
361.87,2.07,0.36,2.07,0.36,-0.36,-0.38,0.05,1.71,1.71,1.71
365.49,2.01,0.29,2.01,0.29,-0.29,-0.32,0.13,1.72,1.72,1.72
369.14,1.96,0.22,1.96,0.22,-0.22,-0.26,0.21,1.73,1.73,1.73
372.83,1.90,0.15,1.90,0.15,-0.15,-0.19,0.29,1.75,1.75,1.75
376.56,1.85,0.08,1.85,0.08,-0.08,-0.13,0.37,1.76,1.76,1.76
380.33,1.80,0.01,1.80,0.01,-0.01,-0.06,0.45,1.78,1.78,1.78
384.13,1.74,-0.06,1.74,-0.06,0.06,0.00,0.53,1.80,1.80,1.80
387.97,1.69,-0.13,1.69,-0.13,0.13,0.07,0.61,1.82,1.82,1.82
391.85,1.64,-0.20,1.64,-0.20,0.20,0.14,0.69,1.84,1.84,1.84
395.77,1.59,-0.27,1.59,-0.27,0.27,0.21,0.77,1.86,1.86,1.86
399.73,1.54,-0.34,1.54,-0.34,0.34,0.28,0.85,1.87,1.87,1.87
403.72,1.48,-0.41,1.48,-0.41,0.41,0.35,0.93,1.89,1.89,1.89
407.76,1.43,-0.48,1.43,-0.48,0.47,0.42,1.01,1.91,1.91,1.91
411.84,1.38,-0.54,1.38,-0.54,0.54,0.49,1.08,1.93,1.93,1.93
415.96,1.33,-0.61,1.33,-0.61,0.61,0.56,1.16,1.94,1.94,1.94
420.12,1.28,-0.68,1.28,-0.68,0.68,0.64,1.23,1.96,1.96,1.96
424.32,1.23,-0.74,1.23,-0.74,0.74,0.71,1.31,1.97,1.97,1.97
428.56,1.18,-0.81,1.18,-0.81,0.81,0.78,1.38,1.99,1.99,1.99
432.85,1.14,-0.87,1.14,-0.87,0.87,0.85,1.45,2.01,2.01,2.01
437.18,1.09,-0.94,1.09,-0.94,0.94,0.92,1.52,2.02,2.02,2.02
441.55,1.04,-1.00,1.04,-1.00,1.00,0.99,1.59,2.04,2.04,2.04
445.96,0.99,-1.07,0.99,-1.07,1.07,1.06,1.65,2.06,2.06,2.06
450.42,0.94,-1.13,0.94,-1.13,1.13,1.13,1.71,2.07,2.07,2.07
454.93,0.89,-1.20,0.89,-1.20,1.20,1.20,1.77,2.09,2.09,2.09
459.48,0.84,-1.27,0.84,-1.27,1.26,1.27,1.83,2.11,2.11,2.11
464.07,0.79,-1.33,0.79,-1.33,1.33,1.33,1.88,2.12,2.12,2.12
468.71,0.75,-1.39,0.75,-1.39,1.39,1.39,1.94,2.14,2.14,2.14
473.40,0.70,-1.46,0.70,-1.46,1.46,1.46,1.98,2.16,2.16,2.16
478.13,0.66,-1.52,0.66,-1.52,1.52,1.52,2.03,2.17,2.17,2.17
482.91,0.61,-1.58,0.61,-1.58,1.58,1.57,2.07,2.19,2.19,2.19
487.74,0.57,-1.63,0.57,-1.63,1.63,1.63,2.10,2.20,2.20,2.20
492.62,0.52,-1.69,0.52,-1.69,1.69,1.68,2.13,2.21,2.21,2.21
497.55,0.48,-1.74,0.48,-1.74,1.74,1.73,2.16,2.22,2.22,2.22
502.52,0.43,-1.80,0.43,-1.80,1.80,1.78,2.19,2.23,2.23,2.23
507.55,0.39,-1.85,0.39,-1.85,1.85,1.83,2.21,2.24,2.24,2.24
512.62,0.35,-1.89,0.35,-1.89,1.89,1.88,2.22,2.24,2.24,2.24
517.75,0.31,-1.94,0.31,-1.94,1.94,1.93,2.24,2.24,2.24,2.25
522.93,0.26,-1.98,0.26,-1.98,1.98,1.97,2.25,2.24,2.24,2.25
528.16,0.22,-2.02,0.22,-2.02,2.02,2.01,2.25,2.24,2.24,2.25
533.44,0.18,-2.06,0.18,-2.06,2.06,2.06,2.25,2.24,2.24,2.24
