frequency,raw,error,smoothed,error_smoothed,equalization,parametric_eq,fixed_band_eq,equalized_raw,equalized_smoothed,target
20.00,11.65,2.38,11.68,2.40,-2.37,-1.65,-1.18,9.28,9.31,9.28
20.20,11.51,2.24,11.49,2.21,-2.16,-1.68,-1.21,9.35,9.33,9.28
20.40,11.34,2.06,11.30,2.03,-1.98,-1.71,-1.24,9.36,9.32,9.27
20.61,11.13,1.86,11.13,1.86,-1.84,-1.74,-1.28,9.29,9.29,9.27
20.81,10.93,1.67,10.93,1.67,-1.73,-1.77,-1.31,9.20,9.21,9.26
21.02,10.78,1.52,10.78,1.52,-1.65,-1.80,-1.35,9.13,9.13,9.26
21.23,10.69,1.44,10.71,1.46,-1.61,-1.83,-1.39,9.08,9.10,9.25
21.44,10.72,1.47,10.73,1.49,-1.60,-1.86,-1.43,9.13,9.14,9.25
21.66,10.85,1.60,10.84,1.59,-1.66,-1.89,-1.47,9.19,9.17,9.25
21.87,11.00,1.75,11.00,1.75,-1.76,-1.92,-1.51,9.23,9.24,9.25
22.09,11.18,1.93,11.18,1.93,-1.88,-1.95,-1.55,9.30,9.30,9.25
22.31,11.34,2.09,11.34,2.08,-1.99,-1.98,-1.59,9.35,9.35,9.26
22.54,11.46,2.19,11.45,2.19,-2.08,-2.01,-1.64,9.38,9.37,9.26
22.76,11.51,2.24,11.50,2.24,-2.13,-2.05,-1.68,9.38,9.37,9.27
22.99,11.49,2.23,11.48,2.22,-2.15,-2.08,-1.73,9.34,9.33,9.27
23.22,11.42,2.16,11.42,2.16,-2.15,-2.11,-1.78,9.27,9.27,9.26
23.45,11.33,2.08,11.34,2.09,-2.14,-2.14,-1.83,9.20,9.20,9.25
23.69,11.26,2.03,11.26,2.03,-2.12,-2.17,-1.88,9.14,9.14,9.23
23.92,11.22,2.01,11.22,2.02,-2.12,-2.20,-1.93,9.10,9.11,9.20
24.16,11.23,2.05,11.24,2.06,-2.13,-2.23,-1.98,9.10,9.11,9.18
24.40,11.29,2.13,11.30,2.13,-2.15,-2.27,-2.03,9.14,9.14,9.16
24.65,11.38,2.22,11.38,2.22,-2.18,-2.30,-2.09,9.20,9.20,9.16
24.89,11.47,2.30,11.46,2.29,-2.20,-2.33,-2.14,9.26,9.26,9.17
25.14,11.52,2.32,11.52,2.32,-2.22,-2.36,-2.20,9.31,9.31,9.20
25.39,11.56,2.31,11.54,2.30,-2.22,-2.39,-2.25,9.34,9.32,9.25
25.65,11.53,2.24,11.53,2.24,-2.22,-2.42,-2.31,9.31,9.31,9.28
25.91,11.49,2.18,11.49,2.18,-2.22,-2.45,-2.37,9.27,9.27,9.31
26.16,11.44,2.13,11.45,2.14,-2.23,-2.48,-2.42,9.21,9.22,9.32
26.43,11.43,2.14,11.44,2.15,-2.26,-2.52,-2.48,9.18,9.19,9.30
26.69,11.47,2.22,11.47,2.22,-2.30,-2.55,-2.54,9.17,9.17,9.25
26.96,11.53,2.34,11.54,2.34,-2.36,-2.58,-2.59,9.17,9.18,9.20
27.23,11.63,2.48,11.63,2.47,-2.43,-2.61,-2.65,9.20,9.20,9.15
27.50,11.71,2.59,11.71,2.58,-2.49,-2.64,-2.71,9.22,9.22,9.12
27.77,11.77,2.66,11.77,2.65,-2.55,-2.67,-2.76,9.22,9.22,9.11
28.05,11.80,2.68,11.79,2.67,-2.60,-2.70,-2.81,9.20,9.19,9.12
28.33,11.77,2.65,11.77,2.65,-2.63,-2.73,-2.87,9.14,9.14,9.13
28.62,11.75,2.63,11.75,2.63,-2.66,-2.76,-2.92,9.08,9.08,9.12
28.90,11.71,2.62,11.72,2.63,-2.70,-2.79,-2.97,9.01,9.02,9.09
29.19,11.72,2.67,11.72,2.67,-2.75,-2.82,-3.01,8.97,8.97,9.05
29.48,11.75,2.75,11.76,2.76,-2.82,-2.86,-3.06,8.93,8.94,9.00
29.78,11.85,2.89,11.85,2.89,-2.91,-2.89,-3.10,8.94,8.94,8.96
30.08,11.97,3.03,11.98,3.03,-3.02,-2.92,-3.15,8.95,8.96,8.94
30.38,12.13,3.17,12.13,3.17,-3.15,-2.95,-3.19,8.98,8.98,8.95
30.68,12.28,3.30,12.28,3.30,-3.27,-2.99,-3.22,9.01,9.00,8.98
30.99,12.41,3.40,12.41,3.41,-3.39,-3.02,-3.26,9.02,9.02,9.00
31.30,12.50,3.50,12.50,3.50,-3.48,-3.05,-3.29,9.01,9.01,9.00
31.61,12.54,3.57,12.54,3.57,-3.55,-3.09,-3.32,9.00,8.99,8.98
31.93,12.55,3.62,12.54,3.62,-3.58,-3.12,-3.35,8.96,8.96,8.92
32.24,12.51,3.63,12.51,3.63,-3.60,-3.16,-3.37,8.91,8.91,8.87
32.57,12.45,3.62,12.45,3.62,-3.59,-3.20,-3.40,8.86,8.86,8.83
32.89,12.38,3.57,12.38,3.57,-3.57,-3.24,-3.42,8.81,8.81,8.81
33.22,12.32,3.52,12.32,3.52,-3.54,-3.28,-3.44,8.78,8.78,8.80
33.55,12.27,3.47,12.28,3.48,-3.52,-3.32,-3.45,8.75,8.76,8.80
33.89,12.26,3.45,12.26,3.46,-3.50,-3.36,-3.47,8.75,8.76,8.80
34.23,12.26,3.47,12.26,3.47,-3.49,-3.41,-3.49,8.76,8.76,8.79
34.57,12.27,3.49,12.27,3.49,-3.49,-3.45,-3.50,8.77,8.77,8.77
34.92,12.28,3.53,12.28,3.53,-3.51,-3.50,-3.51,8.78,8.77,8.75
35.27,12.29,3.56,12.29,3.56,-3.53,-3.55,-3.53,8.76,8.76,8.73
35.62,12.30,3.59,12.30,3.59,-3.57,-3.59,-3.54,8.73,8.73,8.71
35.97,12.30,3.61,12.31,3.61,-3.62,-3.65,-3.55,8.68,8.69,8.69
36.33,12.32,3.65,12.32,3.65,-3.67,-3.70,-3.57,8.65,8.65,8.68
36.70,12.36,3.70,12.36,3.70,-3.73,-3.75,-3.58,8.62,8.63,8.66
37.06,12.41,3.76,12.41,3.77,-3.79,-3.81,-3.60,8.62,8.62,8.65
37.43,12.48,3.85,12.48,3.85,-3.85,-3.86,-3.61,8.63,8.63,8.63
37.81,12.53,3.93,12.54,3.93,-3.91,-3.92,-3.63,8.63,8.63,8.60
38.19,12.58,4.01,12.57,4.00,-3.95,-3.97,-3.65,8.63,8.62,8.58
38.57,12.58,4.04,12.58,4.04,-3.99,-4.03,-3.67,8.59,8.58,8.54
38.95,12.56,4.05,12.56,4.05,-4.03,-4.08,-3.69,8.53,8.53,8.51
39.34,12.53,4.04,12.53,4.05,-4.05,-4.14,-3.72,8.48,8.48,8.48
39.74,12.50,4.05,12.51,4.05,-4.07,-4.19,-3.74,8.43,8.44,8.46
40.14,12.50,4.06,12.50,4.06,-4.09,-4.25,-3.77,8.41,8.41,8.44
40.54,12.51,4.09,12.51,4.09,-4.11,-4.30,-3.81,8.40,8.40,8.42
40.94,12.53,4.13,12.53,4.13,-4.14,-4.35,-3.84,8.39,8.39,8.40
41.35,12.56,4.17,12.56,4.17,-4.18,-4.39,-3.88,8.38,8.38,8.39
41.76,12.59,4.22,12.59,4.22,-4.23,-4.44,-3.92,8.36,8.36,8.37
42.18,12.63,4.28,12.63,4.28,-4.28,-4.48,-3.96,8.35,8.35,8.35
42.60,12.67,4.34,12.67,4.34,-4.32,-4.52,-4.01,8.34,8.34,8.33
43.03,12.70,4.41,12.70,4.40,-4.37,-4.55,-4.06,8.34,8.33,8.29
43.46,12.71,4.45,12.71,4.44,-4.40,-4.58,-4.11,8.31,8.30,8.26
43.90,12.71,4.47,12.70,4.46,-4.44,-4.61,-4.17,8.26,8.26,8.24
44.33,12.69,4.47,12.69,4.47,-4.49,-4.64,-4.22,8.20,8.20,8.22
44.78,12.68,4.49,12.69,4.49,-4.54,-4.66,-4.29,8.15,8.15,8.20
45.23,12.70,4.53,12.70,4.54,-4.59,-4.68,-4.35,8.11,8.11,8.17
45.68,12.74,4.62,12.74,4.62,-4.65,-4.70,-4.42,8.09,8.09,8.12
46.13,12.79,4.72,12.79,4.71,-4.71,-4.72,-4.49,8.08,8.08,8.08
46.60,12.85,4.80,12.85,4.80,-4.77,-4.73,-4.57,8.07,8.07,8.04
47.06,12.89,4.87,12.89,4.87,-4.83,-4.75,-4.64,8.06,8.06,8.02
47.53,12.91,4.91,12.91,4.91,-4.88,-4.77,-4.73,8.04,8.03,8.00
48.01,12.91,4.93,12.91,4.94,-4.91,-4.79,-4.81,8.00,8.00,7.98
48.49,12.89,4.94,12.89,4.94,-4.92,-4.81,-4.89,7.96,7.96,7.95
48.97,12.85,4.94,12.85,4.93,-4.93,-4.83,-4.98,7.92,7.92,7.92
49.46,12.81,4.92,12.81,4.92,-4.92,-4.85,-5.07,7.89,7.89,7.89
49.96,12.77,4.90,12.77,4.91,-4.92,-4.88,-5.17,7.85,7.85,7.86
50.46,12.74,4.91,12.74,4.91,-4.92,-4.91,-5.26,7.82,7.82,7.84
50.96,12.73,4.92,12.73,4.92,-4.94,-4.94,-5.36,7.78,7.78,7.81
51.47,12.73,4.95,12.73,4.95,-4.98,-4.97,-5.45,7.75,7.75,7.78
51.99,12.75,5.01,12.75,5.01,-5.03,-5.01,-5.55,7.73,7.73,7.75
52.51,12.80,5.08,12.80,5.08,-5.10,-5.05,-5.65,7.70,7.70,7.72
53.03,12.85,5.17,12.86,5.17,-5.18,-5.09,-5.74,7.67,7.68,7.69
53.56,12.92,5.27,12.92,5.27,-5.27,-5.14,-5.84,7.65,7.65,7.65
54.10,12.98,5.37,12.98,5.37,-5.36,-5.19,-5.93,7.63,7.63,7.62
54.64,13.04,5.46,13.04,5.46,-5.44,-5.24,-6.02,7.60,7.60,7.58
55.18,13.09,5.55,13.08,5.54,-5.51,-5.29,-6.11,7.58,7.57,7.54
55.74,13.11,5.60,13.11,5.60,-5.57,-5.35,-6.20,7.54,7.54,7.51
56.29,13.12,5.64,13.12,5.64,-5.62,-5.41,-6.27,7.50,7.50,7.48
56.86,13.12,5.66,13.11,5.66,-5.66,-5.46,-6.35,7.46,7.45,7.45
57.42,13.10,5.68,13.10,5.68,-5.69,-5.52,-6.42,7.41,7.41,7.42
58.00,13.09,5.70,13.09,5.70,-5.72,-5.58,-6.48,7.37,7.37,7.39
58.58,13.08,5.72,13.08,5.72,-5.74,-5.64,-6.53,7.34,7.34,7.36
59.16,13.08,5.75,13.08,5.75,-5.77,-5.70,-6.58,7.31,7.31,7.33
59.76,13.08,5.79,13.08,5.79,-5.79,-5.76,-6.61,7.29,7.29,7.29
60.35,13.08,5.83,13.08,5.83,-5.82,-5.82,-6.64,7.26,7.26,7.25
60.96,13.08,5.86,13.08,5.86,-5.84,-5.87,-6.65,7.23,7.23,7.22
61.57,13.06,5.88,13.06,5.88,-5.87,-5.92,-6.66,7.19,7.19,7.19
62.18,13.05,5.89,13.05,5.90,-5.90,-5.97,-6.65,7.15,7.15,7.15
62.80,13.03,5.91,13.03,5.91,-5.92,-6.01,-6.63,7.11,7.11,7.12
63.43,13.01,5.93,13.01,5.93,-5.94,-6.05,-6.60,7.07,7.07,7.08
64.07,13.00,5.95,13.00,5.95,-5.96,-6.08,-6.56,7.04,7.04,7.05
64.71,12.99,5.97,12.99,5.97,-5.98,-6.11,-6.51,7.01,7.01,7.01
65.35,12.97,5.99,12.97,5.99,-5.99,-6.12,-6.45,6.98,6.98,6.98
66.01,12.96,6.01,12.96,6.01,-6.01,-6.13,-6.38,6.95,6.95,6.94
66.67,12.93,6.02,12.93,6.02,-6.02,-6.13,-6.30,6.92,6.92,6.91
67.33,12.90,6.02,12.91,6.02,-6.02,-6.12,-6.21,6.89,6.89,6.88
68.01,12.87,6.02,12.87,6.02,-6.01,-6.10,-6.11,6.86,6.86,6.85
68.69,12.82,6.00,12.82,6.00,-5.99,-6.07,-6.01,6.82,6.82,6.82
69.37,12.75,5.97,12.75,5.97,-5.97,-6.04,-5.89,6.78,6.78,6.78
70.07,12.68,5.94,12.68,5.94,-5.94,-5.98,-5.78,6.74,6.74,6.74
70.77,12.59,5.89,12.59,5.89,-5.90,-5.93,-5.65,6.69,6.69,6.70
71.48,12.49,5.84,12.49,5.84,-5.85,-5.85,-5.53,6.64,6.64,6.65
72.19,12.39,5.79,12.39,5.79,-5.79,-5.78,-5.40,6.60,6.60,6.61
72.91,12.29,5.73,12.29,5.73,-5.73,-5.68,-5.26,6.56,6.56,6.56
73.64,12.19,5.66,12.19,5.66,-5.66,-5.59,-5.12,6.53,6.53,6.52
74.38,12.07,5.58,12.07,5.58,-5.58,-5.48,-4.99,6.50,6.50,6.49
75.12,11.95,5.49,11.95,5.49,-5.49,-5.36,-4.85,6.47,6.47,6.47
75.87,11.82,5.38,11.82,5.38,-5.39,-5.24,-4.71,6.43,6.43,6.43
76.63,11.67,5.27,11.67,5.27,-5.27,-5.11,-4.57,6.40,6.40,6.40
77.40,11.52,5.15,11.52,5.15,-5.15,-4.97,-4.42,6.37,6.37,6.37
78.17,11.34,5.02,11.35,5.02,-5.01,-4.83,-4.28,6.33,6.33,6.32
78.95,11.16,4.88,11.16,4.88,-4.86,-4.69,-4.14,6.30,6.30,6.28
79.74,10.97,4.72,10.97,4.72,-4.71,-4.54,-4.00,6.26,6.26,6.25
80.54,10.76,4.54,10.76,4.54,-4.54,-4.38,-3.87,6.22,6.22,6.22
81.35,10.54,4.36,10.54,4.36,-4.37,-4.23,-3.73,6.18,6.18,6.18
82.16,10.33,4.18,10.33,4.18,-4.19,-4.07,-3.60,6.14,6.14,6.14
82.98,10.11,4.00,10.11,4.00,-4.01,-3.91,-3.46,6.10,6.10,6.10
83.81,9.88,3.82,9.88,3.82,-3.83,-3.75,-3.33,6.06,6.06,6.07
84.65,9.66,3.64,9.66,3.64,-3.65,-3.60,-3.20,6.02,6.02,6.02
85.50,9.45,3.47,9.45,3.46,-3.47,-3.44,-3.07,5.98,5.98,5.98
86.35,9.24,3.29,9.24,3.29,-3.29,-3.28,-2.95,5.94,5.94,5.95
87.22,9.03,3.12,9.03,3.12,-3.12,-3.12,-2.82,5.91,5.91,5.91
88.09,8.82,2.95,8.82,2.95,-2.95,-2.97,-2.70,5.87,5.87,5.87
88.97,8.61,2.79,8.61,2.78,-2.78,-2.81,-2.58,5.83,5.83,5.82
89.86,8.40,2.62,8.40,2.62,-2.61,-2.66,-2.46,5.79,5.79,5.79
90.76,8.20,2.45,8.20,2.45,-2.45,-2.52,-2.34,5.75,5.75,5.75
91.66,8.00,2.29,8.00,2.29,-2.29,-2.37,-2.23,5.71,5.71,5.71
92.58,7.80,2.13,7.80,2.13,-2.13,-2.23,-2.11,5.67,5.67,5.67
93.51,7.61,1.98,7.61,1.98,-1.98,-2.09,-2.00,5.63,5.63,5.63
94.44,7.42,1.83,7.42,1.83,-1.83,-1.96,-1.89,5.59,5.59,5.59
95.39,7.24,1.69,7.24,1.69,-1.70,-1.83,-1.79,5.54,5.54,5.55
96.34,7.06,1.56,7.06,1.56,-1.57,-1.70,-1.68,5.50,5.50,5.50
97.30,6.90,1.44,6.90,1.44,-1.44,-1.58,-1.58,5.46,5.46,5.47
98.28,6.75,1.33,6.75,1.33,-1.33,-1.47,-1.48,5.42,5.42,5.42
99.26,6.61,1.23,6.61,1.23,-1.22,-1.35,-1.38,5.39,5.39,5.38
100.25,6.48,1.13,6.47,1.13,-1.13,-1.25,-1.28,5.35,5.35,5.34
101.25,6.34,1.04,6.34,1.04,-1.03,-1.14,-1.18,5.31,5.31,5.31
102.27,6.22,0.95,6.22,0.95,-0.95,-1.05,-1.09,5.27,5.27,5.27
103.29,6.10,0.87,6.10,0.87,-0.88,-0.95,-1.00,5.22,5.22,5.23
104.32,5.99,0.80,5.99,0.80,-0.81,-0.87,-0.91,5.18,5.18,5.19
105.37,5.90,0.75,5.89,0.75,-0.75,-0.79,-0.82,5.14,5.14,5.15
106.42,5.81,0.70,5.81,0.69,-0.70,-0.71,-0.74,5.11,5.11,5.11
107.48,5.72,0.65,5.72,0.65,-0.65,-0.64,-0.66,5.07,5.07,5.07
108.56,5.64,0.61,5.64,0.61,-0.61,-0.57,-0.58,5.03,5.03,5.03
109.64,5.57,0.58,5.57,0.57,-0.57,-0.51,-0.51,5.00,5.00,4.99
110.74,5.49,0.54,5.49,0.54,-0.53,-0.46,-0.44,4.96,4.96,4.95
111.85,5.41,0.50,5.41,0.50,-0.49,-0.40,-0.37,4.92,4.92,4.91
112.97,5.33,0.46,5.33,0.46,-0.45,-0.36,-0.30,4.88,4.88,4.88
114.10,5.25,0.42,5.25,0.41,-0.41,-0.31,-0.24,4.84,4.84,4.84
115.24,5.17,0.37,5.17,0.37,-0.37,-0.27,-0.18,4.80,4.80,4.80
116.39,5.09,0.33,5.09,0.33,-0.33,-0.24,-0.13,4.76,4.76,4.76
117.55,5.01,0.29,5.02,0.29,-0.29,-0.21,-0.08,4.72,4.72,4.73
118.73,4.95,0.25,4.95,0.25,-0.26,-0.18,-0.04,4.69,4.69,4.69
119.92,4.88,0.22,4.88,0.22,-0.23,-0.15,0.00,4.66,4.66,4.67
121.12,4.82,0.19,4.82,0.20,-0.20,-0.13,0.04,4.62,4.63,4.63
122.33,4.76,0.18,4.76,0.17,-0.17,-0.11,0.07,4.59,4.59,4.58
123.55,4.70,0.15,4.70,0.15,-0.14,-0.09,0.10,4.56,4.56,4.55
124.79,4.63,0.12,4.63,0.12,-0.11,-0.08,0.12,4.52,4.52,4.51
126.03,4.56,0.09,4.56,0.09,-0.09,-0.06,0.14,4.48,4.48,4.48
127.29,4.50,0.06,4.50,0.06,-0.06,-0.05,0.15,4.44,4.44,4.44
128.57,4.43,0.03,4.43,0.03,-0.03,-0.04,0.16,4.40,4.40,4.40
129.85,4.37,0.01,4.37,0.01,-0.01,-0.03,0.16,4.36,4.36,4.36
131.15,4.31,-0.02,4.31,-0.02,0.02,-0.02,0.16,4.32,4.32,4.33
132.46,4.25,-0.04,4.25,-0.04,0.04,-0.01,0.15,4.29,4.29,4.29
133.79,4.19,-0.05,4.19,-0.06,0.06,-0.00,0.14,4.25,4.25,4.25
135.12,4.13,-0.07,4.13,-0.07,0.08,0.00,0.13,4.21,4.21,4.21
136.48,4.07,-0.10,4.07,-0.10,0.10,0.01,0.11,4.17,4.17,4.17
137.84,4.01,-0.11,4.01,-0.12,0.11,0.02,0.09,4.13,4.13,4.13
139.22,3.96,-0.13,3.96,-0.13,0.13,0.03,0.07,4.09,4.09,4.09
140.61,3.91,-0.14,3.91,-0.14,0.14,0.04,0.04,4.05,4.05,4.05
142.02,3.86,-0.15,3.86,-0.15,0.15,0.05,0.01,4.01,4.01,4.01
143.44,3.82,-0.15,3.82,-0.15,0.15,0.06,-0.03,3.97,3.97,3.97
144.87,3.78,-0.15,3.79,-0.15,0.15,0.07,-0.06,3.93,3.93,3.94
146.32,3.76,-0.14,3.75,-0.14,0.14,0.07,-0.10,3.90,3.90,3.90
147.78,3.73,-0.13,3.73,-0.13,0.13,0.08,-0.14,3.86,3.86,3.86
149.26,3.70,-0.12,3.70,-0.12,0.12,0.09,-0.19,3.82,3.82,3.82
150.75,3.68,-0.10,3.68,-0.10,0.11,0.10,-0.23,3.79,3.79,3.79
152.26,3.66,-0.09,3.66,-0.09,0.09,0.10,-0.28,3.75,3.75,3.75
153.78,3.64,-0.07,3.64,-0.07,0.07,0.11,-0.32,3.71,3.71,3.71
155.32,3.63,-0.05,3.63,-0.05,0.05,0.10,-0.37,3.68,3.68,3.68
156.88,3.61,-0.03,3.61,-0.03,0.03,0.10,-0.42,3.64,3.64,3.64
158.44,3.60,-0.00,3.60,-0.00,0.00,0.09,-0.48,3.60,3.60,3.60
160.03,3.59,0.02,3.59,0.02,-0.03,0.08,-0.53,3.56,3.56,3.56
161.63,3.58,0.05,3.58,0.05,-0.05,0.05,-0.58,3.53,3.53,3.53
163.24,3.58,0.09,3.58,0.09,-0.09,0.03,-0.64,3.49,3.49,3.49
164.88,3.58,0.12,3.58,0.12,-0.12,-0.01,-0.70,3.45,3.45,3.45
166.53,3.58,0.16,3.58,0.16,-0.16,-0.04,-0.75,3.42,3.42,3.42
168.19,3.58,0.20,3.58,0.20,-0.20,-0.09,-0.81,3.38,3.38,3.38
169.87,3.58,0.24,3.58,0.24,-0.24,-0.14,-0.87,3.34,3.34,3.34
171.57,3.59,0.29,3.59,0.29,-0.29,-0.20,-0.93,3.30,3.30,3.30
173.29,3.60,0.34,3.60,0.33,-0.34,-0.26,-0.99,3.27,3.27,3.27
175.02,3.62,0.38,3.62,0.39,-0.39,-0.34,-1.05,3.23,3.23,3.23
176.77,3.64,0.44,3.64,0.44,-0.44,-0.41,-1.11,3.20,3.20,3.20
178.54,3.67,0.50,3.67,0.50,-0.50,-0.48,-1.17,3.17,3.17,3.17
180.32,3.70,0.56,3.70,0.56,-0.56,-0.56,-1.24,3.14,3.14,3.14
182.13,3.73,0.63,3.73,0.63,-0.63,-0.64,-1.30,3.10,3.10,3.10
183.95,3.76,0.70,3.76,0.69,-0.70,-0.72,-1.37,3.07,3.07,3.07
185.79,3.80,0.76,3.80,0.76,-0.77,-0.80,-1.43,3.03,3.03,3.04
187.65,3.84,0.84,3.84,0.84,-0.84,-0.88,-1.50,3.00,3.00,3.00
189.52,3.88,0.91,3.88,0.91,-0.92,-0.97,-1.56,2.97,2.97,2.97
191.42,3.93,0.99,3.93,0.99,-0.99,-1.05,-1.63,2.94,2.94,2.94
193.33,3.97,1.07,3.97,1.07,-1.07,-1.13,-1.70,2.91,2.91,2.90
195.27,4.02,1.15,4.01,1.15,-1.14,-1.20,-1.77,2.87,2.87,2.86
197.22,4.05,1.22,4.05,1.22,-1.21,-1.28,-1.84,2.84,2.84,2.84
199.19,4.09,1.28,4.09,1.29,-1.29,-1.36,-1.90,2.81,2.81,2.81
201.18,4.13,1.35,4.13,1.35,-1.36,-1.43,-1.97,2.77,2.78,2.78
203.19,4.17,1.42,4.17,1.42,-1.43,-1.50,-2.04,2.74,2.75,2.75
205.23,4.21,1.49,4.21,1.49,-1.50,-1.57,-2.11,2.72,2.72,2.72
207.28,4.26,1.56,4.26,1.56,-1.57,-1.64,-2.18,2.69,2.69,2.69
209.35,4.30,1.64,4.30,1.64,-1.64,-1.71,-2.24,2.66,2.66,2.66
211.44,4.34,1.71,4.34,1.71,-1.71,-1.78,-2.31,2.63,2.63,2.63
213.56,4.38,1.78,4.38,1.78,-1.78,-1.84,-2.38,2.60,2.60,2.60
215.69,4.42,1.85,4.42,1.85,-1.85,-1.91,-2.44,2.57,2.57,2.57
217.85,4.46,1.92,4.46,1.92,-1.92,-1.97,-2.50,2.54,2.54,2.54
220.03,4.50,1.99,4.50,1.99,-1.99,-2.03,-2.57,2.51,2.51,2.51
222.23,4.54,2.06,4.54,2.06,-2.06,-2.09,-2.63,2.48,2.48,2.48
224.45,4.58,2.13,4.58,2.13,-2.13,-2.15,-2.68,2.45,2.45,2.45
226.70,4.62,2.19,4.62,2.19,-2.19,-2.20,-2.74,2.42,2.42,2.42
228.96,4.66,2.26,4.66,2.26,-2.26,-2.26,-2.79,2.40,2.40,2.40
231.25,4.69,2.32,4.69,2.32,-2.32,-2.32,-2.84,2.37,2.37,2.37
233.57,4.73,2.39,4.73,2.39,-2.39,-2.37,-2.89,2.34,2.34,2.34
235.90,4.76,2.45,4.76,2.45,-2.45,-2.42,-2.93,2.32,2.32,2.32
238.26,4.79,2.51,4.79,2.51,-2.50,-2.48,-2.97,2.29,2.29,2.29
240.64,4.82,2.56,4.82,2.56,-2.56,-2.53,-3.01,2.26,2.26,2.26
243.05,4.85,2.62,4.85,2.62,-2.62,-2.58,-3.04,2.23,2.23,2.23
245.48,4.88,2.67,4.88,2.67,-2.67,-2.63,-3.07,2.20,2.20,2.21
247.93,4.90,2.72,4.90,2.72,-2.72,-2.68,-3.09,2.18,2.18,2.18
250.41,4.92,2.77,4.92,2.77,-2.77,-2.72,-3.11,2.15,2.15,2.15
252.92,4.95,2.83,4.95,2.83,-2.83,-2.77,-3.13,2.12,2.12,2.12
255.45,4.97,2.88,4.97,2.87,-2.88,-2.81,-3.14,2.10,2.10,2.10
258.00,5.00,2.92,5.00,2.92,-2.92,-2.86,-3.15,2.07,2.07,2.08
260.58,5.02,2.97,5.02,2.97,-2.97,-2.90,-3.15,2.05,2.05,2.05
263.19,5.03,3.02,5.03,3.02,-3.02,-2.95,-3.15,2.02,2.02,2.02
265.82,5.05,3.06,5.05,3.06,-3.06,-2.99,-3.15,1.99,1.99,1.99
268.48,5.06,3.10,5.06,3.10,-3.10,-3.03,-3.15,1.96,1.96,1.96
271.16,5.08,3.14,5.08,3.14,-3.14,-3.07,-3.14,1.93,1.93,1.93
273.87,5.09,3.18,5.09,3.18,-3.18,-3.11,-3.13,1.90,1.90,1.91
276.61,5.10,3.22,5.10,3.22,-3.22,-3.15,-3.11,1.87,1.87,1.88
279.38,5.11,3.25,5.11,3.25,-3.26,-3.18,-3.10,1.85,1.85,1.85
282.17,5.12,3.29,5.12,3.29,-3.29,-3.22,-3.08,1.82,1.82,1.82
284.99,5.12,3.33,5.12,3.33,-3.33,-3.25,-3.06,1.80,1.80,1.79
287.84,5.13,3.36,5.13,3.36,-3.36,-3.29,-3.04,1.78,1.78,1.77
290.72,5.14,3.39,5.14,3.39,-3.38,-3.32,-3.02,1.76,1.76,1.75
293.63,5.14,3.41,5.14,3.41,-3.40,-3.35,-3.00,1.74,1.74,1.73
296.57,5.14,3.42,5.14,3.42,-3.42,-3.38,-2.98,1.72,1.72,1.72
299.53,5.14,3.44,5.14,3.44,-3.44,-3.41,-2.95,1.71,1.71,1.71
302.53,5.14,3.45,5.14,3.45,-3.45,-3.43,-2.93,1.69,1.69,1.69
305.55,5.14,3.46,5.14,3.46,-3.46,-3.46,-2.91,1.68,1.68,1.68
308.61,5.14,3.47,5.14,3.47,-3.47,-3.48,-2.89,1.66,1.66,1.67
311.69,5.13,3.48,5.13,3.48,-3.49,-3.51,-2.87,1.65,1.65,1.65
314.81,5.13,3.50,5.13,3.50,-3.50,-3.53,-2.86,1.63,1.63,1.63
317.96,5.12,3.51,5.12,3.51,-3.51,-3.55,-2.84,1.61,1.61,1.61
321.14,5.12,3.52,5.12,3.52,-3.52,-3.57,-2.82,1.59,1.59,1.60
324.35,5.11,3.54,5.11,3.54,-3.54,-3.58,-2.81,1.58,1.58,1.58
327.59,5.10,3.55,5.10,3.55,-3.55,-3.60,-2.80,1.56,1.56,1.55
330.87,5.10,3.56,5.10,3.56,-3.56,-3.61,-2.79,1.54,1.54,1.53
334.18,5.09,3.57,5.08,3.57,-3.57,-3.62,-2.78,1.52,1.51,1.51
337.52,5.07,3.58,5.07,3.58,-3.58,-3.64,-2.77,1.49,1.49,1.49
340.90,5.06,3.58,5.06,3.58,-3.58,-3.64,-2.77,1.47,1.47,1.47
344.30,5.04,3.59,5.04,3.59,-3.59,-3.65,-2.77,1.45,1.45,1.45
347.75,5.02,3.59,5.02,3.59,-3.59,-3.66,-2.77,1.43,1.43,1.43
351.23,5.00,3.59,5.00,3.59,-3.59,-3.66,-2.77,1.41,1.41,1.41
354.74,4.98,3.59,4.98,3.59,-3.59,-3.66,-2.78,1.40,1.40,1.39
358.28,4.96,3.58,4.96,3.58,-3.58,-3.66,-2.78,1.38,1.38,1.38
361.87,4.94,3.57,4.94,3.57,-3.57,-3.66,-2.79,1.36,1.36,1.36
365.49,4.91,3.57,4.91,3.56,-3.57,-3.66,-2.80,1.34,1.34,1.35
369.14,4.89,3.56,4.89,3.56,-3.56,-3.66,-2.82,1.33,1.33,1.33
372.83,4.86,3.55,4.86,3.55,-3.55,-3.65,-2.83,1.31,1.31,1.31
376.56,4.84,3.54,4.84,3.54,-3.54,-3.64,-2.85,1.29,1.29,1.30
380.33,4.81,3.53,4.81,3.53,-3.53,-3.63,-2.87,1.28,1.28,1.28
384.13,4.79,3.52,4.79,3.52,-3.52,-3.62,-2.89,1.26,1.26,1.26
387.97,4.76,3.51,4.76,3.51,-3.51,-3.61,-2.91,1.25,1.25,1.25
391.85,4.73,3.50,4.73,3.50,-3.50,-3.59,-2.94,1.23,1.23,1.23
395.77,4.70,3.49,4.70,3.49,-3.49,-3.58,-2.96,1.21,1.21,1.21
399.73,4.67,3.48,4.67,3.47,-3.47,-3.56,-2.99,1.20,1.20,1.19
403.72,4.64,3.46,4.64,3.46,-3.46,-3.54,-3.02,1.18,1.18,1.18
407.76,4.60,3.44,4.60,3.44,-3.44,-3.52,-3.05,1.17,1.17,1.17
411.84,4.57,3.42,4.57,3.42,-3.42,-3.50,-3.08,1.15,1.15,1.15
415.96,4.53,3.40,4.53,3.40,-3.40,-3.48,-3.11,1.13,1.13,1.13
420.12,4.50,3.38,4.50,3.38,-3.38,-3.45,-3.14,1.12,1.12,1.12
424.32,4.46,3.36,4.46,3.36,-3.36,-3.43,-3.17,1.10,1.10,1.10
428.56,4.42,3.33,4.42,3.33,-3.34,-3.40,-3.20,1.08,1.09,1.09
432.85,4.38,3.31,4.38,3.31,-3.31,-3.37,-3.23,1.07,1.07,1.07
437.18,4.34,3.29,4.34,3.29,-3.29,-3.34,-3.26,1.05,1.05,1.05
441.55,4.30,3.27,4.30,3.27,-3.27,-3.31,-3.28,1.03,1.03,1.03
445.96,4.26,3.25,4.26,3.25,-3.25,-3.28,-3.31,1.01,1.01,1.01
450.42,4.22,3.22,4.22,3.23,-3.23,-3.24,-3.33,0.99,0.99,0.99
454.93,4.18,3.20,4.18,3.20,-3.20,-3.21,-3.35,0.97,0.97,0.98
459.48,4.14,3.18,4.14,3.18,-3.18,-3.17,-3.37,0.96,0.96,0.96
464.07,4.10,3.16,4.10,3.16,-3.16,-3.14,-3.38,0.94,0.94,0.94
468.71,4.06,3.13,4.06,3.14,-3.14,-3.10,-3.39,0.93,0.93,0.93
473.40,4.02,3.11,4.02,3.11,-3.11,-3.06,-3.39,0.91,0.91,0.91
478.13,3.98,3.09,3.98,3.09,-3.08,-3.02,-3.40,0.90,0.90,0.90
482.91,3.94,3.06,3.94,3.06,-3.05,-2.98,-3.39,0.89,0.89,0.88
487.74,3.89,3.02,3.89,3.02,-3.02,-2.94,-3.38,0.87,0.87,0.87
492.62,3.84,2.99,3.84,2.99,-2.99,-2.90,-3.37,0.86,0.86,0.86
497.55,3.79,2.95,3.79,2.95,-2.95,-2.86,-3.35,0.84,0.84,0.84
502.52,3.74,2.91,3.74,2.91,-2.91,-2.82,-3.33,0.83,0.83,0.83
507.55,3.69,2.87,3.69,2.87,-2.87,-2.77,-3.30,0.82,0.82,0.82
512.62,3.64,2.83,3.64,2.83,-2.83,-2.73,-3.27,0.81,0.81,0.81
517.75,3.58,2.79,3.58,2.79,-2.79,-2.68,-3.23,0.79,0.79,0.80
522.93,3.53,2.75,3.53,2.75,-2.75,-2.64,-3.19,0.78,0.78,0.78
