frequency,raw,error,smoothed,error_smoothed,equalization,parametric_eq,fixed_band_eq,equalized_raw,equalized_smoothed,target
20.00,7.62,-0.60,7.62,-0.60,0.59,0.06,0.25,8.21,8.21,8.23
20.20,7.65,-0.61,7.65,-0.61,0.60,0.07,0.26,8.25,8.25,8.25
20.40,7.67,-0.61,7.67,-0.61,0.62,0.07,0.27,8.28,8.28,8.28
20.61,7.69,-0.62,7.68,-0.62,0.63,0.08,0.28,8.31,8.31,8.30
20.81,7.70,-0.63,7.70,-0.63,0.64,0.08,0.29,8.34,8.34,8.33
21.02,7.71,-0.64,7.71,-0.64,0.65,0.09,0.30,8.36,8.36,8.35
21.23,7.72,-0.65,7.72,-0.65,0.65,0.10,0.31,8.38,8.38,8.37
21.44,7.74,-0.66,7.74,-0.66,0.66,0.10,0.31,8.39,8.39,8.39
21.66,7.75,-0.66,7.75,-0.66,0.66,0.11,0.32,8.41,8.41,8.41
21.87,7.77,-0.67,7.77,-0.67,0.66,0.12,0.33,8.43,8.43,8.43
22.09,7.78,-0.67,7.78,-0.67,0.66,0.13,0.34,8.45,8.45,8.45
22.31,7.80,-0.66,7.80,-0.66,0.66,0.14,0.36,8.46,8.46,8.47
22.54,7.83,-0.66,7.83,-0.66,0.65,0.15,0.37,8.48,8.48,8.48
22.76,7.85,-0.64,7.85,-0.64,0.64,0.17,0.38,8.49,8.49,8.50
22.99,7.88,-0.63,7.88,-0.63,0.63,0.18,0.39,8.50,8.51,8.51
23.22,7.91,-0.61,7.91,-0.61,0.62,0.20,0.40,8.52,8.52,8.52
23.45,7.93,-0.60,7.93,-0.60,0.61,0.22,0.41,8.54,8.54,8.53
23.69,7.95,-0.59,7.95,-0.59,0.60,0.25,0.42,8.55,8.55,8.54
23.92,7.97,-0.58,7.97,-0.59,0.60,0.27,0.44,8.57,8.57,8.56
24.16,7.98,-0.59,7.98,-0.59,0.60,0.30,0.45,8.58,8.58,8.57
24.40,7.98,-0.60,7.98,-0.60,0.60,0.34,0.46,8.58,8.58,8.58
24.65,7.98,-0.61,7.98,-0.61,0.61,0.38,0.47,8.59,8.59,8.59
24.89,7.98,-0.62,7.98,-0.62,0.61,0.42,0.49,8.59,8.59,8.60
25.14,7.98,-0.63,7.98,-0.63,0.62,0.48,0.50,8.60,8.60,8.61
25.39,7.98,-0.64,7.99,-0.63,0.62,0.53,0.51,8.61,8.61,8.62
25.65,7.99,-0.63,7.99,-0.63,0.63,0.60,0.53,8.62,8.62,8.63
25.91,8.00,-0.63,8.00,-0.63,0.63,0.67,0.54,8.64,8.64,8.63
26.16,8.01,-0.63,8.01,-0.63,0.65,0.76,0.55,8.65,8.65,8.64
26.43,8.00,-0.64,8.00,-0.64,0.66,0.84,0.56,8.67,8.66,8.64
26.69,7.98,-0.66,7.98,-0.66,0.68,0.92,0.58,8.67,8.67,8.65
26.96,7.96,-0.69,7.96,-0.69,0.70,1.01,0.59,8.66,8.66,8.65
27.23,7.93,-0.73,7.93,-0.73,0.72,1.07,0.60,8.65,8.65,8.66
27.50,7.90,-0.76,7.90,-0.76,0.74,1.13,0.61,8.64,8.64,8.66
27.77,7.88,-0.78,7.88,-0.78,0.75,1.14,0.62,8.64,8.64,8.66
28.05,7.88,-0.79,7.88,-0.78,0.76,1.15,0.63,8.64,8.64,8.67
28.33,7.90,-0.76,7.90,-0.77,0.76,1.11,0.64,8.66,8.66,8.67
28.62,7.92,-0.74,7.92,-0.74,0.75,1.06,0.65,8.67,8.67,8.66
28.90,7.95,-0.71,7.95,-0.71,0.73,0.98,0.66,8.68,8.68,8.66
29.19,7.97,-0.69,7.97,-0.69,0.71,0.90,0.67,8.68,8.68,8.66
29.48,7.98,-0.68,7.98,-0.68,0.69,0.81,0.67,8.67,8.67,8.66
29.78,7.99,-0.67,7.99,-0.67,0.67,0.72,0.68,8.65,8.65,8.66
30.08,8.00,-0.66,8.00,-0.66,0.64,0.65,0.68,8.63,8.63,8.66
30.38,8.01,-0.64,8.02,-0.64,0.61,0.57,0.68,8.62,8.63,8.66
30.68,8.05,-0.60,8.05,-0.60,0.58,0.51,0.68,8.63,8.63,8.65
30.99,8.08,-0.56,8.08,-0.56,0.57,0.45,0.68,8.65,8.65,8.64
31.30,8.11,-0.52,8.11,-0.52,0.55,0.40,0.68,8.67,8.67,8.63
31.61,8.12,-0.50,8.12,-0.51,0.55,0.35,0.68,8.67,8.67,8.62
31.93,8.10,-0.51,8.10,-0.51,0.56,0.32,0.68,8.66,8.65,8.61
32.24,8.06,-0.54,8.06,-0.54,0.56,0.28,0.67,8.62,8.62,8.60
32.57,8.01,-0.58,8.01,-0.58,0.57,0.25,0.67,8.58,8.58,8.60
32.89,7.97,-0.62,7.98,-0.61,0.57,0.22,0.66,8.54,8.55,8.59
33.22,7.96,-0.62,7.96,-0.62,0.57,0.20,0.65,8.53,8.53,8.58
33.55,7.97,-0.60,7.98,-0.59,0.55,0.18,0.65,8.52,8.53,8.57
33.89,8.01,-0.55,8.01,-0.55,0.53,0.16,0.64,8.54,8.54,8.56
34.23,8.06,-0.49,8.06,-0.49,0.50,0.15,0.63,8.56,8.55,8.55
34.57,8.10,-0.43,8.10,-0.43,0.46,0.13,0.61,8.56,8.56,8.53
34.92,8.13,-0.39,8.13,-0.40,0.42,0.12,0.60,8.55,8.55,8.52
35.27,8.14,-0.37,8.14,-0.37,0.40,0.11,0.59,8.53,8.53,8.51
35.62,8.13,-0.37,8.13,-0.37,0.38,0.09,0.58,8.52,8.52,8.50
35.97,8.11,-0.37,8.11,-0.37,0.39,0.08,0.56,8.50,8.50,8.49
36.33,8.08,-0.39,8.08,-0.39,0.40,0.08,0.55,8.48,8.48,8.47
36.70,8.04,-0.42,8.04,-0.42,0.43,0.07,0.53,8.47,8.46,8.46
37.06,7.99,-0.45,7.98,-0.45,0.46,0.06,0.52,8.44,8.44,8.44
37.43,7.93,-0.49,7.93,-0.49,0.48,0.05,0.50,8.41,8.41,8.42
37.81,7.89,-0.51,7.89,-0.52,0.49,0.05,0.49,8.38,8.38,8.40
38.19,7.85,-0.53,7.86,-0.53,0.49,0.04,0.47,8.35,8.35,8.39
38.57,7.85,-0.52,7.85,-0.51,0.48,0.03,0.46,8.33,8.34,8.37
38.95,7.87,-0.48,7.86,-0.48,0.46,0.03,0.44,8.33,8.32,8.34
39.34,7.89,-0.43,7.89,-0.43,0.43,0.02,0.42,8.32,8.32,8.32
39.74,7.92,-0.38,7.92,-0.38,0.39,0.02,0.41,8.31,8.31,8.30
40.14,7.94,-0.33,7.94,-0.33,0.35,0.02,0.39,8.30,8.30,8.28
40.54,7.96,-0.29,7.96,-0.30,0.32,0.01,0.38,8.28,8.28,8.26
40.94,7.96,-0.27,7.96,-0.27,0.29,0.01,0.36,8.26,8.26,8.24
41.35,7.95,-0.26,7.95,-0.26,0.28,0.00,0.35,8.23,8.23,8.22
41.76,7.93,-0.26,7.93,-0.27,0.27,-0.00,0.33,8.20,8.20,8.19
42.18,7.90,-0.27,7.90,-0.27,0.26,-0.00,0.32,8.16,8.16,8.17
42.60,7.87,-0.28,7.87,-0.27,0.26,-0.01,0.30,8.13,8.13,8.14
43.03,7.84,-0.27,7.84,-0.27,0.26,-0.01,0.29,8.10,8.10,8.11
43.46,7.82,-0.27,7.82,-0.27,0.26,-0.01,0.27,8.08,8.08,8.09
43.90,7.81,-0.25,7.81,-0.25,0.25,-0.02,0.26,8.06,8.06,8.07
44.33,7.80,-0.24,7.80,-0.24,0.24,-0.02,0.24,8.04,8.04,8.04
44.78,7.79,-0.22,7.79,-0.22,0.23,-0.02,0.23,8.02,8.02,8.01
45.23,7.78,-0.21,7.78,-0.21,0.22,-0.03,0.21,7.99,7.99,7.98
45.68,7.76,-0.20,7.76,-0.20,0.20,-0.03,0.20,7.96,7.96,7.96
46.13,7.74,-0.19,7.74,-0.19,0.19,-0.03,0.19,7.93,7.93,7.93
46.60,7.72,-0.19,7.72,-0.18,0.18,-0.03,0.17,7.89,7.90,7.90
47.06,7.70,-0.17,7.70,-0.17,0.16,-0.04,0.16,7.86,7.86,7.87
47.53,7.69,-0.15,7.69,-0.15,0.14,-0.04,0.15,7.83,7.83,7.84
48.01,7.68,-0.12,7.68,-0.13,0.12,-0.04,0.14,7.81,7.81,7.81
48.49,7.68,-0.10,7.68,-0.10,0.10,-0.04,0.12,7.78,7.78,7.78
48.97,7.67,-0.08,7.67,-0.08,0.08,-0.05,0.11,7.75,7.75,7.75
49.46,7.66,-0.06,7.66,-0.06,0.06,-0.05,0.10,7.72,7.72,7.72
49.96,7.65,-0.03,7.65,-0.04,0.04,-0.05,0.09,7.69,7.69,7.68
50.46,7.63,-0.02,7.63,-0.02,0.03,-0.06,0.08,7.65,7.66,7.65
50.96,7.60,-0.02,7.60,-0.02,0.02,-0.06,0.06,7.62,7.62,7.62
51.47,7.57,-0.02,7.57,-0.01,0.01,-0.06,0.05,7.59,7.59,7.59
51.99,7.54,-0.01,7.54,-0.01,0.01,-0.06,0.04,7.55,7.55,7.55
52.51,7.51,-0.01,7.51,-0.01,0.01,-0.07,0.03,7.52,7.52,7.51
53.03,7.47,-0.00,7.47,-0.01,0.01,-0.07,0.02,7.48,7.48,7.47
53.56,7.42,-0.02,7.42,-0.02,0.02,-0.07,0.01,7.44,7.44,7.44
54.10,7.38,-0.03,7.38,-0.03,0.02,-0.07,-0.00,7.40,7.40,7.41
54.64,7.34,-0.03,7.34,-0.03,0.02,-0.08,-0.01,7.36,7.36,7.38
55.18,7.31,-0.02,7.31,-0.02,0.02,-0.08,-0.02,7.33,7.33,7.33
55.74,7.28,-0.01,7.28,-0.02,0.01,-0.08,-0.03,7.29,7.29,7.29
56.29,7.25,-0.00,7.25,-0.01,0.01,-0.09,-0.04,7.25,7.25,7.25
56.86,7.22,0.00,7.22,0.00,-0.01,-0.09,-0.05,7.21,7.21,7.22
57.42,7.20,0.02,7.20,0.02,-0.03,-0.09,-0.06,7.17,7.17,7.18
58.00,7.18,0.04,7.18,0.04,-0.04,-0.09,-0.07,7.14,7.14,7.14
58.58,7.16,0.07,7.16,0.07,-0.06,-0.10,-0.08,7.10,7.10,7.09
59.16,7.15,0.09,7.14,0.09,-0.08,-0.10,-0.09,7.06,7.06,7.05
59.76,7.12,0.10,7.12,0.10,-0.10,-0.10,-0.10,7.02,7.02,7.02
60.35,7.10,0.11,7.10,0.12,-0.12,-0.11,-0.10,6.98,6.98,6.98
60.96,7.07,0.13,7.07,0.13,-0.13,-0.11,-0.11,6.94,6.94,6.94
61.57,7.04,0.14,7.04,0.14,-0.14,-0.11,-0.12,6.90,6.90,6.89
62.18,7.00,0.15,7.00,0.15,-0.15,-0.12,-0.13,6.86,6.86,6.85
62.80,6.97,0.16,6.97,0.16,-0.15,-0.12,-0.13,6.81,6.81,6.81
63.43,6.93,0.16,6.93,0.16,-0.16,-0.12,-0.14,6.77,6.77,6.77
64.07,6.89,0.15,6.89,0.16,-0.16,-0.13,-0.15,6.73,6.73,6.74
64.71,6.85,0.16,6.85,0.16,-0.16,-0.13,-0.16,6.69,6.69,6.69
65.35,6.81,0.17,6.81,0.17,-0.17,-0.13,-0.16,6.64,6.64,6.64
66.01,6.77,0.18,6.77,0.18,-0.17,-0.14,-0.17,6.60,6.60,6.59
66.67,6.73,0.18,6.73,0.18,-0.18,-0.14,-0.18,6.56,6.56,6.56
67.33,6.70,0.18,6.70,0.18,-0.19,-0.15,-0.18,6.51,6.51,6.52
68.01,6.66,0.19,6.66,0.19,-0.20,-0.15,-0.19,6.47,6.47,6.47
68.69,6.63,0.20,6.63,0.20,-0.21,-0.16,-0.19,6.42,6.42,6.43
69.37,6.60,0.21,6.60,0.22,-0.22,-0.16,-0.20,6.38,6.38,6.38
70.07,6.56,0.24,6.56,0.23,-0.23,-0.16,-0.21,6.34,6.34,6.33
70.77,6.53,0.25,6.53,0.24,-0.24,-0.17,-0.21,6.29,6.29,6.28
71.48,6.50,0.25,6.50,0.26,-0.26,-0.17,-0.22,6.24,6.24,6.25
72.19,6.47,0.26,6.47,0.27,-0.27,-0.18,-0.23,6.20,6.20,6.21
72.91,6.44,0.28,6.44,0.28,-0.28,-0.18,-0.23,6.16,6.16,6.15
73.64,6.40,0.29,6.40,0.29,-0.29,-0.19,-0.24,6.11,6.11,6.11
74.38,6.36,0.30,6.36,0.30,-0.29,-0.19,-0.25,6.07,6.07,6.06
75.12,6.31,0.30,6.31,0.30,-0.29,-0.20,-0.25,6.02,6.02,6.01
75.87,6.26,0.31,6.26,0.30,-0.30,-0.20,-0.26,5.97,5.97,5.96
76.63,6.22,0.30,6.22,0.29,-0.30,-0.21,-0.27,5.92,5.92,5.92
77.40,6.17,0.28,6.17,0.29,-0.31,-0.21,-0.27,5.86,5.86,5.89
78.17,6.13,0.30,6.13,0.30,-0.31,-0.22,-0.28,5.81,5.81,5.83
78.95,6.09,0.32,6.09,0.31,-0.32,-0.23,-0.29,5.77,5.77,5.77
79.74,6.06,0.32,6.06,0.33,-0.33,-0.23,-0.30,5.72,5.72,5.73
80.54,6.02,0.35,6.02,0.35,-0.34,-0.24,-0.30,5.68,5.68,5.67
81.35,5.99,0.38,5.99,0.37,-0.35,-0.24,-0.31,5.64,5.64,5.62
82.16,5.96,0.38,5.96,0.38,-0.37,-0.25,-0.32,5.59,5.59,5.58
82.98,5.92,0.38,5.92,0.38,-0.38,-0.26,-0.33,5.54,5.54,5.54
83.81,5.88,0.38,5.88,0.38,-0.39,-0.26,-0.34,5.49,5.49,5.50
84.65,5.83,0.39,5.83,0.39,-0.40,-0.27,-0.35,5.44,5.44,5.44
85.50,5.79,0.40,5.79,0.40,-0.40,-0.28,-0.36,5.39,5.39,5.39
86.35,5.75,0.40,5.75,0.41,-0.41,-0.29,-0.37,5.34,5.34,5.35
87.22,5.71,0.42,5.71,0.42,-0.42,-0.29,-0.38,5.29,5.29,5.28
88.09,5.66,0.44,5.66,0.43,-0.43,-0.30,-0.39,5.24,5.24,5.22
88.97,5.62,0.44,5.62,0.44,-0.43,-0.31,-0.40,5.19,5.19,5.18
89.86,5.57,0.43,5.57,0.44,-0.43,-0.32,-0.42,5.14,5.14,5.14
90.76,5.52,0.44,5.52,0.44,-0.43,-0.32,-0.43,5.09,5.09,5.09
91.66,5.47,0.44,5.47,0.43,-0.43,-0.33,-0.44,5.04,5.04,5.04
92.58,5.42,0.43,5.42,0.42,-0.43,-0.34,-0.45,4.99,4.99,5.00
93.51,5.37,0.41,5.37,0.42,-0.43,-0.35,-0.47,4.94,4.94,4.96
94.44,5.32,0.42,5.32,0.42,-0.42,-0.36,-0.48,4.89,4.89,4.90
95.39,5.26,0.42,5.26,0.42,-0.42,-0.36,-0.49,4.84,4.84,4.84
96.34,5.21,0.42,5.21,0.42,-0.41,-0.37,-0.51,4.79,4.79,4.78
97.30,5.15,0.40,5.15,0.41,-0.41,-0.38,-0.52,4.74,4.74,4.74
98.28,5.09,0.40,5.09,0.40,-0.40,-0.39,-0.54,4.69,4.69,4.69
99.26,5.03,0.40,5.03,0.40,-0.40,-0.40,-0.55,4.63,4.63,4.63
100.25,4.97,0.40,4.97,0.39,-0.39,-0.41,-0.56,4.58,4.58,4.57
101.25,4.91,0.38,4.91,0.38,-0.38,-0.42,-0.58,4.53,4.53,4.53
102.27,4.84,0.37,4.84,0.37,-0.37,-0.43,-0.59,4.48,4.48,4.48
103.29,4.78,0.36,4.78,0.36,-0.36,-0.44,-0.61,4.43,4.43,4.42
104.32,4.73,0.35,4.73,0.36,-0.35,-0.45,-0.62,4.38,4.38,4.37
105.37,4.67,0.36,4.67,0.35,-0.35,-0.46,-0.64,4.33,4.32,4.32
106.42,4.62,0.35,4.62,0.34,-0.35,-0.47,-0.65,4.27,4.27,4.27
107.48,4.58,0.32,4.58,0.35,-0.36,-0.47,-0.66,4.22,4.22,4.26
108.56,4.55,0.37,4.55,0.37,-0.38,-0.48,-0.68,4.17,4.17,4.18
109.64,4.53,0.41,4.53,0.40,-0.41,-0.49,-0.69,4.12,4.12,4.12
110.74,4.52,0.45,4.52,0.44,-0.45,-0.50,-0.70,4.08,4.08,4.07
111.85,4.52,0.48,4.52,0.48,-0.49,-0.51,-0.71,4.03,4.03,4.04
112.97,4.53,0.53,4.53,0.53,-0.54,-0.52,-0.72,3.99,3.99,4.00
114.10,4.53,0.58,4.53,0.59,-0.59,-0.53,-0.73,3.94,3.94,3.94
115.24,4.52,0.65,4.52,0.64,-0.63,-0.54,-0.74,3.89,3.89,3.88
116.39,4.51,0.69,4.51,0.69,-0.67,-0.55,-0.75,3.84,3.84,3.82
117.55,4.49,0.72,4.49,0.72,-0.70,-0.55,-0.75,3.79,3.79,3.77
118.73,4.46,0.73,4.46,0.73,-0.73,-0.56,-0.76,3.73,3.73,3.73
119.92,4.42,0.73,4.42,0.74,-0.74,-0.57,-0.76,3.69,3.69,3.69
121.12,4.38,0.74,4.37,0.74,-0.73,-0.58,-0.76,3.64,3.64,3.64
122.33,4.32,0.74,4.32,0.73,-0.72,-0.58,-0.76,3.60,3.60,3.59
123.55,4.26,0.72,4.26,0.72,-0.71,-0.59,-0.76,3.55,3.56,3.54
124.79,4.20,0.69,4.20,0.69,-0.69,-0.59,-0.76,3.51,3.51,3.51
126.03,4.14,0.66,4.14,0.66,-0.67,-0.60,-0.76,3.47,3.47,3.48
127.29,4.08,0.63,4.08,0.63,-0.66,-0.60,-0.75,3.43,3.43,3.45
128.57,4.02,0.62,4.02,0.62,-0.64,-0.61,-0.75,3.38,3.38,3.41
129.85,3.96,0.62,3.96,0.62,-0.63,-0.61,-0.74,3.33,3.33,3.34
131.15,3.91,0.62,3.91,0.62,-0.62,-0.61,-0.73,3.29,3.29,3.28
132.46,3.85,0.62,3.85,0.62,-0.61,-0.61,-0.72,3.24,3.24,3.22
133.79,3.79,0.62,3.79,0.62,-0.59,-0.61,-0.71,3.20,3.20,3.17
135.12,3.73,0.60,3.73,0.59,-0.58,-0.61,-0.69,3.15,3.15,3.14
136.48,3.67,0.57,3.67,0.56,-0.56,-0.61,-0.68,3.11,3.11,3.11
137.84,3.61,0.53,3.61,0.53,-0.54,-0.61,-0.66,3.07,3.07,3.09
139.22,3.55,0.50,3.55,0.50,-0.52,-0.61,-0.65,3.04,3.04,3.05
140.61,3.50,0.48,3.50,0.48,-0.50,-0.60,-0.63,3.00,3.00,3.01
142.02,3.44,0.47,3.44,0.47,-0.48,-0.60,-0.61,2.96,2.96,2.97
143.44,3.38,0.46,3.38,0.46,-0.46,-0.60,-0.59,2.92,2.92,2.92
144.87,3.33,0.45,3.33,0.45,-0.45,-0.59,-0.57,2.88,2.88,2.87
146.32,3.27,0.45,3.27,0.44,-0.44,-0.58,-0.55,2.83,2.83,2.83
147.78,3.22,0.44,3.22,0.44,-0.44,-0.57,-0.53,2.78,2.78,2.78
149.26,3.17,0.43,3.17,0.43,-0.43,-0.56,-0.51,2.73,2.73,2.73
150.75,3.12,0.43,3.12,0.43,-0.43,-0.55,-0.49,2.68,2.68,2.68
152.26,3.07,0.43,3.07,0.43,-0.43,-0.54,-0.46,2.64,2.64,2.64
153.78,3.02,0.43,3.02,0.43,-0.43,-0.53,-0.44,2.59,2.59,2.59
155.32,2.98,0.42,2.98,0.43,-0.43,-0.52,-0.42,2.55,2.55,2.55
156.88,2.93,0.43,2.93,0.43,-0.43,-0.50,-0.40,2.51,2.51,2.51
158.44,2.89,0.43,2.89,0.43,-0.43,-0.49,-0.38,2.46,2.46,2.46
160.03,2.85,0.43,2.85,0.43,-0.42,-0.47,-0.35,2.42,2.42,2.42
161.63,2.80,0.42,2.80,0.42,-0.42,-0.46,-0.33,2.38,2.38,2.38
163.24,2.75,0.41,2.75,0.41,-0.41,-0.44,-0.31,2.34,2.34,2.34
164.88,2.70,0.40,2.70,0.40,-0.40,-0.42,-0.29,2.30,2.30,2.30
166.53,2.65,0.39,2.65,0.39,-0.39,-0.40,-0.26,2.26,2.26,2.26
168.19,2.59,0.37,2.59,0.37,-0.37,-0.38,-0.24,2.22,2.22,2.22
169.87,2.53,0.35,2.53,0.35,-0.35,-0.36,-0.22,2.19,2.19,2.18
171.57,2.48,0.33,2.48,0.33,-0.33,-0.34,-0.20,2.15,2.15,2.15
173.29,2.42,0.30,2.42,0.30,-0.30,-0.32,-0.18,2.12,2.12,2.12
175.02,2.36,0.27,2.36,0.27,-0.28,-0.30,-0.16,2.09,2.09,2.09
176.77,2.30,0.24,2.30,0.24,-0.25,-0.28,-0.13,2.06,2.06,2.06
178.54,2.24,0.22,2.24,0.22,-0.22,-0.25,-0.11,2.03,2.03,2.03
180.32,2.19,0.19,2.19,0.19,-0.19,-0.23,-0.09,2.00,2.00,2.00
182.13,2.13,0.16,2.13,0.16,-0.16,-0.21,-0.07,1.97,1.97,1.97
183.95,2.07,0.13,2.07,0.13,-0.13,-0.18,-0.05,1.94,1.94,1.94
185.79,2.02,0.10,2.02,0.10,-0.10,-0.16,-0.03,1.91,1.91,1.91
187.65,1.96,0.07,1.96,0.08,-0.08,-0.13,-0.01,1.88,1.88,1.89
189.52,1.91,0.05,1.91,0.05,-0.05,-0.11,0.01,1.86,1.86,1.85
191.42,1.85,0.03,1.85,0.03,-0.03,-0.08,0.03,1.83,1.83,1.83
193.33,1.80,0.00,1.80,0.00,-0.00,-0.06,0.05,1.80,1.80,1.80
195.27,1.76,-0.02,1.76,-0.02,0.02,-0.03,0.07,1.77,1.77,1.78
197.22,1.71,-0.04,1.71,-0.04,0.04,-0.00,0.09,1.75,1.75,1.75
199.19,1.67,-0.05,1.67,-0.05,0.05,0.02,0.11,1.72,1.72,1.73
201.18,1.64,-0.06,1.64,-0.06,0.06,0.05,0.13,1.70,1.70,1.70
203.19,1.61,-0.07,1.62,-0.07,0.06,0.08,0.15,1.67,1.67,1.68
205.23,1.59,-0.07,1.59,-0.07,0.06,0.11,0.17,1.65,1.65,1.66
207.28,1.57,-0.07,1.57,-0.07,0.06,0.14,0.19,1.63,1.63,1.64
209.35,1.55,-0.06,1.55,-0.06,0.06,0.16,0.21,1.62,1.62,1.61
211.44,1.53,-0.05,1.53,-0.06,0.07,0.19,0.23,1.60,1.60,1.58
213.56,1.50,-0.06,1.50,-0.06,0.08,0.22,0.25,1.59,1.58,1.57
215.69,1.47,-0.09,1.47,-0.09,0.10,0.25,0.27,1.56,1.57,1.56
217.85,1.43,-0.12,1.43,-0.12,0.12,0.28,0.29,1.55,1.55,1.55
220.03,1.39,-0.15,1.39,-0.15,0.14,0.31,0.31,1.53,1.53,1.54
222.23,1.34,-0.18,1.34,-0.18,0.17,0.34,0.33,1.51,1.52,1.52
224.45,1.29,-0.21,1.29,-0.21,0.21,0.37,0.35,1.50,1.50,1.50
226.70,1.25,-0.24,1.25,-0.24,0.24,0.40,0.37,1.49,1.49,1.49
228.96,1.20,-0.28,1.20,-0.28,0.28,0.42,0.39,1.47,1.47,1.48
231.25,1.15,-0.31,1.15,-0.31,0.31,0.45,0.40,1.46,1.46,1.46
233.57,1.10,-0.35,1.10,-0.35,0.35,0.48,0.42,1.45,1.45,1.45
235.90,1.05,-0.38,1.05,-0.38,0.38,0.51,0.44,1.43,1.43,1.43
238.26,1.00,-0.42,1.00,-0.42,0.42,0.55,0.46,1.42,1.42,1.42
240.64,0.95,-0.46,0.95,-0.46,0.46,0.58,0.48,1.41,1.41,1.41
243.05,0.90,-0.50,0.90,-0.50,0.50,0.61,0.50,1.40,1.40,1.40
245.48,0.85,-0.54,0.85,-0.54,0.54,0.64,0.52,1.40,1.39,1.39
247.93,0.81,-0.58,0.81,-0.58,0.58,0.67,0.54,1.39,1.39,1.39
250.41,0.76,-0.62,0.76,-0.62,0.62,0.70,0.56,1.38,1.38,1.38
252.92,0.71,-0.66,0.71,-0.66,0.66,0.73,0.58,1.37,1.37,1.37
255.45,0.66,-0.70,0.66,-0.70,0.70,0.76,0.61,1.36,1.36,1.37
258.00,0.61,-0.74,0.62,-0.74,0.74,0.80,0.63,1.36,1.36,1.36
260.58,0.57,-0.78,0.57,-0.78,0.78,0.83,0.65,1.35,1.35,1.35
263.19,0.52,-0.82,0.52,-0.82,0.82,0.86,0.67,1.34,1.34,1.34
265.82,0.48,-0.86,0.48,-0.86,0.86,0.89,0.69,1.34,1.34,1.34
268.48,0.44,-0.90,0.44,-0.90,0.90,0.93,0.71,1.33,1.34,1.33
271.16,0.40,-0.93,0.39,-0.94,0.94,0.96,0.73,1.33,1.33,1.33
273.87,0.35,-0.98,0.35,-0.98,0.98,0.99,0.76,1.33,1.33,1.33
276.61,0.31,-1.02,0.31,-1.02,1.02,1.03,0.78,1.33,1.33,1.33
279.38,0.27,-1.06,0.27,-1.06,1.06,1.06,0.80,1.32,1.32,1.32
282.17,0.22,-1.10,0.22,-1.10,1.10,1.09,0.83,1.32,1.32,1.32
284.99,0.18,-1.14,0.18,-1.14,1.14,1.13,0.85,1.32,1.32,1.32
287.84,0.14,-1.18,0.14,-1.18,1.18,1.16,0.88,1.32,1.32,1.32
290.72,0.09,-1.22,0.09,-1.22,1.22,1.20,0.90,1.31,1.31,1.31
293.63,0.05,-1.26,0.05,-1.26,1.26,1.23,0.93,1.31,1.31,1.31
296.57,0.01,-1.30,0.01,-1.30,1.30,1.27,0.96,1.31,1.31,1.31
299.53,-0.03,-1.34,-0.03,-1.34,1.34,1.31,0.99,1.31,1.31,1.31
302.53,-0.07,-1.38,-0.07,-1.38,1.38,1.34,1.01,1.31,1.31,1.31
305.55,-0.11,-1.42,-0.11,-1.42,1.42,1.38,1.04,1.31,1.31,1.31
308.61,-0.14,-1.46,-0.14,-1.46,1.45,1.41,1.07,1.31,1.31,1.31
311.69,-0.18,-1.49,-0.18,-1.49,1.49,1.45,1.11,1.31,1.31,1.31
314.81,-0.22,-1.53,-0.22,-1.53,1.53,1.49,1.14,1.31,1.31,1.31
317.96,-0.26,-1.57,-0.26,-1.57,1.57,1.52,1.17,1.31,1.31,1.31
321.14,-0.29,-1.61,-0.29,-1.61,1.61,1.56,1.21,1.31,1.31,1.31
324.35,-0.33,-1.64,-0.33,-1.64,1.65,1.60,1.24,1.31,1.31,1.31
327.59,-0.37,-1.68,-0.37,-1.68,1.69,1.64,1.28,1.32,1.32,1.31
330.87,-0.41,-1.72,-0.41,-1.72,1.72,1.67,1.32,1.32,1.32,1.32
334.18,-0.44,-1.77,-0.44,-1.76,1.76,1.71,1.36,1.32,1.32,1.32
337.52,-0.48,-1.80,-0.48,-1.80,1.80,1.75,1.40,1.32,1.32,1.33
340.90,-0.51,-1.84,-0.51,-1.84,1.84,1.79,1.44,1.33,1.33,1.33
344.30,-0.55,-1.87,-0.55,-1.88,1.88,1.82,1.48,1.33,1.33,1.33
347.75,-0.58,-1.91,-0.58,-1.91,1.91,1.86,1.53,1.33,1.33,1.33
351.23,-0.61,-1.95,-0.61,-1.95,1.95,1.90,1.57,1.33,1.33,1.34
354.74,-0.65,-1.98,-0.65,-1.98,1.98,1.94,1.62,1.34,1.34,1.34
358.28,-0.68,-2.01,-0.68,-2.01,2.02,1.97,1.67,1.34,1.34,1.34
361.87,-0.71,-2.05,-0.71,-2.05,2.05,2.01,1.72,1.34,1.34,1.34
365.49,-0.74,-2.09,-0.74,-2.09,2.09,2.05,1.77,1.35,1.35,1.35
369.14,-0.77,-2.12,-0.77,-2.12,2.12,2.08,1.82,1.35,1.35,1.35
372.83,-0.81,-2.16,-0.81,-2.16,2.16,2.12,1.87,1.35,1.35,1.35
376.56,-0.84,-2.19,-0.84,-2.19,2.19,2.16,1.92,1.35,1.35,1.36
380.33,-0.87,-2.22,-0.87,-2.22,2.22,2.19,1.98,1.35,1.35,1.36
384.13,-0.90,-2.25,-0.90,-2.25,2.25,2.23,2.04,1.36,1.36,1.36
387.97,-0.93,-2.28,-0.93,-2.28,2.28,2.26,2.09,1.36,1.36,1.36
391.85,-0.96,-2.31,-0.96,-2.31,2.31,2.30,2.15,1.36,1.36,1.36
395.77,-0.98,-2.34,-0.98,-2.34,2.34,2.33,2.21,1.36,1.36,1.35
399.73,-1.01,-2.37,-1.01,-2.37,2.37,2.36,2.27,1.36,1.36,1.36
403.72,-1.04,-2.40,-1.04,-2.40,2.40,2.39,2.33,1.36,1.36,1.36
407.76,-1.07,-2.44,-1.07,-2.44,2.43,2.43,2.39,1.36,1.36,1.37
411.84,-1.10,-2.47,-1.10,-2.47,2.46,2.46,2.45,1.36,1.36,1.37
415.96,-1.12,-2.49,-1.12,-2.49,2.49,2.49,2.51,1.36,1.36,1.37
420.12,-1.15,-2.51,-1.15,-2.51,2.51,2.52,2.57,1.36,1.36,1.37
424.32,-1.17,-2.53,-1.17,-2.53,2.53,2.54,2.63,1.36,1.36,1.36
428.56,-1.20,-2.55,-1.20,-2.55,2.56,2.57,2.68,1.36,1.36,1.35
432.85,-1.22,-2.57,-1.22,-2.58,2.58,2.60,2.74,1.36,1.36,1.35
437.18,-1.25,-2.60,-1.25,-2.60,2.60,2.62,2.80,1.35,1.35,1.35
441.55,-1.27,-2.62,-1.27,-2.62,2.62,2.64,2.85,1.35,1.35,1.35
445.96,-1.29,-2.64,-1.29,-2.64,2.64,2.67,2.90,1.35,1.35,1.35
450.42,-1.32,-2.66,-1.32,-2.67,2.66,2.69,2.95,1.34,1.34,1.35
454.93,-1.34,-2.69,-1.34,-2.68,2.68,2.71,3.00,1.34,1.34,1.34
459.48,-1.36,-2.70,-1.36,-2.70,2.70,2.72,3.04,1.33,1.33,1.34
464.07,-1.38,-2.71,-1.38,-2.71,2.71,2.74,3.08,1.33,1.33,1.33
468.71,-1.40,-2.72,-1.40,-2.72,2.73,2.76,3.12,1.32,1.32,1.32
473.40,-1.42,-2.74,-1.42,-2.74,2.74,2.77,3.15,1.32,1.32,1.31
478.13,-1.44,-2.75,-1.44,-2.75,2.75,2.78,3.18,1.31,1.31,1.31
482.91,-1.46,-2.76,-1.46,-2.76,2.76,2.79,3.20,1.30,1.30,1.30
487.74,-1.48,-2.78,-1.48,-2.78,2.77,2.80,3.22,1.29,1.29,1.30
492.62,-1.50,-2.79,-1.50,-2.79,2.78,2.81,3.24,1.29,1.29,1.29
497.55,-1.51,-2.79,-1.51,-2.79,2.79,2.82,3.25,1.27,1.27,1.28
502.52,-1.53,-2.80,-1.53,-2.80,2.79,2.82,3.25,1.26,1.26,1.26
507.55,-1.55,-2.80,-1.55,-2.80,2.80,2.83,3.25,1.25,1.25,1.25
512.62,-1.56,-2.80,-1.56,-2.80,2.80,2.83,3.25,1.24,1.24,1.23
517.75,-1.58,-2.80,-1.58,-2.80,2.80,2.83,3.24,1.22,1.22,1.22
522.93,-1.59,-2.80,-1.59,-2.80,2.80,2.83,3.23,1.21,1.21,1.20
528.16,-1.61,-2.79,-1.61,-2.80,2.80,2.83,3.21,1.19,1.19,1.19
533.44,-1.62,-2.79,-1.62,-2.80,2.79,2.83,3.19,1.17,1.17,1.17
538.77,-1.63,-2.80,-1.63,-2.79,2.79,2.82,3.16,1.16,1.16,1.16
544.16,-1.65,-2.79,-1.65,-2.79,2.78,2.82,3.13,1.14,1.14,1.15
549.60,-1.66,-2.78,-1.66,-2.78,2.77,2.81,3.10,1.12,1.12,1.12
