frequency,raw,error,smoothed,error_smoothed,equalization,parametric_eq,fixed_band_eq,equalized_raw,equalized_smoothed,target
20.00,7.70,-3.87,7.70,-3.87,3.91,-0.04,0.99,11.62,11.62,11.57
20.20,7.71,-3.86,7.71,-3.86,3.87,-0.05,1.02,11.58,11.58,11.57
20.40,7.73,-3.84,7.72,-3.84,3.82,-0.05,1.05,11.55,11.55,11.56
20.61,7.75,-3.81,7.75,-3.81,3.77,-0.05,1.08,11.52,11.53,11.56
20.81,7.79,-3.76,7.79,-3.76,3.73,-0.05,1.11,11.52,11.52,11.55
21.02,7.85,-3.70,7.85,-3.70,3.68,-0.05,1.15,11.52,11.52,11.55
21.23,7.91,-3.63,7.91,-3.63,3.62,-0.05,1.18,11.53,11.53,11.54
21.44,7.98,-3.56,7.98,-3.56,3.57,-0.05,1.22,11.55,11.55,11.54
21.66,8.05,-3.49,8.04,-3.49,3.51,-0.05,1.26,11.55,11.55,11.54
21.87,8.11,-3.43,8.11,-3.43,3.45,-0.05,1.30,11.56,11.56,11.54
22.09,8.17,-3.37,8.17,-3.37,3.39,-0.05,1.34,11.56,11.56,11.54
22.31,8.22,-3.33,8.22,-3.33,3.34,-0.06,1.38,11.56,11.56,11.55
22.54,8.27,-3.28,8.27,-3.28,3.28,-0.06,1.42,11.55,11.55,11.55
22.76,8.32,-3.24,8.32,-3.24,3.23,-0.06,1.46,11.55,11.55,11.56
22.99,8.36,-3.19,8.37,-3.19,3.17,-0.06,1.51,11.54,11.54,11.56
23.22,8.42,-3.13,8.42,-3.13,3.11,-0.06,1.55,11.53,11.53,11.55
23.45,8.48,-3.06,8.48,-3.06,3.04,-0.06,1.60,11.52,11.52,11.54
23.69,8.54,-2.98,8.54,-2.98,2.97,-0.06,1.65,11.51,11.51,11.52
23.92,8.60,-2.90,8.60,-2.90,2.90,-0.06,1.69,11.50,11.50,11.49
24.16,8.65,-2.82,8.65,-2.82,2.84,-0.07,1.74,11.49,11.49,11.47
24.40,8.70,-2.75,8.70,-2.76,2.79,-0.07,1.79,11.49,11.49,11.46
24.65,8.74,-2.71,8.74,-2.71,2.75,-0.07,1.84,11.49,11.49,11.45
24.89,8.77,-2.69,8.77,-2.70,2.73,-0.07,1.89,11.50,11.50,11.46
25.14,8.80,-2.70,8.80,-2.70,2.72,-0.07,1.94,11.51,11.51,11.50
25.39,8.82,-2.71,8.83,-2.71,2.71,-0.07,1.99,11.53,11.53,11.54
25.65,8.85,-2.72,8.86,-2.72,2.69,-0.07,2.04,11.54,11.55,11.58
25.91,8.89,-2.71,8.89,-2.71,2.67,-0.08,2.09,11.55,11.56,11.60
26.16,8.93,-2.68,8.93,-2.68,2.63,-0.08,2.14,11.56,11.56,11.61
26.43,8.97,-2.62,8.97,-2.61,2.58,-0.08,2.19,11.55,11.55,11.59
26.69,9.01,-2.53,9.01,-2.53,2.52,-0.08,2.24,11.53,11.53,11.54
26.96,9.06,-2.43,9.05,-2.43,2.46,-0.08,2.29,11.51,11.51,11.49
27.23,9.09,-2.35,9.09,-2.35,2.40,-0.08,2.33,11.49,11.49,11.44
27.50,9.12,-2.29,9.12,-2.29,2.34,-0.09,2.37,11.46,11.46,11.41
27.77,9.15,-2.25,9.15,-2.26,2.28,-0.09,2.41,11.43,11.43,11.41
28.05,9.18,-2.23,9.18,-2.23,2.23,-0.09,2.45,11.41,11.41,11.41
28.33,9.20,-2.22,9.20,-2.22,2.19,-0.09,2.49,11.39,11.39,11.42
28.62,9.22,-2.19,9.22,-2.19,2.15,-0.09,2.52,11.37,11.37,11.41
28.90,9.24,-2.15,9.24,-2.14,2.12,-0.10,2.55,11.35,11.35,11.39
29.19,9.25,-2.09,9.25,-2.09,2.08,-0.10,2.58,11.33,11.33,11.34
29.48,9.26,-2.03,9.26,-2.03,2.06,-0.10,2.60,11.32,11.32,11.29
29.78,9.27,-1.99,9.27,-1.99,2.03,-0.10,2.62,11.30,11.30,11.25
30.08,9.28,-1.96,9.28,-1.97,2.01,-0.10,2.63,11.28,11.28,11.23
30.38,9.29,-1.96,9.29,-1.96,1.98,-0.11,2.64,11.27,11.27,11.25
30.68,9.31,-1.97,9.31,-1.96,1.95,-0.11,2.64,11.25,11.25,11.27
30.99,9.33,-1.96,9.33,-1.96,1.91,-0.11,2.64,11.24,11.25,11.30
31.30,9.37,-1.92,9.37,-1.92,1.87,-0.11,2.64,11.24,11.24,11.29
31.61,9.41,-1.85,9.41,-1.85,1.81,-0.12,2.63,11.22,11.22,11.27
31.93,9.46,-1.76,9.46,-1.76,1.75,-0.12,2.61,11.21,11.21,11.22
32.24,9.50,-1.66,9.50,-1.66,1.68,-0.12,2.59,11.19,11.19,11.16
32.57,9.55,-1.57,9.55,-1.57,1.61,-0.12,2.57,11.16,11.16,11.12
32.89,9.59,-1.51,9.59,-1.51,1.55,-0.13,2.54,11.14,11.14,11.10
33.22,9.63,-1.47,9.63,-1.47,1.49,-0.13,2.50,11.11,11.11,11.09
33.55,9.66,-1.43,9.66,-1.43,1.43,-0.13,2.46,11.09,11.09,11.09
33.89,9.69,-1.41,9.69,-1.40,1.39,-0.14,2.42,11.08,11.08,11.09
34.23,9.71,-1.37,9.71,-1.37,1.35,-0.14,2.38,11.06,11.06,11.08
34.57,9.73,-1.33,9.73,-1.33,1.32,-0.14,2.33,11.05,11.05,11.07
34.92,9.76,-1.29,9.76,-1.29,1.28,-0.14,2.27,11.04,11.04,11.04
35.27,9.78,-1.24,9.78,-1.24,1.25,-0.15,2.22,11.02,11.02,11.02
35.62,9.80,-1.20,9.80,-1.20,1.21,-0.15,2.16,11.01,11.01,11.00
35.97,9.82,-1.16,9.82,-1.16,1.17,-0.15,2.10,10.99,10.99,10.98
36.33,9.84,-1.12,9.84,-1.12,1.13,-0.16,2.04,10.97,10.97,10.97
36.70,9.86,-1.09,9.86,-1.09,1.10,-0.16,1.98,10.96,10.96,10.95
37.06,9.88,-1.06,9.88,-1.06,1.06,-0.17,1.91,10.94,10.94,10.94
37.43,9.89,-1.03,9.89,-1.03,1.02,-0.17,1.84,10.91,10.91,10.92
37.81,9.90,-0.99,9.90,-0.99,0.98,-0.17,1.78,10.89,10.88,10.89
38.19,9.92,-0.95,9.92,-0.95,0.94,-0.18,1.71,10.86,10.86,10.87
38.57,9.93,-0.90,9.93,-0.90,0.90,-0.18,1.64,10.83,10.83,10.83
38.95,9.95,-0.85,9.95,-0.85,0.85,-0.19,1.57,10.80,10.80,10.80
39.34,9.97,-0.80,9.97,-0.80,0.80,-0.19,1.50,10.78,10.78,10.77
39.74,10.00,-0.75,10.00,-0.75,0.76,-0.19,1.43,10.76,10.76,10.75
40.14,10.02,-0.71,10.02,-0.71,0.72,-0.20,1.37,10.74,10.74,10.73
40.54,10.04,-0.67,10.04,-0.67,0.68,-0.20,1.30,10.72,10.72,10.71
40.94,10.06,-0.63,10.06,-0.63,0.64,-0.21,1.23,10.70,10.70,10.70
41.35,10.08,-0.60,10.08,-0.60,0.60,-0.21,1.16,10.68,10.68,10.68
41.76,10.09,-0.57,10.09,-0.57,0.57,-0.22,1.09,10.66,10.66,10.67
42.18,10.10,-0.54,10.10,-0.54,0.53,-0.22,1.03,10.64,10.64,10.64
42.60,10.11,-0.51,10.11,-0.50,0.50,-0.23,0.96,10.61,10.61,10.62
43.03,10.12,-0.46,10.12,-0.47,0.47,-0.23,0.89,10.59,10.59,10.59
43.46,10.13,-0.43,10.13,-0.43,0.43,-0.24,0.83,10.57,10.57,10.56
43.90,10.14,-0.39,10.14,-0.39,0.40,-0.24,0.76,10.54,10.54,10.53
44.33,10.15,-0.36,10.15,-0.36,0.36,-0.25,0.70,10.51,10.51,10.51
44.78,10.16,-0.33,10.16,-0.33,0.32,-0.26,0.63,10.48,10.48,10.49
45.23,10.17,-0.29,10.17,-0.29,0.28,-0.26,0.57,10.44,10.44,10.46
45.68,10.17,-0.24,10.17,-0.24,0.24,-0.27,0.51,10.41,10.41,10.42
46.13,10.18,-0.19,10.18,-0.19,0.20,-0.28,0.45,10.38,10.38,10.37
46.60,10.19,-0.14,10.19,-0.15,0.16,-0.28,0.38,10.35,10.35,10.33
47.06,10.20,-0.11,10.20,-0.11,0.12,-0.29,0.32,10.32,10.32,10.31
47.53,10.21,-0.08,10.21,-0.08,0.08,-0.30,0.26,10.29,10.29,10.29
48.01,10.22,-0.05,10.22,-0.05,0.05,-0.30,0.20,10.27,10.26,10.27
48.49,10.22,-0.02,10.22,-0.02,0.01,-0.31,0.14,10.24,10.24,10.24
48.97,10.22,0.02,10.22,0.01,-0.02,-0.32,0.09,10.21,10.21,10.21
49.46,10.22,0.05,10.23,0.05,-0.05,-0.33,0.03,10.17,10.18,10.18
49.96,10.23,0.08,10.23,0.08,-0.09,-0.33,-0.03,10.15,10.15,10.15
50.46,10.24,0.12,10.24,0.12,-0.12,-0.34,-0.09,10.12,10.12,10.13
50.96,10.26,0.16,10.26,0.16,-0.16,-0.35,-0.14,10.10,10.10,10.10
51.47,10.27,0.20,10.27,0.20,-0.20,-0.36,-0.20,10.07,10.07,10.07
51.99,10.28,0.24,10.28,0.24,-0.24,-0.37,-0.25,10.04,10.04,10.04
52.51,10.29,0.28,10.29,0.28,-0.28,-0.38,-0.30,10.01,10.01,10.01
53.03,10.30,0.32,10.30,0.32,-0.32,-0.39,-0.36,9.98,9.98,9.98
53.56,10.30,0.36,10.30,0.36,-0.36,-0.40,-0.41,9.94,9.94,9.94
54.10,10.30,0.39,10.30,0.40,-0.40,-0.41,-0.46,9.90,9.90,9.91
54.64,10.31,0.44,10.31,0.44,-0.44,-0.42,-0.51,9.87,9.87,9.87
55.18,10.32,0.48,10.32,0.48,-0.48,-0.43,-0.56,9.84,9.84,9.83
55.74,10.32,0.52,10.32,0.52,-0.51,-0.44,-0.60,9.81,9.81,9.80
56.29,10.33,0.55,10.33,0.55,-0.55,-0.45,-0.65,9.78,9.78,9.77
56.86,10.33,0.59,10.33,0.59,-0.59,-0.47,-0.69,9.74,9.74,9.74
57.42,10.33,0.62,10.33,0.62,-0.63,-0.48,-0.74,9.71,9.71,9.71
58.00,10.34,0.66,10.34,0.66,-0.66,-0.49,-0.78,9.67,9.68,9.68
58.58,10.35,0.69,10.35,0.70,-0.70,-0.51,-0.82,9.65,9.65,9.65
59.16,10.36,0.73,10.36,0.74,-0.74,-0.52,-0.86,9.62,9.62,9.62
59.76,10.37,0.78,10.36,0.78,-0.78,-0.53,-0.89,9.59,9.59,9.58
60.35,10.37,0.83,10.37,0.83,-0.82,-0.55,-0.93,9.55,9.55,9.54
60.96,10.37,0.86,10.37,0.86,-0.85,-0.56,-0.96,9.52,9.52,9.51
61.57,10.37,0.89,10.37,0.89,-0.89,-0.58,-0.99,9.48,9.48,9.48
62.18,10.36,0.92,10.36,0.92,-0.92,-0.60,-1.02,9.44,9.44,9.44
62.80,10.36,0.95,10.36,0.95,-0.96,-0.61,-1.05,9.40,9.40,9.41
63.43,10.36,0.98,10.36,0.98,-0.99,-0.63,-1.08,9.37,9.37,9.37
64.07,10.36,1.02,10.36,1.02,-1.02,-0.65,-1.10,9.34,9.34,9.34
64.71,10.36,1.05,10.36,1.05,-1.05,-0.67,-1.13,9.31,9.31,9.30
65.35,10.36,1.09,10.36,1.09,-1.08,-0.69,-1.15,9.28,9.28,9.27
66.01,10.35,1.12,10.35,1.12,-1.11,-0.71,-1.17,9.24,9.24,9.24
66.67,10.35,1.14,10.35,1.14,-1.14,-0.73,-1.19,9.21,9.21,9.20
67.33,10.34,1.17,10.34,1.17,-1.17,-0.75,-1.21,9.17,9.17,9.17
68.01,10.33,1.19,10.33,1.19,-1.19,-0.78,-1.22,9.14,9.14,9.14
68.69,10.32,1.22,10.32,1.22,-1.22,-0.80,-1.24,9.10,9.10,9.11
69.37,10.32,1.25,10.32,1.25,-1.25,-0.82,-1.25,9.06,9.06,9.07
70.07,10.31,1.28,10.31,1.28,-1.29,-0.85,-1.27,9.03,9.02,9.03
70.77,10.30,1.32,10.30,1.32,-1.32,-0.88,-1.28,8.98,8.98,8.99
71.48,10.30,1.35,10.30,1.35,-1.36,-0.90,-1.29,8.94,8.94,8.94
72.19,10.29,1.39,10.29,1.39,-1.39,-0.93,-1.31,8.90,8.90,8.90
72.91,10.29,1.44,10.29,1.43,-1.43,-0.96,-1.32,8.86,8.86,8.85
73.64,10.29,1.47,10.29,1.47,-1.46,-0.99,-1.33,8.82,8.82,8.81
74.38,10.28,1.50,10.28,1.50,-1.49,-1.02,-1.34,8.79,8.79,8.78
75.12,10.28,1.52,10.28,1.52,-1.52,-1.06,-1.36,8.76,8.76,8.76
75.87,10.27,1.55,10.27,1.55,-1.55,-1.09,-1.37,8.72,8.72,8.73
76.63,10.26,1.57,10.26,1.57,-1.58,-1.13,-1.38,8.69,8.69,8.69
77.40,10.25,1.59,10.25,1.60,-1.60,-1.16,-1.40,8.65,8.65,8.66
78.17,10.24,1.62,10.24,1.62,-1.62,-1.20,-1.41,8.62,8.62,8.62
78.95,10.22,1.65,10.23,1.65,-1.65,-1.24,-1.43,8.58,8.58,8.57
79.74,10.21,1.67,10.21,1.67,-1.67,-1.28,-1.45,8.54,8.54,8.54
80.54,10.20,1.69,10.20,1.69,-1.69,-1.32,-1.46,8.51,8.51,8.51
81.35,10.19,1.72,10.19,1.72,-1.72,-1.37,-1.48,8.47,8.47,8.47
82.16,10.18,1.74,10.18,1.74,-1.75,-1.41,-1.50,8.43,8.43,8.43
82.98,10.17,1.77,10.17,1.77,-1.77,-1.46,-1.52,8.39,8.39,8.40
83.81,10.15,1.80,10.15,1.80,-1.80,-1.50,-1.55,8.35,8.35,8.36
84.65,10.14,1.83,10.14,1.83,-1.83,-1.55,-1.57,8.31,8.31,8.31
85.50,10.13,1.86,10.13,1.86,-1.86,-1.60,-1.59,8.27,8.27,8.27
86.35,10.13,1.89,10.13,1.89,-1.90,-1.65,-1.62,8.23,8.23,8.24
87.22,10.12,1.92,10.12,1.93,-1.93,-1.70,-1.65,8.19,8.19,8.20
88.09,10.12,1.96,10.12,1.96,-1.97,-1.75,-1.67,8.15,8.15,8.16
88.97,10.12,2.00,10.12,2.00,-2.00,-1.80,-1.70,8.12,8.12,8.12
89.86,10.11,2.04,10.11,2.03,-2.03,-1.85,-1.73,8.08,8.08,8.08
90.76,10.10,2.06,10.10,2.06,-2.06,-1.90,-1.77,8.04,8.04,8.04
91.66,10.08,2.08,10.08,2.08,-2.08,-1.96,-1.80,8.00,8.00,8.00
92.58,10.06,2.10,10.06,2.10,-2.10,-2.00,-1.84,7.96,7.96,7.96
93.51,10.03,2.11,10.03,2.11,-2.11,-2.05,-1.87,7.93,7.93,7.92
94.44,10.00,2.12,10.00,2.12,-2.11,-2.10,-1.91,7.89,7.89,7.88
95.39,9.96,2.12,9.95,2.12,-2.10,-2.14,-1.95,7.85,7.85,7.84
96.34,9.91,2.11,9.90,2.11,-2.10,-2.19,-1.99,7.81,7.81,7.79
97.30,9.85,2.09,9.85,2.09,-2.09,-2.23,-2.03,7.76,7.76,7.76
98.28,9.79,2.08,9.79,2.08,-2.10,-2.26,-2.07,7.70,7.70,7.71
99.26,9.75,2.08,9.75,2.08,-2.11,-2.30,-2.11,7.64,7.65,7.67
100.25,9.73,2.09,9.73,2.10,-2.12,-2.33,-2.16,7.60,7.61,7.63
101.25,9.73,2.13,9.73,2.13,-2.15,-2.36,-2.20,7.58,7.58,7.60
102.27,9.74,2.18,9.74,2.18,-2.18,-2.38,-2.25,7.56,7.56,7.56
103.29,9.75,2.23,9.75,2.23,-2.22,-2.40,-2.29,7.53,7.53,7.52
104.32,9.76,2.28,9.76,2.28,-2.26,-2.41,-2.34,7.50,7.50,7.48
105.37,9.76,2.32,9.76,2.32,-2.30,-2.43,-2.38,7.46,7.46,7.44
106.42,9.75,2.35,9.75,2.35,-2.34,-2.43,-2.43,7.41,7.41,7.40
107.48,9.73,2.37,9.73,2.37,-2.36,-2.44,-2.47,7.37,7.37,7.37
108.56,9.71,2.39,9.71,2.39,-2.38,-2.44,-2.51,7.33,7.33,7.32
109.64,9.68,2.40,9.68,2.40,-2.40,-2.44,-2.56,7.28,7.28,7.28
110.74,9.65,2.41,9.65,2.41,-2.41,-2.44,-2.60,7.24,7.24,7.24
111.85,9.62,2.41,9.62,2.42,-2.43,-2.43,-2.64,7.19,7.19,7.20
112.97,9.60,2.43,9.60,2.43,-2.44,-2.42,-2.67,7.16,7.16,7.17
114.10,9.57,2.45,9.58,2.45,-2.45,-2.41,-2.71,7.12,7.12,7.13
115.24,9.56,2.47,9.56,2.47,-2.47,-2.40,-2.74,7.09,7.09,7.09
116.39,9.54,2.49,9.54,2.49,-2.48,-2.39,-2.78,7.06,7.06,7.06
117.55,9.53,2.51,9.52,2.50,-2.50,-2.38,-2.80,7.03,7.03,7.02
118.73,9.50,2.52,9.50,2.51,-2.51,-2.37,-2.83,6.99,6.99,6.98
119.92,9.47,2.52,9.47,2.52,-2.52,-2.36,-2.85,6.95,6.95,6.96
121.12,9.45,2.53,9.45,2.53,-2.53,-2.35,-2.87,6.91,6.91,6.92
122.33,9.42,2.55,9.42,2.54,-2.54,-2.34,-2.89,6.88,6.88,6.87
123.55,9.39,2.55,9.39,2.55,-2.54,-2.33,-2.90,6.84,6.84,6.84
124.79,9.36,2.55,9.35,2.55,-2.55,-2.32,-2.91,6.81,6.81,6.80
126.03,9.32,2.55,9.32,2.55,-2.55,-2.31,-2.92,6.77,6.77,6.77
127.29,9.29,2.55,9.29,2.56,-2.56,-2.30,-2.92,6.73,6.73,6.73
128.57,9.25,2.56,9.25,2.56,-2.57,-2.30,-2.92,6.69,6.69,6.69
129.85,9.22,2.57,9.22,2.57,-2.57,-2.29,-2.91,6.65,6.65,6.66
131.15,9.20,2.58,9.20,2.58,-2.58,-2.29,-2.90,6.61,6.61,6.62
132.46,9.17,2.59,9.17,2.59,-2.59,-2.29,-2.89,6.58,6.58,6.58
133.79,9.14,2.60,9.14,2.60,-2.60,-2.29,-2.88,6.54,6.54,6.54
135.12,9.11,2.61,9.11,2.61,-2.61,-2.30,-2.86,6.50,6.50,6.50
136.48,9.08,2.62,9.08,2.62,-2.62,-2.30,-2.84,6.46,6.46,6.46
137.84,9.04,2.62,9.04,2.62,-2.62,-2.30,-2.82,6.42,6.42,6.42
139.22,9.00,2.62,9.00,2.62,-2.62,-2.31,-2.80,6.38,6.38,6.38
140.61,8.97,2.62,8.97,2.63,-2.62,-2.32,-2.77,6.34,6.34,6.34
142.02,8.93,2.62,8.93,2.62,-2.62,-2.33,-2.75,6.31,6.31,6.30
143.44,8.88,2.62,8.88,2.62,-2.61,-2.34,-2.72,6.27,6.27,6.26
144.87,8.84,2.61,8.84,2.61,-2.61,-2.35,-2.69,6.23,6.23,6.23
146.32,8.79,2.60,8.79,2.60,-2.60,-2.36,-2.66,6.19,6.19,6.19
147.78,8.74,2.59,8.74,2.59,-2.59,-2.38,-2.63,6.15,6.15,6.15
149.26,8.69,2.58,8.69,2.58,-2.58,-2.39,-2.60,6.11,6.11,6.11
150.75,8.64,2.57,8.64,2.57,-2.57,-2.41,-2.57,6.07,6.07,6.08
152.26,8.60,2.56,8.60,2.56,-2.56,-2.42,-2.55,6.04,6.04,6.04
153.78,8.56,2.55,8.56,2.55,-2.55,-2.44,-2.52,6.01,6.01,6.00
155.32,8.51,2.54,8.51,2.54,-2.54,-2.46,-2.49,5.97,5.97,5.97
156.88,8.46,2.53,8.46,2.53,-2.53,-2.48,-2.46,5.93,5.93,5.93
158.44,8.41,2.52,8.41,2.52,-2.52,-2.49,-2.44,5.89,5.89,5.89
160.03,8.37,2.51,8.37,2.51,-2.51,-2.51,-2.41,5.85,5.85,5.85
161.63,8.32,2.51,8.32,2.51,-2.51,-2.53,-2.39,5.81,5.81,5.82
163.24,8.29,2.50,8.29,2.50,-2.51,-2.55,-2.37,5.77,5.77,5.78
164.88,8.25,2.51,8.25,2.51,-2.52,-2.57,-2.35,5.74,5.74,5.75
166.53,8.23,2.52,8.23,2.52,-2.53,-2.59,-2.33,5.70,5.70,5.71
168.19,8.21,2.54,8.21,2.54,-2.55,-2.61,-2.31,5.66,5.66,5.67
169.87,8.20,2.56,8.20,2.56,-2.57,-2.63,-2.30,5.63,5.63,5.63
171.57,8.18,2.59,8.18,2.59,-2.59,-2.64,-2.29,5.60,5.60,5.59
173.29,8.17,2.61,8.17,2.61,-2.61,-2.66,-2.27,5.56,5.56,5.56
175.02,8.16,2.64,8.16,2.64,-2.63,-2.68,-2.26,5.53,5.53,5.53
176.77,8.14,2.65,8.14,2.65,-2.65,-2.69,-2.25,5.50,5.50,5.49
178.54,8.12,2.67,8.12,2.67,-2.66,-2.71,-2.25,5.46,5.46,5.46
180.32,8.10,2.67,8.10,2.67,-2.67,-2.72,-2.24,5.43,5.43,5.43
182.13,8.07,2.68,8.07,2.68,-2.68,-2.73,-2.24,5.39,5.39,5.39
183.95,8.04,2.68,8.04,2.68,-2.68,-2.74,-2.24,5.36,5.36,5.36
185.79,8.01,2.68,8.01,2.68,-2.68,-2.75,-2.24,5.32,5.33,5.33
187.65,7.98,2.68,7.97,2.68,-2.68,-2.76,-2.24,5.30,5.30,5.30
189.52,7.94,2.68,7.94,2.67,-2.67,-2.76,-2.25,5.27,5.26,5.26
191.42,7.89,2.66,7.89,2.67,-2.66,-2.77,-2.25,5.23,5.23,5.23
193.33,7.84,2.65,7.84,2.65,-2.65,-2.77,-2.26,5.20,5.20,5.19
195.27,7.79,2.64,7.79,2.63,-2.63,-2.77,-2.27,5.16,5.16,5.15
197.22,7.73,2.61,7.74,2.61,-2.61,-2.77,-2.28,5.12,5.12,5.13
199.19,7.68,2.58,7.68,2.58,-2.59,-2.77,-2.29,5.09,5.09,5.10
201.18,7.63,2.56,7.63,2.56,-2.57,-2.76,-2.30,5.06,5.06,5.07
203.19,7.59,2.55,7.59,2.55,-2.55,-2.75,-2.31,5.03,5.03,5.04
205.23,7.55,2.53,7.55,2.53,-2.54,-2.74,-2.33,5.01,5.01,5.01
207.28,7.50,2.52,7.50,2.52,-2.52,-2.73,-2.34,4.99,4.99,4.98
209.35,7.46,2.51,7.46,2.50,-2.50,-2.72,-2.36,4.96,4.96,4.95
211.44,7.41,2.49,7.41,2.49,-2.48,-2.70,-2.37,4.93,4.93,4.92
213.56,7.36,2.47,7.36,2.47,-2.47,-2.68,-2.38,4.89,4.89,4.89
215.69,7.31,2.45,7.31,2.45,-2.45,-2.67,-2.40,4.86,4.86,4.86
217.85,7.25,2.42,7.25,2.42,-2.42,-2.64,-2.41,4.83,4.83,4.83
220.03,7.20,2.40,7.20,2.40,-2.40,-2.62,-2.42,4.80,4.80,4.80
222.23,7.15,2.38,7.15,2.38,-2.38,-2.59,-2.43,4.77,4.77,4.77
224.45,7.10,2.36,7.10,2.36,-2.36,-2.57,-2.44,4.74,4.74,4.74
226.70,7.05,2.33,7.05,2.33,-2.33,-2.54,-2.45,4.72,4.72,4.71
228.96,7.00,2.31,7.00,2.31,-2.31,-2.51,-2.46,4.69,4.69,4.69
231.25,6.94,2.28,6.94,2.28,-2.28,-2.47,-2.46,4.66,4.66,4.66
233.57,6.89,2.26,6.89,2.26,-2.26,-2.44,-2.46,4.63,4.63,4.64
235.90,6.84,2.23,6.84,2.23,-2.23,-2.40,-2.46,4.61,4.61,4.61
238.26,6.78,2.20,6.78,2.20,-2.20,-2.37,-2.46,4.58,4.58,4.58
240.64,6.73,2.17,6.73,2.17,-2.17,-2.33,-2.45,4.55,4.55,4.55
243.05,6.67,2.14,6.67,2.15,-2.15,-2.29,-2.44,4.52,4.52,4.53
245.48,6.61,2.12,6.61,2.12,-2.12,-2.25,-2.42,4.50,4.50,4.50
247.93,6.56,2.09,6.56,2.09,-2.09,-2.20,-2.41,4.47,4.47,4.47
250.41,6.50,2.06,6.50,2.06,-2.06,-2.16,-2.39,4.44,4.44,4.44
252.92,6.44,2.03,6.44,2.03,-2.03,-2.12,-2.36,4.42,4.42,4.41
255.45,6.38,1.99,6.38,1.99,-1.99,-2.07,-2.33,4.39,4.39,4.39
258.00,6.32,1.96,6.32,1.96,-1.96,-2.03,-2.30,4.36,4.36,4.37
260.58,6.27,1.93,6.27,1.93,-1.93,-1.98,-2.27,4.33,4.33,4.34
263.19,6.21,1.90,6.21,1.90,-1.90,-1.93,-2.23,4.31,4.31,4.31
265.82,6.15,1.87,6.15,1.87,-1.87,-1.89,-2.19,4.28,4.28,4.28
268.48,6.09,1.84,6.09,1.84,-1.84,-1.84,-2.14,4.25,4.25,4.25
271.16,6.03,1.81,6.03,1.81,-1.81,-1.79,-2.10,4.23,4.23,4.23
273.87,5.97,1.78,5.97,1.78,-1.78,-1.74,-2.05,4.20,4.20,4.20
276.61,5.91,1.74,5.91,1.74,-1.74,-1.70,-1.99,4.17,4.17,4.17
279.38,5.85,1.71,5.85,1.71,-1.71,-1.65,-1.94,4.14,4.14,4.14
282.17,5.79,1.68,5.79,1.68,-1.68,-1.60,-1.88,4.11,4.11,4.11
284.99,5.73,1.64,5.73,1.64,-1.64,-1.55,-1.82,4.09,4.09,4.08
287.84,5.66,1.60,5.67,1.60,-1.60,-1.50,-1.76,4.07,4.07,4.06
290.72,5.60,1.56,5.60,1.56,-1.56,-1.45,-1.70,4.04,4.04,4.04
293.63,5.54,1.52,5.54,1.52,-1.51,-1.40,-1.64,4.03,4.03,4.02
296.57,5.48,1.47,5.48,1.47,-1.47,-1.35,-1.57,4.01,4.01,4.01
299.53,5.42,1.42,5.42,1.42,-1.42,-1.31,-1.51,4.00,4.00,4.00
302.53,5.35,1.37,5.35,1.37,-1.37,-1.26,-1.44,3.98,3.98,3.98
305.55,5.29,1.32,5.29,1.32,-1.32,-1.21,-1.38,3.97,3.97,3.97
308.61,5.22,1.27,5.22,1.27,-1.27,-1.16,-1.31,3.95,3.95,3.96
311.69,5.16,1.22,5.16,1.22,-1.22,-1.11,-1.24,3.94,3.94,3.94
314.81,5.09,1.17,5.09,1.17,-1.17,-1.07,-1.18,3.92,3.92,3.92
317.96,5.03,1.12,5.03,1.12,-1.13,-1.02,-1.11,3.90,3.90,3.91
321.14,4.97,1.08,4.97,1.08,-1.08,-0.97,-1.04,3.89,3.89,3.89
324.35,4.90,1.04,4.90,1.04,-1.04,-0.92,-0.97,3.87,3.87,3.87
327.59,4.84,0.99,4.84,0.99,-0.99,-0.88,-0.91,3.85,3.85,3.85
330.87,4.78,0.95,4.78,0.95,-0.95,-0.83,-0.84,3.83,3.83,3.83
334.18,4.71,0.91,4.71,0.91,-0.91,-0.78,-0.77,3.80,3.80,3.81
337.52,4.65,0.87,4.65,0.87,-0.87,-0.74,-0.71,3.78,3.78,3.78
340.90,4.59,0.83,4.59,0.83,-0.83,-0.69,-0.64,3.76,3.76,3.76
344.30,4.53,0.79,4.53,0.79,-0.79,-0.65,-0.58,3.74,3.74,3.74
347.75,4.47,0.75,4.47,0.75,-0.75,-0.60,-0.51,3.72,3.72,3.72
351.23,4.41,0.70,4.41,0.71,-0.70,-0.55,-0.45,3.71,3.71,3.70
354.74,4.35,0.66,4.35,0.66,-0.66,-0.51,-0.38,3.69,3.69,3.68
358.28,4.29,0.62,4.29,0.62,-0.61,-0.46,-0.32,3.67,3.67,3.67
361.87,4.22,0.57,4.22,0.57,-0.57,-0.42,-0.25,3.65,3.65,3.65
365.49,4.16,0.52,4.16,0.52,-0.52,-0.37,-0.19,3.64,3.64,3.64
369.14,4.09,0.47,4.09,0.47,-0.47,-0.33,-0.13,3.62,3.62,3.62
372.83,4.03,0.42,4.03,0.42,-0.42,-0.28,-0.06,3.60,3.60,3.60
376.56,3.96,0.37,3.96,0.37,-0.37,-0.24,-0.00,3.59,3.59,3.59
380.33,3.89,0.32,3.89,0.32,-0.32,-0.19,0.06,3.57,3.57,3.57
384.13,3.82,0.27,3.82,0.27,-0.27,-0.15,0.12,3.55,3.55,3.55
387.97,3.76,0.22,3.76,0.22,-0.22,-0.10,0.19,3.54,3.54,3.54
391.85,3.69,0.17,3.69,0.17,-0.17,-0.06,0.25,3.52,3.52,3.52
395.77,3.62,0.12,3.62,0.12,-0.12,-0.01,0.31,3.50,3.50,3.50
399.73,3.55,0.06,3.55,0.06,-0.06,0.04,0.37,3.49,3.49,3.49
403.72,3.48,0.01,3.48,0.01,-0.01,0.08,0.43,3.47,3.47,3.47
407.76,3.41,-0.05,3.41,-0.05,0.05,0.13,0.49,3.46,3.46,3.46
411.84,3.34,-0.10,3.34,-0.10,0.10,0.17,0.55,3.44,3.44,3.44
415.96,3.27,-0.15,3.27,-0.15,0.15,0.22,0.61,3.43,3.43,3.43
420.12,3.20,-0.21,3.20,-0.21,0.21,0.27,0.66,3.41,3.41,3.41
424.32,3.13,-0.26,3.13,-0.26,0.26,0.31,0.72,3.40,3.39,3.40
428.56,3.06,-0.32,3.06,-0.32,0.32,0.36,0.78,3.38,3.38,3.38
432.85,2.99,-0.37,2.99,-0.37,0.37,0.41,0.83,3.36,3.36,3.36
437.18,2.92,-0.42,2.92,-0.42,0.42,0.46,0.89,3.34,3.34,3.34
441.55,2.85,-0.47,2.85,-0.47,0.47,0.50,0.94,3.32,3.32,3.32
445.96,2.78,-0.52,2.78,-0.53,0.53,0.55,0.99,3.30,3.30,3.30
450.42,2.71,-0.58,2.71,-0.58,0.58,0.60,1.05,3.28,3.28,3.29
454.93,2.64,-0.63,2.64,-0.63,0.63,0.65,1.10,3.27,3.27,3.27
459.48,2.57,-0.68,2.57,-0.68,0.69,0.70,1.15,3.25,3.25,3.25
464.07,2.50,-0.74,2.50,-0.74,0.74,0.75,1.19,3.24,3.24,3.23
468.71,2.43,-0.80,2.42,-0.79,0.80,0.80,1.24,3.22,3.22,3.22
473.40,2.35,-0.85,2.35,-0.85,0.85,0.86,1.29,3.20,3.20,3.20
478.13,2.28,-0.91,2.28,-0.91,0.91,0.91,1.33,3.19,3.19,3.19
482.91,2.21,-0.97,2.21,-0.97,0.97,0.96,1.37,3.17,3.17,3.17
487.74,2.13,-1.03,2.13,-1.03,1.03,1.02,1.41,3.16,3.16,3.16
492.62,2.06,-1.08,2.06,-1.08,1.08,1.07,1.45,3.15,3.15,3.15
497.55,1.99,-1.14,1.99,-1.14,1.14,1.13,1.49,3.13,3.13,3.14
502.52,1.92,-1.20,1.92,-1.20,1.20,1.18,1.52,3.12,3.12,3.12
507.55,1.85,-1.26,1.85,-1.26,1.26,1.24,1.56,3.11,3.11,3.11
