frequency,raw,error,smoothed,error_smoothed,equalization,parametric_eq,fixed_band_eq,equalized_raw,equalized_smoothed,target
20.00,10.71,-2.45,10.71,-2.47,2.45,2.21,1.24,13.16,13.16,13.16
20.20,10.69,-2.50,10.70,-2.47,2.47,2.27,1.28,13.16,13.16,13.19
20.40,10.67,-2.49,10.67,-2.47,2.48,2.33,1.31,13.15,13.15,13.16
20.61,10.65,-2.44,10.64,-2.48,2.50,2.39,1.35,13.15,13.14,13.09
20.81,10.61,-2.49,10.61,-2.49,2.51,2.45,1.39,13.12,13.12,13.09
21.02,10.56,-2.53,10.56,-2.53,2.53,2.51,1.43,13.09,13.09,13.09
21.23,10.52,-2.58,10.52,-2.57,2.55,2.57,1.48,13.07,13.07,13.09
21.44,10.49,-2.60,10.49,-2.60,2.57,2.62,1.52,13.06,13.06,13.09
21.66,10.48,-2.61,10.48,-2.61,2.59,2.68,1.56,13.07,13.07,13.09
21.87,10.49,-2.61,10.49,-2.62,2.61,2.74,1.61,13.09,13.10,13.09
22.09,10.52,-2.64,10.52,-2.63,2.62,2.79,1.66,13.15,13.15,13.16
22.31,10.58,-2.66,10.57,-2.65,2.64,2.84,1.71,13.22,13.22,13.23
22.54,10.63,-2.67,10.64,-2.67,2.67,2.89,1.75,13.30,13.30,13.31
22.76,10.69,-2.69,10.69,-2.69,2.71,2.93,1.81,13.41,13.41,13.38
22.99,10.75,-2.74,10.74,-2.75,2.78,2.97,1.86,13.53,13.53,13.49
23.22,10.78,-2.83,10.77,-2.84,2.90,3.00,1.91,13.68,13.68,13.61
23.45,10.79,-2.97,10.79,-2.94,3.05,3.03,1.97,13.84,13.84,13.76
23.69,10.79,-3.06,10.79,-3.09,3.19,3.04,2.02,13.98,13.98,13.86
23.92,10.79,-3.23,10.79,-3.26,3.32,3.05,2.08,14.10,14.11,14.02
24.16,10.79,-3.47,10.79,-3.45,3.41,3.04,2.14,14.19,14.19,14.26
24.40,10.80,-3.64,10.80,-3.62,3.45,3.03,2.19,14.24,14.24,14.43
24.65,10.82,-3.72,10.82,-3.73,3.42,2.99,2.25,14.24,14.24,14.53
24.89,10.85,-3.74,10.86,-3.76,3.32,2.95,2.31,14.18,14.18,14.59
25.14,10.90,-3.69,10.90,-3.67,3.16,2.88,2.37,14.06,14.06,14.59
25.39,10.96,-3.48,10.96,-3.39,2.94,2.81,2.43,13.90,13.90,14.44
25.65,11.01,-2.98,11.01,-2.96,2.71,2.72,2.50,13.72,13.72,14.00
25.91,11.06,-2.42,11.06,-2.50,2.47,2.63,2.56,13.54,13.54,13.48
26.16,11.09,-2.12,11.09,-2.15,2.28,2.53,2.62,13.37,13.37,13.21
26.43,11.11,-1.99,11.10,-1.99,2.14,2.43,2.68,13.24,13.24,13.09
26.69,11.10,-2.00,11.10,-1.99,2.08,2.34,2.74,13.17,13.17,13.09
26.96,11.08,-2.06,11.08,-2.05,2.06,2.27,2.80,13.14,13.14,13.13
27.23,11.04,-2.15,11.04,-2.13,2.09,2.23,2.85,13.13,13.13,13.19
27.50,11.00,-2.20,11.00,-2.21,2.16,2.21,2.91,13.16,13.16,13.19
27.77,10.95,-2.30,10.95,-2.31,2.26,2.24,2.97,13.21,13.21,13.25
28.05,10.91,-2.40,10.91,-2.40,2.37,2.28,3.02,13.28,13.28,13.31
28.33,10.87,-2.51,10.87,-2.48,2.48,2.36,3.07,13.36,13.36,13.38
28.62,10.84,-2.55,10.84,-2.56,2.58,2.45,3.12,13.43,13.43,13.39
28.90,10.82,-2.62,10.82,-2.66,2.67,2.54,3.16,13.50,13.50,13.45
29.19,10.81,-2.78,10.81,-2.75,2.76,2.64,3.20,13.57,13.57,13.59
29.48,10.81,-2.86,10.81,-2.84,2.82,2.73,3.24,13.63,13.63,13.67
29.78,10.81,-2.89,10.80,-2.90,2.86,2.81,3.27,13.67,13.67,13.69
30.08,10.80,-2.91,10.80,-2.93,2.89,2.88,3.30,13.69,13.69,13.71
30.38,10.80,-2.97,10.80,-2.94,2.90,2.94,3.33,13.70,13.70,13.77
30.68,10.80,-2.95,10.80,-2.93,2.89,2.99,3.35,13.69,13.69,13.75
30.99,10.80,-2.88,10.80,-2.89,2.88,3.03,3.37,13.68,13.68,13.68
31.30,10.78,-2.83,10.78,-2.84,2.88,3.05,3.38,13.67,13.67,13.62
31.61,10.77,-2.83,10.77,-2.84,2.90,3.07,3.39,13.67,13.67,13.59
31.93,10.75,-2.87,10.75,-2.88,2.96,3.08,3.40,13.70,13.70,13.62
32.24,10.72,-2.96,10.72,-2.95,3.04,3.09,3.40,13.76,13.76,13.68
32.57,10.69,-3.05,10.69,-3.06,3.13,3.08,3.40,13.82,13.82,13.75
32.89,10.67,-3.17,10.67,-3.20,3.22,3.08,3.39,13.89,13.89,13.84
33.22,10.64,-3.36,10.64,-3.36,3.30,3.07,3.38,13.95,13.95,14.00
33.55,10.62,-3.51,10.62,-3.49,3.36,3.05,3.36,13.98,13.98,14.14
33.89,10.61,-3.55,10.61,-3.52,3.38,3.04,3.34,13.99,13.99,14.16
34.23,10.60,-3.47,10.60,-3.44,3.36,3.02,3.32,13.96,13.96,14.08
34.57,10.60,-3.27,10.61,-3.30,3.31,3.00,3.30,13.91,13.92,13.87
34.92,10.61,-3.14,10.61,-3.16,3.23,2.98,3.28,13.84,13.84,13.75
35.27,10.63,-3.06,10.62,-3.05,3.12,2.96,3.25,13.75,13.75,13.68
35.62,10.64,-2.97,10.64,-2.97,3.00,2.94,3.22,13.64,13.64,13.61
35.97,10.64,-2.90,10.64,-2.90,2.89,2.92,3.19,13.54,13.54,13.54
36.33,10.64,-2.83,10.64,-2.83,2.81,2.90,3.16,13.45,13.45,13.47
36.70,10.64,-2.77,10.64,-2.76,2.75,2.89,3.13,13.39,13.39,13.41
37.06,10.64,-2.71,10.64,-2.70,2.72,2.87,3.09,13.36,13.36,13.34
37.43,10.63,-2.66,10.63,-2.67,2.72,2.85,3.06,13.35,13.35,13.29
37.81,10.63,-2.66,10.63,-2.67,2.73,2.84,3.03,13.37,13.37,13.29
38.19,10.63,-2.72,10.63,-2.72,2.77,2.82,3.00,13.40,13.39,13.35
38.57,10.62,-2.80,10.62,-2.79,2.81,2.81,2.96,13.43,13.43,13.42
38.95,10.62,-2.87,10.62,-2.88,2.84,2.80,2.93,13.46,13.46,13.49
39.34,10.61,-2.95,10.61,-2.95,2.88,2.78,2.90,13.49,13.49,13.56
39.74,10.60,-2.99,10.60,-2.99,2.91,2.77,2.88,13.51,13.51,13.59
40.14,10.59,-3.00,10.59,-2.98,2.93,2.77,2.85,13.53,13.53,13.59
40.54,10.58,-2.94,10.58,-2.94,2.95,2.76,2.82,13.53,13.53,13.52
40.94,10.56,-2.89,10.56,-2.89,2.96,2.75,2.80,13.53,13.53,13.45
41.35,10.54,-2.86,10.54,-2.87,2.96,2.75,2.78,13.50,13.50,13.39
41.76,10.51,-2.88,10.51,-2.90,2.96,2.74,2.76,13.47,13.47,13.39
42.18,10.49,-2.95,10.49,-2.95,2.94,2.74,2.74,13.43,13.43,13.44
42.60,10.47,-3.01,10.47,-2.98,2.91,2.74,2.72,13.38,13.38,13.48
43.03,10.45,-2.96,10.45,-2.95,2.87,2.74,2.71,13.32,13.32,13.41
43.46,10.43,-2.84,10.43,-2.85,2.80,2.74,2.69,13.23,13.23,13.27
43.90,10.41,-2.72,10.41,-2.74,2.71,2.74,2.68,13.12,13.12,13.14
44.33,10.40,-2.62,10.40,-2.64,2.59,2.74,2.67,12.99,12.99,13.01
44.78,10.38,-2.55,10.38,-2.51,2.48,2.75,2.67,12.86,12.86,12.93
45.23,10.36,-2.40,10.36,-2.36,2.38,2.75,2.66,12.74,12.74,12.77
45.68,10.35,-2.16,10.35,-2.23,2.32,2.76,2.66,12.67,12.67,12.51
46.13,10.34,-2.16,10.34,-2.16,2.30,2.77,2.66,12.64,12.64,12.49
46.60,10.33,-2.21,10.33,-2.20,2.32,2.77,2.66,12.64,12.64,12.54
47.06,10.32,-2.30,10.32,-2.34,2.37,2.78,2.67,12.68,12.69,12.62
47.53,10.30,-2.52,10.30,-2.49,2.45,2.79,2.67,12.75,12.75,12.82
48.01,10.29,-2.65,10.29,-2.63,2.55,2.80,2.68,12.84,12.84,12.94
48.49,10.27,-2.74,10.27,-2.75,2.67,2.81,2.69,12.94,12.94,13.01
48.97,10.24,-2.84,10.24,-2.82,2.80,2.82,2.70,13.04,13.04,13.08
49.46,10.21,-2.88,10.21,-2.89,2.90,2.83,2.71,13.12,13.12,13.09
49.96,10.18,-2.93,10.18,-2.95,2.99,2.84,2.72,13.17,13.17,13.12
50.46,10.16,-3.02,10.16,-3.02,3.06,2.86,2.74,13.22,13.22,13.19
50.96,10.15,-3.10,10.15,-3.10,3.11,2.87,2.76,13.26,13.26,13.25
51.47,10.14,-3.15,10.14,-3.15,3.13,2.88,2.77,13.27,13.27,13.29
51.99,10.13,-3.16,10.13,-3.15,3.12,2.89,2.79,13.26,13.25,13.29
52.51,10.12,-3.11,10.12,-3.13,3.08,2.91,2.81,13.20,13.20,13.23
53.03,10.10,-3.06,10.10,-3.08,3.01,2.92,2.83,13.11,13.11,13.16
53.56,10.08,-3.00,10.08,-3.00,2.91,2.93,2.85,12.98,12.98,13.08
54.10,10.05,-2.89,10.05,-2.84,2.79,2.94,2.87,12.84,12.84,12.95
54.64,10.03,-2.66,10.03,-2.64,2.68,2.96,2.89,12.70,12.70,12.68
55.18,10.01,-2.39,10.01,-2.48,2.57,2.97,2.90,12.58,12.58,12.39
55.74,10.00,-2.40,10.00,-2.39,2.48,2.98,2.92,12.48,12.48,12.39
56.29,9.98,-2.41,9.98,-2.38,2.43,2.99,2.94,12.41,12.41,12.39
56.86,9.97,-2.43,9.97,-2.42,2.42,3.00,2.95,12.39,12.39,12.39
57.42,9.95,-2.45,9.95,-2.46,2.47,3.01,2.97,12.41,12.41,12.39
58.00,9.92,-2.53,9.92,-2.53,2.57,3.02,2.98,12.49,12.49,12.45
58.58,9.90,-2.64,9.90,-2.65,2.71,3.03,2.99,12.60,12.60,12.54
59.16,9.87,-2.82,9.87,-2.80,2.86,3.04,3.00,12.73,12.73,12.69
59.76,9.84,-2.98,9.84,-3.00,3.01,3.05,3.00,12.85,12.85,12.82
60.35,9.80,-3.18,9.80,-3.20,3.15,3.06,3.01,12.95,12.95,12.98
60.96,9.77,-3.41,9.77,-3.35,3.26,3.06,3.01,13.03,13.03,13.18
61.57,9.75,-3.45,9.75,-3.44,3.33,3.07,3.01,13.08,13.08,13.19
62.18,9.72,-3.43,9.72,-3.45,3.37,3.07,3.00,13.10,13.09,13.15
62.80,9.69,-3.39,9.69,-3.40,3.38,3.08,3.00,13.07,13.07,13.08
63.43,9.67,-3.35,9.67,-3.34,3.35,3.08,2.99,13.02,13.02,13.02
64.07,9.64,-3.27,9.64,-3.26,3.31,3.08,2.97,12.95,12.95,12.91
64.71,9.61,-3.17,9.61,-3.19,3.25,3.08,2.96,12.86,12.86,12.78
65.35,9.58,-3.13,9.58,-3.15,3.19,3.08,2.94,12.78,12.78,12.71
66.01,9.55,-3.14,9.55,-3.13,3.15,3.08,2.92,12.71,12.71,12.69
66.67,9.53,-3.15,9.53,-3.13,3.12,3.08,2.90,12.65,12.65,12.68
67.33,9.50,-3.10,9.50,-3.13,3.11,3.07,2.87,12.61,12.61,12.60
68.01,9.48,-3.11,9.48,-3.11,3.10,3.07,2.84,12.58,12.58,12.59
68.69,9.46,-3.11,9.46,-3.09,3.10,3.06,2.82,12.56,12.56,12.57
69.37,9.43,-3.07,9.43,-3.10,3.10,3.06,2.78,12.53,12.53,12.50
70.07,9.40,-3.10,9.40,-3.09,3.09,3.05,2.75,12.49,12.49,12.49
70.77,9.36,-3.10,9.36,-3.09,3.06,3.04,2.72,12.42,12.43,12.46
71.48,9.33,-3.07,9.33,-3.07,3.02,3.03,2.69,12.35,12.35,12.40
72.19,9.30,-3.03,9.30,-3.04,2.98,3.02,2.65,12.27,12.27,12.33
72.91,9.26,-2.99,9.26,-2.98,2.94,3.00,2.61,12.21,12.21,12.25
73.64,9.23,-2.94,9.23,-2.91,2.93,2.99,2.58,12.16,12.16,12.17
74.38,9.20,-2.83,9.20,-2.86,2.94,2.98,2.54,12.14,12.14,12.03
75.12,9.17,-2.83,9.17,-2.83,2.98,2.96,2.51,12.14,12.14,11.99
75.87,9.13,-2.88,9.13,-2.88,3.03,2.94,2.47,12.16,12.16,12.01
76.63,9.10,-2.98,9.10,-3.02,3.07,2.93,2.44,12.17,12.17,12.08
77.40,9.07,-3.19,9.07,-3.18,3.10,2.91,2.40,12.16,12.16,12.26
78.17,9.03,-3.34,9.03,-3.29,3.10,2.89,2.37,12.13,12.13,12.37
78.95,9.00,-3.31,9.00,-3.32,3.08,2.87,2.34,12.08,12.08,12.31
79.74,8.96,-3.22,8.96,-3.19,3.06,2.85,2.31,12.02,12.02,12.18
80.54,8.92,-3.03,8.92,-2.99,3.04,2.83,2.28,11.96,11.96,11.95
81.35,8.88,-2.74,8.88,-2.81,3.02,2.81,2.25,11.90,11.90,11.62
82.16,8.85,-2.69,8.85,-2.71,2.99,2.78,2.22,11.83,11.83,11.53
82.98,8.81,-2.75,8.81,-2.77,2.95,2.76,2.19,11.76,11.76,11.56
83.81,8.78,-2.92,8.78,-2.93,2.89,2.74,2.17,11.67,11.67,11.70
84.65,8.74,-3.09,8.74,-3.04,2.83,2.71,2.14,11.57,11.57,11.84
85.50,8.70,-3.07,8.71,-3.02,2.76,2.69,2.12,11.47,11.47,11.77
86.35,8.67,-2.87,8.67,-2.86,2.67,2.66,2.10,11.34,11.34,11.54
87.22,8.63,-2.57,8.63,-2.61,2.57,2.64,2.08,11.20,11.20,11.20
88.09,8.60,-2.35,8.60,-2.35,2.45,2.61,2.06,11.05,11.04,10.95
88.97,8.56,-2.17,8.56,-2.15,2.32,2.58,2.05,10.88,10.88,10.73
89.86,8.52,-2.01,8.52,-2.04,2.21,2.56,2.03,10.73,10.73,10.53
90.76,8.48,-2.01,8.48,-2.02,2.13,2.53,2.02,10.61,10.61,10.49
91.66,8.44,-2.08,8.44,-2.08,2.10,2.50,2.01,10.54,10.55,10.52
92.58,8.41,-2.18,8.41,-2.18,2.12,2.48,2.00,10.53,10.53,10.59
93.51,8.38,-2.28,8.38,-2.26,2.17,2.45,1.99,10.55,10.55,10.66
94.44,8.34,-2.32,8.34,-2.30,2.24,2.42,1.98,10.58,10.58,10.66
95.39,8.30,-2.29,8.30,-2.29,2.30,2.40,1.98,10.60,10.60,10.60
96.34,8.26,-2.27,8.26,-2.30,2.33,2.37,1.97,10.59,10.59,10.53
97.30,8.21,-2.32,8.22,-2.34,2.33,2.34,1.97,10.55,10.55,10.53
98.28,8.17,-2.42,8.17,-2.38,2.31,2.31,1.97,10.48,10.48,10.59
99.26,8.13,-2.39,8.13,-2.36,2.28,2.29,1.97,10.41,10.41,10.52
100.25,8.08,-2.27,8.08,-2.28,2.25,2.26,1.97,10.34,10.34,10.35
101.25,8.04,-2.14,8.04,-2.18,2.24,2.24,1.97,10.28,10.28,10.18
102.27,7.99,-2.14,8.00,-2.13,2.24,2.21,1.97,10.24,10.24,10.13
103.29,7.95,-2.14,7.95,-2.14,2.24,2.18,1.98,10.19,10.19,10.09
104.32,7.91,-2.18,7.91,-2.19,2.23,2.16,1.98,10.14,10.14,10.09
105.37,7.86,-2.23,7.86,-2.23,2.21,2.13,1.98,10.07,10.07,10.09
106.42,7.81,-2.28,7.82,-2.30,2.17,2.11,1.99,9.99,9.99,10.09
107.48,7.77,-2.30,7.77,-2.29,2.14,2.08,1.99,9.91,9.91,10.07
108.56,7.73,-2.29,7.73,-2.19,2.10,2.06,2.00,9.83,9.83,10.02
109.64,7.69,-1.99,7.68,-2.03,2.06,2.03,2.00,9.74,9.74,9.67
110.74,7.64,-1.82,7.64,-1.88,2.01,2.01,2.01,9.65,9.65,9.46
111.85,7.59,-1.81,7.59,-1.81,1.96,1.99,2.01,9.55,9.55,9.40
112.97,7.54,-1.85,7.54,-1.84,1.91,1.96,2.02,9.45,9.45,9.39
114.10,7.50,-1.90,7.50,-1.89,1.87,1.94,2.02,9.36,9.36,9.39
115.24,7.45,-1.93,7.45,-1.92,1.84,1.92,2.02,9.29,9.29,9.38
116.39,7.40,-1.92,7.40,-1.92,1.83,1.90,2.03,9.23,9.23,9.32
117.55,7.36,-1.88,7.36,-1.87,1.83,1.88,2.03,9.19,9.19,9.24
118.73,7.31,-1.81,7.31,-1.81,1.83,1.86,2.03,9.14,9.14,9.12
119.92,7.27,-1.74,7.27,-1.78,1.82,1.84,2.03,9.09,9.09,9.00
121.12,7.22,-1.77,7.22,-1.76,1.81,1.81,2.02,9.03,9.03,8.99
122.33,7.18,-1.80,7.18,-1.78,1.80,1.80,2.02,8.98,8.98,8.98
123.55,7.13,-1.79,7.13,-1.81,1.80,1.78,2.01,8.93,8.93,8.92
124.79,7.07,-1.83,7.07,-1.81,1.82,1.76,2.01,8.89,8.89,8.89
126.03,7.01,-1.83,7.01,-1.83,1.83,1.74,2.00,8.84,8.85,8.84
127.29,6.96,-1.83,6.96,-1.85,1.85,1.72,1.99,8.81,8.81,8.79
128.57,6.92,-1.88,6.92,-1.87,1.85,1.70,1.98,8.77,8.77,8.79
129.85,6.87,-1.88,6.87,-1.87,1.85,1.69,1.96,8.72,8.72,8.75
131.15,6.83,-1.85,6.83,-1.83,1.82,1.67,1.95,8.66,8.66,8.68
132.46,6.79,-1.76,6.79,-1.78,1.78,1.65,1.93,8.57,8.57,8.55
133.79,6.75,-1.70,6.75,-1.72,1.72,1.64,1.92,8.47,8.47,8.46
135.12,6.70,-1.68,6.70,-1.66,1.63,1.62,1.90,8.33,8.33,8.38
136.48,6.65,-1.60,6.65,-1.59,1.52,1.61,1.88,8.17,8.17,8.25
137.84,6.58,-1.49,6.58,-1.48,1.41,1.59,1.86,8.00,8.00,8.07
139.22,6.52,-1.34,6.52,-1.33,1.32,1.58,1.84,7.84,7.84,7.86
140.61,6.47,-1.18,6.47,-1.21,1.26,1.56,1.81,7.73,7.73,7.65
142.02,6.43,-1.12,6.43,-1.12,1.24,1.55,1.79,7.66,7.66,7.54
143.44,6.38,-1.11,6.38,-1.11,1.25,1.54,1.77,7.63,7.63,7.49
144.87,6.33,-1.16,6.33,-1.18,1.29,1.52,1.75,7.62,7.61,7.49
146.32,6.27,-1.29,6.27,-1.31,1.34,1.51,1.72,7.61,7.61,7.56
147.78,6.20,-1.47,6.20,-1.48,1.41,1.50,1.70,7.61,7.61,7.67
149.26,6.14,-1.65,6.14,-1.62,1.48,1.49,1.68,7.62,7.62,7.79
150.75,6.08,-1.71,6.08,-1.67,1.54,1.48,1.65,7.62,7.62,7.79
152.26,6.03,-1.64,6.03,-1.64,1.58,1.47,1.63,7.61,7.61,7.67
153.78,5.98,-1.53,5.98,-1.56,1.59,1.46,1.61,7.57,7.57,7.52
155.32,5.94,-1.49,5.94,-1.49,1.57,1.45,1.59,7.50,7.50,7.43
156.88,5.89,-1.46,5.89,-1.47,1.52,1.44,1.56,7.41,7.41,7.35
158.44,5.85,-1.45,5.85,-1.47,1.45,1.43,1.54,7.30,7.30,7.29
160.03,5.80,-1.50,5.79,-1.44,1.40,1.42,1.52,7.19,7.19,7.29
161.63,5.74,-1.39,5.74,-1.39,1.36,1.41,1.50,7.10,7.10,7.13
163.24,5.68,-1.30,5.68,-1.33,1.35,1.40,1.49,7.03,7.03,6.98
164.88,5.63,-1.27,5.62,-1.27,1.35,1.39,1.47,6.98,6.98,6.90
166.53,5.57,-1.28,5.56,-1.29,1.35,1.38,1.45,6.92,6.92,6.84
168.19,5.50,-1.30,5.50,-1.34,1.35,1.38,1.44,6.86,6.86,6.80
169.87,5.44,-1.45,5.45,-1.39,1.36,1.37,1.42,6.80,6.80,6.89
171.57,5.39,-1.43,5.39,-1.44,1.36,1.36,1.41,6.75,6.75,6.82
173.29,5.33,-1.42,5.33,-1.43,1.37,1.35,1.39,6.70,6.70,6.75
175.02,5.28,-1.42,5.28,-1.38,1.36,1.35,1.38,6.64,6.64,6.69
176.77,5.21,-1.30,5.21,-1.34,1.35,1.34,1.37,6.56,6.56,6.52
178.54,5.15,-1.30,5.15,-1.31,1.32,1.34,1.36,6.47,6.47,6.44
180.32,5.08,-1.30,5.08,-1.29,1.30,1.33,1.35,6.38,6.38,6.38
182.13,5.02,-1.30,5.03,-1.26,1.28,1.32,1.35,6.31,6.31,6.32
183.95,4.97,-1.23,4.97,-1.24,1.28,1.32,1.34,6.25,6.25,6.20
185.79,4.93,-1.19,4.93,-1.24,1.28,1.31,1.33,6.21,6.21,6.12
187.65,4.88,-1.30,4.88,-1.28,1.30,1.31,1.33,6.18,6.18,6.18
189.52,4.83,-1.36,4.83,-1.35,1.32,1.30,1.32,6.16,6.15,6.19
191.42,4.77,-1.41,4.77,-1.40,1.35,1.30,1.32,6.12,6.12,6.18
193.33,4.71,-1.41,4.71,-1.40,1.38,1.29,1.32,6.09,6.09,6.12
195.27,4.65,-1.38,4.65,-1.41,1.41,1.29,1.32,6.06,6.06,6.03
197.22,4.59,-1.40,4.59,-1.42,1.44,1.28,1.32,6.03,6.02,5.99
199.19,4.53,-1.46,4.53,-1.44,1.45,1.28,1.32,5.99,5.98,5.99
201.18,4.47,-1.46,4.47,-1.46,1.46,1.28,1.32,5.93,5.93,5.92
203.19,4.40,-1.46,4.40,-1.46,1.45,1.27,1.32,5.85,5.85,5.85
205.23,4.34,-1.45,4.34,-1.45,1.43,1.27,1.32,5.77,5.77,5.79
207.28,4.27,-1.44,4.27,-1.43,1.40,1.26,1.32,5.67,5.67,5.72
209.35,4.21,-1.40,4.21,-1.41,1.35,1.26,1.33,5.56,5.56,5.60
211.44,4.14,-1.34,4.14,-1.36,1.31,1.26,1.33,5.45,5.45,5.48
213.56,4.07,-1.34,4.07,-1.26,1.27,1.25,1.33,5.35,5.35,5.41
215.69,4.01,-1.16,4.01,-1.19,1.25,1.25,1.34,5.25,5.25,5.17
217.85,3.94,-1.08,3.94,-1.16,1.24,1.24,1.34,5.18,5.18,5.02
220.03,3.88,-1.21,3.88,-1.17,1.25,1.24,1.35,5.13,5.13,5.09
222.23,3.82,-1.27,3.82,-1.26,1.28,1.24,1.35,5.10,5.10,5.09
224.45,3.76,-1.33,3.76,-1.34,1.33,1.23,1.36,5.09,5.09,5.09
226.70,3.69,-1.40,3.69,-1.40,1.39,1.23,1.36,5.09,5.09,5.09
228.96,3.63,-1.47,3.63,-1.47,1.46,1.23,1.36,5.09,5.09,5.09
231.25,3.57,-1.53,3.57,-1.54,1.52,1.22,1.37,5.09,5.09,5.09
233.57,3.51,-1.58,3.51,-1.59,1.55,1.22,1.37,5.07,5.07,5.09
235.90,3.47,-1.63,3.47,-1.60,1.55,1.22,1.37,5.02,5.02,5.09
238.26,3.44,-1.57,3.43,-1.57,1.52,1.21,1.38,4.95,4.95,5.01
240.64,3.41,-1.47,3.41,-1.50,1.46,1.21,1.38,4.87,4.87,4.88
243.05,3.40,-1.42,3.40,-1.40,1.39,1.21,1.38,4.79,4.79,4.82
245.48,3.39,-1.30,3.39,-1.29,1.30,1.20,1.38,4.70,4.70,4.70
247.93,3.38,-1.17,3.38,-1.18,1.22,1.20,1.38,4.60,4.60,4.55
250.41,3.37,-1.06,3.36,-1.07,1.13,1.19,1.38,4.50,4.49,4.42
252.92,3.34,-1.01,3.34,-1.01,1.05,1.19,1.37,4.39,4.39,4.35
255.45,3.31,-0.98,3.31,-1.00,0.99,1.19,1.37,4.30,4.30,4.29
258.00,3.28,-1.01,3.28,-0.99,0.94,1.18,1.37,4.23,4.23,4.29
260.58,3.25,-0.98,3.25,-0.95,0.93,1.18,1.36,4.18,4.18,4.23
263.19,3.21,-0.92,3.21,-0.91,0.94,1.17,1.36,4.15,4.15,4.13
265.82,3.17,-0.83,3.17,-0.90,0.97,1.17,1.35,4.14,4.14,4.00
268.48,3.12,-0.94,3.12,-0.92,1.00,1.17,1.35,4.12,4.12,4.06
271.16,3.07,-1.02,3.07,-1.00,1.03,1.16,1.34,4.10,4.10,4.09
273.87,3.02,-1.07,3.02,-1.11,1.05,1.16,1.33,4.07,4.07,4.09
276.61,2.97,-1.19,2.97,-1.17,1.06,1.15,1.33,4.03,4.03,4.16
279.38,2.92,-1.21,2.92,-1.17,1.08,1.15,1.32,4.00,4.00,4.13
282.17,2.86,-1.12,2.86,-1.13,1.10,1.15,1.31,3.96,3.96,3.99
284.99,2.80,-1.04,2.80,-1.06,1.11,1.14,1.30,3.91,3.91,3.84
287.84,2.74,-1.01,2.74,-1.02,1.11,1.14,1.30,3.85,3.85,3.75
290.72,2.68,-1.02,2.68,-1.03,1.10,1.13,1.29,3.77,3.77,3.69
293.63,2.62,-1.08,2.62,-1.08,1.08,1.13,1.28,3.70,3.70,3.69
296.57,2.56,-1.14,2.56,-1.13,1.08,1.13,1.27,3.64,3.64,3.69
299.53,2.51,-1.16,2.51,-1.15,1.08,1.12,1.27,3.59,3.59,3.66
302.53,2.45,-1.15,2.45,-1.12,1.10,1.12,1.26,3.55,3.55,3.60
305.55,2.40,-1.07,2.40,-1.09,1.12,1.12,1.25,3.52,3.51,3.47
308.61,2.34,-1.06,2.34,-1.08,1.14,1.11,1.25,3.48,3.48,3.39
311.69,2.28,-1.11,2.28,-1.11,1.16,1.11,1.24,3.44,3.44,3.39
314.81,2.22,-1.17,2.22,-1.15,1.17,1.11,1.24,3.39,3.40,3.39
317.96,2.17,-1.18,2.17,-1.18,1.17,1.11,1.23,3.34,3.34,3.36
321.14,2.12,-1.18,2.12,-1.21,1.16,1.11,1.23,3.28,3.28,3.29
324.35,2.07,-1.23,2.07,-1.23,1.14,1.10,1.23,3.21,3.21,3.29
327.59,2.02,-1.23,2.02,-1.19,1.11,1.10,1.23,3.13,3.13,3.24
330.87,1.96,-1.16,1.96,-1.11,1.08,1.10,1.22,3.04,3.04,3.12
334.18,1.91,-0.95,1.91,-1.02,1.06,1.10,1.22,2.97,2.97,2.86
337.52,1.86,-0.93,1.86,-0.94,1.05,1.10,1.23,2.91,2.91,2.79
340.90,1.81,-0.97,1.81,-0.92,1.06,1.11,1.23,2.87,2.87,2.78
344.30,1.76,-0.95,1.76,-1.00,1.07,1.11,1.23,2.83,2.83,2.71
347.75,1.71,-1.10,1.71,-1.10,1.09,1.11,1.23,2.80,2.80,2.80
351.23,1.66,-1.24,1.66,-1.20,1.12,1.12,1.24,2.78,2.78,2.89
354.74,1.60,-1.29,1.60,-1.28,1.16,1.12,1.24,2.76,2.76,2.89
358.28,1.55,-1.27,1.55,-1.27,1.19,1.12,1.25,2.74,2.74,2.83
361.87,1.51,-1.21,1.51,-1.21,1.21,1.13,1.26,2.71,2.71,2.72
365.49,1.46,-1.12,1.46,-1.15,1.20,1.14,1.26,2.66,2.66,2.59
369.14,1.42,-1.11,1.42,-1.13,1.17,1.14,1.27,2.58,2.58,2.53
372.83,1.37,-1.13,1.37,-1.13,1.13,1.15,1.28,2.49,2.49,2.49
376.56,1.32,-1.16,1.32,-1.12,1.09,1.16,1.29,2.40,2.40,2.48
380.33,1.26,-1.09,1.27,-1.09,1.07,1.17,1.30,2.33,2.33,2.35
384.13,1.21,-1.04,1.22,-1.05,1.07,1.18,1.32,2.28,2.28,2.25
387.97,1.17,-1.03,1.17,-1.04,1.09,1.19,1.33,2.26,2.26,2.19
391.85,1.12,-1.07,1.12,-1.06,1.12,1.20,1.34,2.25,2.25,2.19
395.77,1.07,-1.12,1.07,-1.13,1.16,1.21,1.36,2.24,2.23,2.19
399.73,1.02,-1.21,1.02,-1.22,1.21,1.23,1.37,2.23,2.23,2.22
403.72,0.96,-1.33,0.96,-1.31,1.27,1.24,1.39,2.23,2.23,2.29
407.76,0.90,-1.40,0.90,-1.38,1.33,1.25,1.40,2.23,2.23,2.29
411.84,0.84,-1.43,0.84,-1.42,1.40,1.27,1.42,2.24,2.24,2.26
415.96,0.77,-1.42,0.77,-1.45,1.47,1.28,1.44,2.24,2.24,2.20
420.12,0.71,-1.48,0.72,-1.48,1.52,1.30,1.46,2.23,2.23,2.19
424.32,0.66,-1.54,0.66,-1.53,1.56,1.31,1.47,2.21,2.21,2.19
428.56,0.60,-1.59,0.60,-1.60,1.58,1.33,1.49,2.18,2.18,2.19
432.85,0.55,-1.65,0.55,-1.64,1.60,1.34,1.51,2.14,2.14,2.19
437.18,0.49,-1.66,0.50,-1.65,1.61,1.36,1.53,2.10,2.11,2.15
441.55,0.45,-1.64,0.45,-1.64,1.62,1.38,1.54,2.07,2.07,2.09
445.96,0.41,-1.60,0.41,-1.60,1.63,1.39,1.56,2.03,2.03,2.01
450.42,0.37,-1.58,0.37,-1.58,1.62,1.41,1.58,1.99,1.99,1.95
454.93,0.33,-1.57,0.33,-1.58,1.61,1.43,1.59,1.94,1.94,1.89
459.48,0.29,-1.60,0.29,-1.61,1.59,1.44,1.61,1.88,1.88,1.89
464.07,0.26,-1.63,0.26,-1.61,1.58,1.46,1.63,1.84,1.84,1.89
468.71,0.23,-1.62,0.23,-1.59,1.57,1.48,1.64,1.80,1.80,1.85
473.40,0.19,-1.52,0.19,-1.56,1.57,1.49,1.65,1.76,1.76,1.71
478.13,0.16,-1.54,0.16,-1.55,1.58,1.51,1.67,1.74,1.74,1.69
482.91,0.12,-1.57,0.12,-1.56,1.59,1.52,1.68,1.71,1.71,1.69
487.74,0.09,-1.61,0.09,-1.58,1.60,1.54,1.69,1.69,1.69,1.69
492.62,0.05,-1.58,0.05,-1.61,1.61,1.56,1.70,1.66,1.66,1.63
497.55,0.01,-1.62,0.01,-1.64,1.62,1.57,1.71,1.63,1.63,1.63
502.52,-0.02,-1.71,-0.02,-1.66,1.62,1.59,1.71,1.60,1.60,1.69
507.55,-0.05,-1.67,-0.06,-1.67,1.63,1.61,1.72,1.57,1.57,1.62
512.62,-0.09,-1.64,-0.09,-1.65,1.63,1.62,1.72,1.54,1.54,1.55
