frequency,raw,error,smoothed,error_smoothed,equalization,parametric_eq,fixed_band_eq,equalized_raw,equalized_smoothed,target
20.00,6.71,-2.63,6.71,-2.63,2.56,2.59,1.28,9.27,9.26,9.34
20.20,6.79,-2.59,6.79,-2.59,2.57,2.60,1.31,9.36,9.36,9.38
20.40,6.85,-2.57,6.86,-2.57,2.59,2.62,1.35,9.44,9.44,9.42
20.61,6.91,-2.56,6.91,-2.56,2.61,2.63,1.39,9.52,9.51,9.47
20.81,6.95,-2.57,6.95,-2.57,2.63,2.65,1.43,9.57,9.57,9.52
21.02,6.97,-2.60,6.97,-2.59,2.64,2.67,1.47,9.62,9.62,9.57
21.23,6.98,-2.63,6.98,-2.64,2.66,2.68,1.52,9.64,9.64,9.61
21.44,6.98,-2.68,6.98,-2.68,2.69,2.70,1.56,9.66,9.66,9.66
21.66,6.97,-2.74,6.97,-2.74,2.73,2.71,1.61,9.70,9.70,9.71
21.87,6.97,-2.78,6.97,-2.78,2.76,2.73,1.65,9.73,9.74,9.75
22.09,6.99,-2.81,6.99,-2.81,2.79,2.74,1.70,9.78,9.78,9.80
22.31,7.02,-2.83,7.02,-2.83,2.80,2.76,1.75,9.82,9.83,9.85
22.54,7.07,-2.83,7.07,-2.83,2.81,2.77,1.80,9.88,9.88,9.90
22.76,7.14,-2.81,7.14,-2.81,2.80,2.79,1.86,9.94,9.94,9.95
22.99,7.22,-2.79,7.22,-2.79,2.78,2.80,1.91,10.00,10.00,10.00
23.22,7.30,-2.76,7.29,-2.76,2.77,2.82,1.96,10.06,10.06,10.05
23.45,7.37,-2.74,7.37,-2.74,2.76,2.83,2.02,10.12,10.12,10.10
23.69,7.43,-2.73,7.43,-2.73,2.75,2.84,2.08,10.18,10.18,10.16
23.92,7.47,-2.74,7.47,-2.74,2.76,2.86,2.13,10.23,10.23,10.21
24.16,7.50,-2.76,7.50,-2.77,2.78,2.87,2.19,10.28,10.28,10.26
24.40,7.51,-2.81,7.51,-2.81,2.82,2.88,2.25,10.33,10.33,10.32
24.65,7.51,-2.86,7.51,-2.86,2.86,2.90,2.31,10.38,10.38,10.37
24.89,7.51,-2.91,7.51,-2.91,2.91,2.91,2.38,10.42,10.42,10.42
25.14,7.51,-2.97,7.51,-2.97,2.96,2.92,2.44,10.46,10.46,10.47
25.39,7.51,-3.02,7.51,-3.01,3.00,2.93,2.50,10.50,10.51,10.52
25.65,7.52,-3.04,7.52,-3.05,3.03,2.95,2.56,10.55,10.55,10.56
25.91,7.54,-3.06,7.54,-3.06,3.05,2.96,2.63,10.58,10.58,10.60
26.16,7.57,-3.07,7.57,-3.07,3.05,2.97,2.69,10.62,10.62,10.64
26.43,7.61,-3.06,7.61,-3.06,3.05,2.98,2.75,10.66,10.66,10.67
26.69,7.67,-3.04,7.67,-3.04,3.04,2.99,2.81,10.71,10.70,10.71
26.96,7.73,-3.02,7.73,-3.02,3.02,3.01,2.88,10.75,10.75,10.75
27.23,7.80,-2.99,7.80,-2.99,3.00,3.02,2.94,10.80,10.80,10.79
27.50,7.86,-2.97,7.86,-2.98,2.99,3.03,3.00,10.85,10.85,10.84
27.77,7.92,-2.97,7.92,-2.97,2.98,3.04,3.05,10.90,10.90,10.88
28.05,7.96,-2.97,7.95,-2.97,2.99,3.05,3.11,10.94,10.94,10.93
28.33,7.98,-2.99,7.98,-2.99,3.00,3.06,3.16,10.98,10.98,10.97
28.62,7.99,-3.02,7.99,-3.02,3.02,3.07,3.21,11.01,11.01,11.00
28.90,7.99,-3.05,7.99,-3.05,3.05,3.08,3.26,11.03,11.03,11.04
29.19,7.98,-3.08,7.98,-3.08,3.07,3.09,3.30,11.06,11.06,11.07
29.48,7.98,-3.12,7.98,-3.12,3.11,3.10,3.34,11.09,11.09,11.10
29.78,7.98,-3.14,7.98,-3.14,3.14,3.11,3.38,11.12,11.12,11.13
30.08,7.98,-3.17,7.99,-3.17,3.17,3.12,3.42,11.15,11.16,11.15
30.38,7.99,-3.19,7.99,-3.19,3.20,3.13,3.45,11.19,11.19,11.18
30.68,7.99,-3.22,7.99,-3.22,3.22,3.14,3.47,11.22,11.22,11.21
30.99,7.99,-3.24,7.99,-3.24,3.25,3.14,3.50,11.24,11.24,11.24
31.30,7.99,-3.27,7.99,-3.27,3.26,3.15,3.51,11.26,11.26,11.26
31.61,8.00,-3.29,8.00,-3.29,3.28,3.16,3.53,11.28,11.28,11.28
31.93,8.01,-3.30,8.01,-3.30,3.29,3.17,3.54,11.30,11.30,11.31
32.24,8.04,-3.30,8.04,-3.30,3.29,3.18,3.54,11.32,11.32,11.33
32.57,8.07,-3.29,8.07,-3.29,3.29,3.18,3.54,11.36,11.36,11.36
32.89,8.11,-3.28,8.11,-3.28,3.28,3.19,3.54,11.39,11.39,11.39
33.22,8.15,-3.26,8.15,-3.27,3.27,3.20,3.54,11.42,11.42,11.41
33.55,8.19,-3.25,8.19,-3.25,3.26,3.21,3.53,11.45,11.45,11.44
33.89,8.23,-3.24,8.23,-3.24,3.24,3.21,3.52,11.47,11.47,11.47
34.23,8.27,-3.23,8.27,-3.23,3.23,3.22,3.50,11.49,11.49,11.50
34.57,8.31,-3.22,8.31,-3.22,3.21,3.23,3.49,11.52,11.52,11.53
34.92,8.35,-3.20,8.35,-3.20,3.20,3.23,3.47,11.56,11.56,11.56
35.27,8.40,-3.19,8.40,-3.19,3.19,3.24,3.45,11.59,11.59,11.59
35.62,8.44,-3.18,8.44,-3.18,3.19,3.24,3.42,11.63,11.63,11.62
35.97,8.47,-3.18,8.47,-3.18,3.19,3.25,3.40,11.66,11.66,11.65
36.33,8.50,-3.18,8.50,-3.18,3.19,3.26,3.38,11.69,11.69,11.68
36.70,8.52,-3.19,8.52,-3.19,3.19,3.26,3.35,11.71,11.71,11.71
37.06,8.53,-3.20,8.53,-3.20,3.20,3.27,3.33,11.73,11.73,11.73
37.43,8.54,-3.21,8.54,-3.21,3.20,3.27,3.31,11.74,11.74,11.74
37.81,8.54,-3.22,8.54,-3.22,3.21,3.28,3.28,11.75,11.74,11.75
38.19,8.54,-3.22,8.54,-3.22,3.21,3.28,3.26,11.75,11.75,11.76
38.57,8.55,-3.23,8.55,-3.22,3.21,3.29,3.24,11.75,11.76,11.77
38.95,8.56,-3.22,8.56,-3.22,3.21,3.29,3.22,11.77,11.77,11.78
39.34,8.59,-3.21,8.59,-3.21,3.22,3.29,3.20,11.80,11.80,11.79
39.74,8.61,-3.20,8.61,-3.20,3.22,3.30,3.18,11.83,11.83,11.81
40.14,8.63,-3.21,8.62,-3.21,3.24,3.30,3.16,11.86,11.86,11.83
40.54,8.63,-3.23,8.63,-3.23,3.25,3.30,3.15,11.88,11.88,11.86
40.94,8.63,-3.26,8.63,-3.26,3.26,3.31,3.14,11.89,11.89,11.89
41.35,8.62,-3.30,8.62,-3.29,3.28,3.31,3.13,11.90,11.90,11.92
41.76,8.62,-3.32,8.62,-3.31,3.29,3.31,3.12,11.91,11.91,11.94
42.18,8.63,-3.31,8.63,-3.31,3.29,3.32,3.11,11.92,11.92,11.94
42.60,8.64,-3.30,8.64,-3.30,3.29,3.32,3.11,11.93,11.93,11.95
43.03,8.66,-3.29,8.66,-3.29,3.28,3.32,3.11,11.94,11.94,11.94
43.46,8.67,-3.27,8.68,-3.27,3.27,3.32,3.11,11.95,11.95,11.94
43.90,8.69,-3.25,8.69,-3.25,3.26,3.33,3.11,11.95,11.95,11.94
44.33,8.71,-3.24,8.71,-3.24,3.26,3.33,3.12,11.97,11.96,11.95
44.78,8.72,-3.23,8.71,-3.24,3.26,3.33,3.13,11.97,11.97,11.95
45.23,8.71,-3.25,8.71,-3.25,3.26,3.33,3.14,11.97,11.97,11.96
45.68,8.69,-3.27,8.69,-3.27,3.28,3.33,3.15,11.97,11.96,11.96
46.13,8.66,-3.31,8.66,-3.31,3.30,3.33,3.17,11.96,11.96,11.97
46.60,8.64,-3.34,8.64,-3.34,3.32,3.33,3.19,11.96,11.96,11.97
47.06,8.62,-3.36,8.62,-3.36,3.35,3.34,3.21,11.97,11.97,11.98
47.53,8.61,-3.38,8.61,-3.38,3.38,3.34,3.23,11.99,11.99,11.99
48.01,8.61,-3.40,8.60,-3.40,3.41,3.34,3.26,12.01,12.01,12.00
48.49,8.59,-3.42,8.59,-3.42,3.43,3.34,3.28,12.02,12.02,12.01
48.97,8.57,-3.45,8.57,-3.45,3.46,3.34,3.31,12.02,12.02,12.02
49.46,8.54,-3.48,8.55,-3.48,3.47,3.34,3.34,12.02,12.02,12.02
49.96,8.53,-3.50,8.53,-3.50,3.49,3.34,3.37,12.01,12.02,12.03
50.46,8.53,-3.50,8.53,-3.50,3.49,3.34,3.41,12.02,12.02,12.03
50.96,8.53,-3.49,8.53,-3.50,3.49,3.33,3.44,12.02,12.02,12.03
51.47,8.54,-3.48,8.54,-3.48,3.48,3.33,3.47,12.02,12.02,12.02
51.99,8.56,-3.46,8.56,-3.46,3.45,3.33,3.51,12.01,12.01,12.02
52.51,8.57,-3.43,8.57,-3.43,3.41,3.33,3.54,11.99,11.99,12.01
53.03,8.59,-3.40,8.60,-3.39,3.37,3.33,3.58,11.97,11.97,11.99
53.56,8.63,-3.35,8.63,-3.34,3.33,3.33,3.61,11.96,11.96,11.97
54.10,8.67,-3.29,8.67,-3.29,3.30,3.32,3.65,11.97,11.97,11.96
54.64,8.70,-3.24,8.70,-3.24,3.28,3.32,3.68,11.98,11.98,11.94
55.18,8.71,-3.21,8.71,-3.22,3.27,3.32,3.71,11.98,11.97,11.92
55.74,8.69,-3.23,8.69,-3.23,3.26,3.32,3.74,11.95,11.95,11.91
56.29,8.65,-3.26,8.65,-3.26,3.26,3.31,3.77,11.91,11.91,11.90
56.86,8.59,-3.30,8.60,-3.30,3.28,3.31,3.80,11.87,11.87,11.90
57.42,8.56,-3.33,8.56,-3.33,3.29,3.30,3.82,11.85,11.85,11.89
58.00,8.54,-3.34,8.54,-3.34,3.31,3.30,3.83,11.85,11.85,11.88
58.58,8.54,-3.33,8.54,-3.33,3.33,3.29,3.85,11.87,11.87,11.87
59.16,8.54,-3.32,8.53,-3.33,3.34,3.29,3.86,11.88,11.87,11.86
59.76,8.53,-3.32,8.52,-3.32,3.34,3.28,3.86,11.87,11.87,11.85
60.35,8.51,-3.33,8.50,-3.33,3.34,3.27,3.87,11.84,11.84,11.83
60.96,8.48,-3.34,8.48,-3.34,3.32,3.27,3.86,11.80,11.80,11.82
61.57,8.46,-3.34,8.46,-3.33,3.30,3.26,3.85,11.76,11.77,11.80
62.18,8.46,-3.32,8.46,-3.31,3.28,3.25,3.84,11.74,11.74,11.77
62.80,8.48,-3.27,8.48,-3.27,3.26,3.24,3.82,11.74,11.74,11.75
63.43,8.50,-3.22,8.50,-3.22,3.24,3.23,3.79,11.74,11.74,11.73
64.07,8.52,-3.18,8.52,-3.19,3.22,3.22,3.76,11.75,11.74,11.70
64.71,8.51,-3.16,8.51,-3.17,3.21,3.21,3.72,11.72,11.72,11.68
65.35,8.48,-3.17,8.48,-3.17,3.20,3.20,3.68,11.68,11.68,11.65
66.01,8.43,-3.19,8.44,-3.19,3.19,3.18,3.63,11.62,11.62,11.62
66.67,8.39,-3.20,8.39,-3.20,3.18,3.17,3.58,11.56,11.57,11.59
67.33,8.36,-3.21,8.36,-3.21,3.16,3.16,3.52,11.52,11.52,11.57
68.01,8.34,-3.19,8.35,-3.19,3.14,3.14,3.46,11.48,11.49,11.54
68.69,8.36,-3.14,8.36,-3.14,3.12,3.12,3.40,11.48,11.48,11.50
69.37,8.38,-3.09,8.38,-3.09,3.10,3.11,3.33,11.48,11.48,11.47
70.07,8.40,-3.03,8.39,-3.04,3.08,3.09,3.26,11.48,11.47,11.43
70.77,8.39,-3.00,8.39,-3.01,3.06,3.07,3.19,11.45,11.45,11.40
71.48,8.36,-3.00,8.36,-3.00,3.05,3.05,3.11,11.41,11.41,11.36
72.19,8.31,-3.02,8.30,-3.02,3.04,3.03,3.03,11.35,11.35,11.33
72.91,8.24,-3.05,8.24,-3.04,3.03,3.00,2.95,11.27,11.27,11.29
73.64,8.19,-3.06,8.19,-3.06,3.01,2.98,2.87,11.20,11.20,11.25
74.38,8.16,-3.04,8.17,-3.04,2.98,2.95,2.79,11.14,11.14,11.21
75.12,8.17,-2.99,8.18,-2.98,2.93,2.93,2.70,11.10,11.11,11.16
75.87,8.23,-2.89,8.23,-2.89,2.87,2.90,2.62,11.10,11.09,11.12
76.63,8.29,-2.79,8.29,-2.79,2.79,2.87,2.53,11.09,11.09,11.08
77.40,8.37,-2.68,8.36,-2.68,2.71,2.84,2.45,11.08,11.07,11.04
78.17,8.40,-2.60,8.40,-2.60,2.64,2.81,2.37,11.04,11.04,11.00
78.95,8.42,-2.53,8.42,-2.54,2.58,2.77,2.28,11.00,11.00,10.96
79.74,8.40,-2.50,8.40,-2.50,2.54,2.74,2.20,10.94,10.93,10.90
80.54,8.35,-2.50,8.35,-2.49,2.51,2.70,2.11,10.86,10.86,10.84
81.35,8.28,-2.50,8.28,-2.50,2.50,2.67,2.03,10.79,10.79,10.79
82.16,8.21,-2.52,8.21,-2.52,2.51,2.63,1.95,10.72,10.72,10.73
82.98,8.14,-2.53,8.14,-2.53,2.51,2.59,1.87,10.66,10.66,10.67
83.81,8.08,-2.54,8.08,-2.54,2.52,2.55,1.78,10.60,10.60,10.62
84.65,8.03,-2.54,8.03,-2.54,2.52,2.50,1.71,10.55,10.55,10.57
85.50,8.00,-2.52,8.00,-2.52,2.51,2.46,1.63,10.50,10.50,10.52
86.35,7.97,-2.50,7.97,-2.50,2.49,2.42,1.55,10.45,10.46,10.46
87.22,7.94,-2.46,7.94,-2.46,2.47,2.37,1.47,10.40,10.40,10.40
88.09,7.91,-2.43,7.91,-2.43,2.44,2.32,1.40,10.35,10.35,10.34
88.97,7.88,-2.40,7.88,-2.40,2.41,2.27,1.32,10.29,10.29,10.27
89.86,7.84,-2.37,7.84,-2.37,2.39,2.22,1.25,10.23,10.22,10.21
90.76,7.80,-2.34,7.79,-2.34,2.36,2.17,1.18,10.16,10.16,10.14
91.66,7.75,-2.32,7.75,-2.32,2.33,2.12,1.10,10.08,10.08,10.07
92.58,7.70,-2.30,7.70,-2.30,2.30,2.06,1.03,10.00,10.00,10.00
93.51,7.66,-2.27,7.66,-2.27,2.26,2.01,0.96,9.92,9.92,9.93
94.44,7.63,-2.23,7.63,-2.23,2.20,1.95,0.90,9.83,9.83,9.86
95.39,7.60,-2.17,7.60,-2.17,2.14,1.90,0.83,9.74,9.74,9.77
96.34,7.59,-2.09,7.59,-2.08,2.07,1.84,0.76,9.66,9.66,9.68
97.30,7.59,-1.99,7.59,-1.98,1.99,1.78,0.70,9.57,9.58,9.57
98.28,7.59,-1.88,7.59,-1.88,1.90,1.72,0.63,9.49,9.49,9.47
99.26,7.60,-1.78,7.60,-1.78,1.81,1.65,0.57,9.41,9.41,9.38
100.25,7.60,-1.70,7.60,-1.70,1.72,1.59,0.51,9.32,9.31,9.30
101.25,7.60,-1.63,7.60,-1.62,1.62,1.53,0.44,9.22,9.22,9.22
102.27,7.60,-1.54,7.60,-1.54,1.53,1.46,0.38,9.13,9.13,9.14
103.29,7.60,-1.45,7.60,-1.45,1.44,1.39,0.32,9.04,9.04,9.05
104.32,7.60,-1.36,7.60,-1.36,1.35,1.33,0.27,8.96,8.96,8.96
105.37,7.60,-1.26,7.60,-1.27,1.26,1.26,0.21,8.87,8.87,8.87
106.42,7.60,-1.17,7.60,-1.17,1.17,1.19,0.15,8.77,8.77,8.77
107.48,7.58,-1.08,7.58,-1.08,1.07,1.12,0.10,8.66,8.66,8.67
108.56,7.56,-0.98,7.56,-0.98,0.98,1.05,0.04,8.54,8.54,8.54
109.64,7.52,-0.88,7.53,-0.88,0.89,0.97,-0.01,8.41,8.41,8.41
110.74,7.48,-0.78,7.48,-0.79,0.81,0.90,-0.06,8.29,8.28,8.26
111.85,7.41,-0.70,7.41,-0.70,0.73,0.83,-0.11,8.14,8.14,8.11
112.97,7.33,-0.63,7.33,-0.63,0.65,0.75,-0.16,7.99,7.99,7.97
114.10,7.25,-0.57,7.25,-0.57,0.58,0.67,-0.21,7.83,7.83,7.82
115.24,7.18,-0.51,7.18,-0.51,0.49,0.60,-0.25,7.67,7.67,7.69
116.39,7.12,-0.44,7.12,-0.44,0.40,0.52,-0.30,7.52,7.52,7.56
117.55,7.07,-0.35,7.07,-0.34,0.30,0.44,-0.34,7.37,7.38,7.42
118.73,7.04,-0.22,7.04,-0.22,0.19,0.36,-0.38,7.24,7.23,7.27
119.92,7.03,-0.08,7.03,-0.09,0.07,0.28,-0.42,7.10,7.10,7.11
121.12,7.02,0.06,7.02,0.06,-0.05,0.19,-0.46,6.96,6.96,6.96
122.33,7.02,0.20,7.02,0.20,-0.18,0.11,-0.50,6.84,6.84,6.82
123.55,7.02,0.32,7.02,0.32,-0.29,0.03,-0.53,6.73,6.73,6.70
124.79,7.03,0.43,7.04,0.42,-0.39,-0.06,-0.57,6.64,6.65,6.61
126.03,7.05,0.50,7.05,0.50,-0.47,-0.14,-0.60,6.58,6.58,6.55
127.29,7.06,0.55,7.05,0.55,-0.53,-0.23,-0.63,6.53,6.52,6.51
128.57,7.04,0.58,7.04,0.58,-0.57,-0.32,-0.66,6.47,6.47,6.46
129.85,7.00,0.59,7.01,0.60,-0.60,-0.41,-0.68,6.40,6.41,6.41
131.15,6.96,0.61,6.96,0.61,-0.62,-0.50,-0.71,6.34,6.33,6.35
132.46,6.89,0.63,6.89,0.63,-0.65,-0.59,-0.73,6.25,6.24,6.26
133.79,6.82,0.66,6.82,0.66,-0.67,-0.68,-0.76,6.14,6.15,6.16
135.12,6.74,0.70,6.74,0.70,-0.71,-0.77,-0.78,6.03,6.03,6.04
136.48,6.67,0.75,6.67,0.75,-0.75,-0.86,-0.80,5.92,5.92,5.92
137.84,6.61,0.80,6.61,0.80,-0.81,-0.95,-0.82,5.80,5.80,5.80
139.22,6.56,0.87,6.56,0.87,-0.88,-1.05,-0.84,5.68,5.68,5.69
140.61,6.52,0.95,6.52,0.95,-0.96,-1.14,-0.86,5.56,5.56,5.57
142.02,6.48,1.04,6.48,1.04,-1.05,-1.23,-0.88,5.43,5.43,5.44
143.44,6.44,1.14,6.44,1.14,-1.15,-1.33,-0.90,5.30,5.30,5.31
144.87,6.41,1.24,6.41,1.24,-1.25,-1.42,-0.91,5.15,5.15,5.17
146.32,6.38,1.36,6.38,1.36,-1.36,-1.51,-0.93,5.01,5.01,5.02
147.78,6.35,1.48,6.35,1.48,-1.47,-1.61,-0.95,4.88,4.88,4.87
149.26,6.33,1.60,6.33,1.60,-1.58,-1.70,-0.97,4.75,4.75,4.73
150.75,6.30,1.71,6.30,1.71,-1.69,-1.79,-0.99,4.61,4.61,4.59
152.26,6.27,1.81,6.27,1.81,-1.79,-1.88,-1.00,4.48,4.48,4.46
153.78,6.23,1.89,6.23,1.89,-1.89,-1.97,-1.02,4.34,4.34,4.34
155.32,6.19,1.97,6.19,1.97,-1.99,-2.06,-1.04,4.20,4.20,4.22
156.88,6.14,2.06,6.14,2.06,-2.08,-2.15,-1.06,4.06,4.06,4.08
158.44,6.10,2.15,6.10,2.15,-2.17,-2.23,-1.08,3.93,3.93,3.95
160.03,6.06,2.25,6.06,2.25,-2.26,-2.32,-1.10,3.80,3.80,3.81
161.63,6.03,2.35,6.03,2.35,-2.35,-2.40,-1.13,3.69,3.69,3.68
163.24,6.00,2.44,6.01,2.44,-2.43,-2.48,-1.15,3.58,3.58,3.56
164.88,5.98,2.53,5.98,2.53,-2.51,-2.55,-1.17,3.47,3.46,3.45
166.53,5.94,2.60,5.94,2.60,-2.59,-2.63,-1.20,3.35,3.35,3.34
168.19,5.90,2.66,5.90,2.66,-2.66,-2.70,-1.23,3.23,3.23,3.24
169.87,5.85,2.72,5.85,2.72,-2.73,-2.76,-1.25,3.11,3.11,3.12
171.57,5.80,2.79,5.80,2.79,-2.80,-2.83,-1.28,3.00,3.00,3.01
173.29,5.75,2.85,5.75,2.85,-2.86,-2.89,-1.31,2.89,2.89,2.90
175.02,5.71,2.92,5.71,2.92,-2.92,-2.94,-1.34,2.79,2.79,2.79
176.77,5.68,2.98,5.68,2.98,-2.98,-2.99,-1.38,2.69,2.69,2.69
178.54,5.64,3.04,5.64,3.04,-3.04,-3.04,-1.41,2.60,2.60,2.60
180.32,5.60,3.10,5.60,3.10,-3.09,-3.08,-1.44,2.51,2.51,2.50
182.13,5.55,3.14,5.55,3.14,-3.13,-3.11,-1.48,2.42,2.42,2.41
183.95,5.50,3.18,5.50,3.18,-3.17,-3.15,-1.52,2.33,2.33,2.32
185.79,5.45,3.20,5.45,3.20,-3.20,-3.17,-1.55,2.25,2.25,2.25
187.65,5.40,3.22,5.40,3.22,-3.22,-3.19,-1.59,2.18,2.18,2.18
189.52,5.35,3.24,5.35,3.24,-3.24,-3.21,-1.63,2.11,2.11,2.12
191.42,5.31,3.25,5.31,3.25,-3.26,-3.22,-1.67,2.05,2.05,2.06
193.33,5.26,3.26,5.26,3.26,-3.26,-3.22,-1.72,2.00,2.00,2.01
195.27,5.22,3.27,5.22,3.27,-3.26,-3.22,-1.76,1.95,1.95,1.95
197.22,5.17,3.27,5.17,3.27,-3.26,-3.21,-1.80,1.91,1.91,1.90
199.19,5.13,3.26,5.13,3.26,-3.25,-3.20,-1.84,1.87,1.87,1.86
201.18,5.07,3.24,5.07,3.24,-3.24,-3.18,-1.89,1.84,1.84,1.83
203.19,5.02,3.21,5.02,3.21,-3.21,-3.16,-1.93,1.81,1.81,1.81
205.23,4.97,3.18,4.97,3.18,-3.19,-3.13,-1.98,1.78,1.78,1.79
207.28,4.92,3.15,4.92,3.15,-3.15,-3.10,-2.02,1.77,1.77,1.77
209.35,4.87,3.12,4.87,3.12,-3.12,-3.07,-2.06,1.75,1.75,1.76
211.44,4.82,3.08,4.82,3.08,-3.08,-3.03,-2.11,1.75,1.75,1.75
213.56,4.77,3.03,4.77,3.03,-3.03,-2.98,-2.15,1.74,1.74,1.74
215.69,4.72,2.99,4.72,2.99,-2.99,-2.93,-2.19,1.74,1.74,1.74
217.85,4.67,2.94,4.67,2.94,-2.94,-2.88,-2.23,1.73,1.73,1.73
220.03,4.62,2.89,4.62,2.89,-2.89,-2.83,-2.26,1.73,1.73,1.73
222.23,4.57,2.83,4.57,2.83,-2.83,-2.77,-2.30,1.74,1.74,1.74
224.45,4.51,2.77,4.51,2.77,-2.77,-2.71,-2.33,1.74,1.74,1.74
226.70,4.46,2.71,4.46,2.71,-2.71,-2.65,-2.36,1.75,1.75,1.75
228.96,4.40,2.64,4.40,2.64,-2.64,-2.58,-2.39,1.76,1.76,1.76
231.25,4.35,2.57,4.35,2.57,-2.57,-2.51,-2.41,1.77,1.77,1.77
233.57,4.29,2.50,4.29,2.50,-2.50,-2.45,-2.43,1.79,1.79,1.79
235.90,4.24,2.43,4.24,2.43,-2.43,-2.37,-2.45,1.81,1.81,1.81
238.26,4.18,2.35,4.18,2.35,-2.35,-2.30,-2.46,1.83,1.83,1.83
240.64,4.13,2.27,4.13,2.27,-2.27,-2.23,-2.46,1.86,1.86,1.86
243.05,4.07,2.19,4.07,2.19,-2.19,-2.16,-2.47,1.88,1.88,1.88
245.48,4.01,2.10,4.01,2.10,-2.10,-2.08,-2.46,1.90,1.90,1.91
247.93,3.95,2.02,3.95,2.02,-2.02,-2.01,-2.46,1.93,1.93,1.93
250.41,3.89,1.93,3.89,1.93,-1.93,-1.93,-2.44,1.96,1.96,1.96
252.92,3.83,1.84,3.83,1.84,-1.84,-1.86,-2.43,1.99,1.99,1.98
255.45,3.76,1.75,3.76,1.75,-1.75,-1.78,-2.40,2.02,2.02,2.01
258.00,3.70,1.66,3.70,1.66,-1.65,-1.70,-2.38,2.05,2.05,2.05
260.58,3.64,1.56,3.64,1.56,-1.56,-1.63,-2.34,2.08,2.08,2.08
263.19,3.58,1.46,3.58,1.46,-1.46,-1.55,-2.30,2.12,2.12,2.11
265.82,3.51,1.36,3.51,1.36,-1.36,-1.47,-2.26,2.15,2.15,2.15
268.48,3.45,1.27,3.45,1.27,-1.27,-1.40,-2.22,2.18,2.18,2.18
271.16,3.38,1.17,3.38,1.17,-1.18,-1.32,-2.16,2.20,2.20,2.21
273.87,3.32,1.09,3.32,1.09,-1.09,-1.25,-2.11,2.23,2.22,2.23
276.61,3.26,1.01,3.26,1.01,-1.02,-1.17,-2.05,2.24,2.24,2.25
279.38,3.21,0.94,3.21,0.94,-0.96,-1.10,-1.99,2.25,2.26,2.27
282.17,3.17,0.89,3.17,0.89,-0.90,-1.03,-1.93,2.27,2.27,2.28
284.99,3.14,0.84,3.14,0.84,-0.85,-0.95,-1.86,2.28,2.29,2.29
287.84,3.12,0.81,3.12,0.81,-0.81,-0.88,-1.79,2.31,2.31,2.31
290.72,3.10,0.77,3.10,0.77,-0.77,-0.81,-1.72,2.33,2.33,2.33
293.63,3.09,0.74,3.09,0.74,-0.74,-0.74,-1.64,2.35,2.35,2.35
296.57,3.07,0.71,3.07,0.71,-0.70,-0.67,-1.57,2.37,2.37,2.36
299.53,3.05,0.67,3.05,0.66,-0.65,-0.60,-1.49,2.40,2.40,2.38
302.53,3.02,0.61,3.02,0.61,-0.59,-0.53,-1.41,2.42,2.42,2.41
305.55,2.98,0.54,2.98,0.54,-0.53,-0.46,-1.33,2.45,2.45,2.44
308.61,2.93,0.46,2.93,0.46,-0.46,-0.39,-1.25,2.47,2.47,2.47
311.69,2.88,0.38,2.88,0.38,-0.38,-0.33,-1.17,2.50,2.50,2.50
314.81,2.83,0.29,2.83,0.30,-0.30,-0.26,-1.09,2.53,2.53,2.54
317.96,2.78,0.21,2.78,0.21,-0.22,-0.20,-1.01,2.56,2.56,2.57
321.14,2.72,0.13,2.72,0.13,-0.14,-0.13,-0.92,2.59,2.59,2.59
324.35,2.67,0.05,2.67,0.05,-0.06,-0.07,-0.84,2.61,2.61,2.62
327.59,2.61,-0.02,2.61,-0.02,0.01,-0.01,-0.76,2.63,2.63,2.63
330.87,2.56,-0.08,2.56,-0.08,0.08,0.06,-0.68,2.64,2.64,2.64
334.18,2.50,-0.15,2.50,-0.15,0.15,0.12,-0.59,2.65,2.65,2.65
337.52,2.45,-0.21,2.45,-0.21,0.21,0.18,-0.51,2.65,2.65,2.65
340.90,2.39,-0.26,2.39,-0.26,0.26,0.24,-0.43,2.66,2.66,2.66
344.30,2.34,-0.32,2.34,-0.32,0.32,0.30,-0.35,2.65,2.65,2.65
347.75,2.28,-0.37,2.28,-0.37,0.37,0.35,-0.26,2.65,2.65,2.65
351.23,2.23,-0.42,2.23,-0.42,0.42,0.41,-0.18,2.65,2.65,2.65
354.74,2.18,-0.47,2.18,-0.47,0.47,0.47,-0.10,2.64,2.64,2.64
358.28,2.12,-0.52,2.12,-0.52,0.52,0.52,-0.02,2.64,2.64,2.64
361.87,2.07,-0.57,2.07,-0.57,0.57,0.57,0.06,2.64,2.64,2.64
365.49,2.01,-0.62,2.01,-0.62,0.62,0.63,0.15,2.63,2.63,2.63
369.14,1.96,-0.67,1.96,-0.67,0.67,0.68,0.23,2.63,2.63,2.63
372.83,1.90,-0.72,1.90,-0.72,0.72,0.73,0.31,2.62,2.62,2.62
376.56,1.85,-0.77,1.85,-0.77,0.77,0.78,0.39,2.62,2.62,2.62
380.33,1.80,-0.82,1.80,-0.82,0.82,0.83,0.47,2.62,2.62,2.62
384.13,1.74,-0.87,1.74,-0.87,0.87,0.88,0.55,2.61,2.61,2.62
387.97,1.69,-0.92,1.69,-0.92,0.92,0.92,0.63,2.61,2.61,2.61
391.85,1.64,-0.96,1.64,-0.96,0.96,0.97,0.71,2.60,2.60,2.60
395.77,1.59,-1.01,1.59,-1.01,1.01,1.02,0.79,2.59,2.59,2.59
399.73,1.54,-1.05,1.54,-1.05,1.05,1.06,0.87,2.58,2.58,2.58
403.72,1.48,-1.09,1.48,-1.09,1.09,1.10,0.95,2.57,2.57,2.57
407.76,1.43,-1.13,1.43,-1.13,1.13,1.15,1.03,2.56,2.56,2.56
411.84,1.38,-1.16,1.38,-1.16,1.17,1.19,1.11,2.55,2.55,2.55
415.96,1.33,-1.20,1.33,-1.20,1.20,1.23,1.18,2.54,2.54,2.53
420.12,1.28,-1.24,1.28,-1.24,1.24,1.27,1.26,2.52,2.52,2.52
424.32,1.23,-1.28,1.23,-1.28,1.27,1.30,1.33,2.51,2.51,2.51
428.56,1.18,-1.31,1.18,-1.31,1.31,1.34,1.40,2.49,2.49,2.50
432.85,1.14,-1.35,1.14,-1.35,1.35,1.38,1.48,2.48,2.48,2.48
437.18,1.09,-1.38,1.09,-1.38,1.38,1.41,1.55,2.47,2.47,2.47
441.55,1.04,-1.42,1.04,-1.42,1.42,1.45,1.61,2.46,2.46,2.45
445.96,0.99,-1.45,0.99,-1.45,1.45,1.48,1.68,2.44,2.44,2.44
450.42,0.94,-1.49,0.94,-1.49,1.49,1.52,1.74,2.43,2.43,2.43
454.93,0.89,-1.53,0.89,-1.53,1.53,1.55,1.81,2.42,2.42,2.42
459.48,0.84,-1.57,0.84,-1.57,1.57,1.58,1.87,2.41,2.41,2.41
464.07,0.79,-1.60,0.79,-1.60,1.60,1.61,1.92,2.40,2.40,2.40
468.71,0.75,-1.64,0.75,-1.64,1.64,1.64,1.97,2.38,2.38,2.39
473.40,0.70,-1.67,0.70,-1.67,1.67,1.67,2.03,2.37,2.37,2.37
478.13,0.66,-1.70,0.66,-1.70,1.70,1.70,2.07,2.36,2.36,2.36
482.91,0.61,-1.74,0.61,-1.74,1.74,1.73,2.12,2.35,2.35,2.35
487.74,0.57,-1.77,0.57,-1.77,1.77,1.76,2.16,2.33,2.33,2.33
492.62,0.52,-1.80,0.52,-1.80,1.80,1.79,2.19,2.32,2.32,2.32
497.55,0.48,-1.82,0.48,-1.82,1.82,1.82,2.22,2.30,2.30,2.30
502.52,0.43,-1.85,0.43,-1.85,1.85,1.84,2.25,2.29,2.29,2.29
507.55,0.39,-1.88,0.39,-1.88,1.88,1.87,2.28,2.27,2.27,2.27
512.62,0.35,-1.91,0.35,-1.91,1.91,1.90,2.30,2.26,2.26,2.26
517.75,0.31,-1.94,0.31,-1.94,1.94,1.92,2.32,2.24,2.24,2.24
522.93,0.26,-1.96,0.26,-1.96,1.96,1.95,2.34,2.23,2.23,2.23
528.16,0.22,-1.99,0.22,-1.99,1.99,1.97,2.35,2.22,2.22,2.21
