frequency,raw,error,smoothed,error_smoothed,equalization,parametric_eq,fixed_band_eq,equalized_raw,equalized_smoothed,target
20.00,6.73,-0.92,6.73,-0.92,0.90,-0.02,0.28,7.62,7.63,7.65
20.20,6.73,-0.92,6.73,-0.92,0.92,-0.02,0.29,7.65,7.65,7.65
20.40,6.72,-0.93,6.72,-0.93,0.94,-0.02,0.30,7.66,7.66,7.65
20.61,6.72,-0.94,6.72,-0.94,0.96,-0.02,0.31,7.67,7.67,7.66
20.81,6.71,-0.96,6.71,-0.96,0.97,-0.02,0.32,7.68,7.68,7.66
21.02,6.70,-0.97,6.70,-0.97,0.98,-0.02,0.33,7.68,7.68,7.67
21.23,6.69,-0.99,6.69,-0.99,0.99,-0.02,0.34,7.68,7.68,7.68
21.44,6.68,-1.00,6.68,-1.00,1.00,-0.02,0.35,7.68,7.68,7.68
21.66,6.68,-1.01,6.68,-1.01,1.00,-0.02,0.36,7.68,7.68,7.69
21.87,6.68,-1.01,6.68,-1.01,1.01,-0.02,0.37,7.69,7.69,7.69
22.09,6.68,-1.01,6.68,-1.01,1.01,-0.02,0.38,7.69,7.69,7.70
22.31,6.70,-1.00,6.70,-1.00,1.00,-0.02,0.40,7.70,7.70,7.70
22.54,6.71,-0.99,6.71,-0.99,0.99,-0.02,0.41,7.70,7.70,7.70
22.76,6.74,-0.97,6.74,-0.97,0.97,-0.02,0.42,7.71,7.71,7.71
22.99,6.76,-0.95,6.76,-0.95,0.95,-0.02,0.43,7.71,7.71,7.71
23.22,6.80,-0.92,6.80,-0.92,0.92,-0.02,0.45,7.72,7.72,7.72
23.45,6.83,-0.89,6.83,-0.89,0.90,-0.02,0.46,7.73,7.72,7.72
23.69,6.86,-0.87,6.86,-0.87,0.87,-0.03,0.47,7.73,7.73,7.73
23.92,6.89,-0.84,6.89,-0.84,0.84,-0.03,0.49,7.73,7.73,7.73
24.16,6.92,-0.81,6.92,-0.81,0.82,-0.03,0.50,7.74,7.74,7.73
24.40,6.95,-0.79,6.95,-0.79,0.79,-0.03,0.52,7.74,7.74,7.74
24.65,6.96,-0.77,6.96,-0.77,0.77,-0.03,0.53,7.74,7.74,7.74
24.89,6.98,-0.76,6.98,-0.76,0.76,-0.03,0.55,7.74,7.74,7.74
25.14,6.99,-0.74,6.99,-0.74,0.74,-0.03,0.56,7.74,7.74,7.73
25.39,7.00,-0.73,7.00,-0.73,0.73,-0.03,0.58,7.73,7.73,7.73
25.65,7.01,-0.73,7.01,-0.73,0.72,-0.03,0.59,7.73,7.73,7.73
25.91,7.02,-0.72,7.02,-0.72,0.72,-0.03,0.60,7.73,7.73,7.74
26.16,7.02,-0.71,7.02,-0.71,0.71,-0.03,0.62,7.73,7.73,7.74
26.43,7.03,-0.71,7.03,-0.71,0.70,-0.03,0.63,7.74,7.74,7.74
26.69,7.04,-0.70,7.04,-0.70,0.70,-0.03,0.65,7.74,7.74,7.74
26.96,7.05,-0.69,7.05,-0.69,0.69,-0.03,0.66,7.74,7.74,7.74
27.23,7.05,-0.69,7.05,-0.69,0.69,-0.03,0.67,7.74,7.74,7.74
27.50,7.05,-0.68,7.05,-0.68,0.69,-0.04,0.69,7.74,7.74,7.74
27.77,7.05,-0.68,7.05,-0.68,0.69,-0.04,0.70,7.74,7.74,7.73
28.05,7.04,-0.69,7.04,-0.69,0.69,-0.04,0.71,7.73,7.73,7.73
28.33,7.03,-0.69,7.03,-0.69,0.69,-0.04,0.72,7.72,7.72,7.72
28.62,7.02,-0.70,7.02,-0.70,0.70,-0.04,0.73,7.72,7.72,7.72
28.90,7.00,-0.71,7.00,-0.71,0.71,-0.04,0.74,7.71,7.71,7.71
29.19,6.99,-0.72,6.99,-0.72,0.72,-0.04,0.75,7.71,7.71,7.71
29.48,6.97,-0.73,6.97,-0.73,0.73,-0.04,0.75,7.70,7.70,7.70
29.78,6.96,-0.74,6.96,-0.74,0.74,-0.04,0.76,7.70,7.70,7.70
30.08,6.94,-0.75,6.94,-0.75,0.75,-0.04,0.76,7.70,7.70,7.70
30.38,6.93,-0.76,6.93,-0.76,0.76,-0.04,0.76,7.69,7.69,7.69
30.68,6.92,-0.77,6.92,-0.77,0.76,-0.04,0.76,7.68,7.68,7.68
30.99,6.91,-0.77,6.91,-0.77,0.77,-0.05,0.76,7.67,7.67,7.67
31.30,6.89,-0.77,6.89,-0.77,0.77,-0.05,0.76,7.66,7.66,7.66
31.61,6.88,-0.77,6.88,-0.77,0.76,-0.05,0.76,7.65,7.65,7.65
31.93,6.88,-0.76,6.88,-0.76,0.76,-0.05,0.76,7.64,7.64,7.64
32.24,6.88,-0.75,6.88,-0.75,0.75,-0.05,0.75,7.62,7.62,7.63
32.57,6.88,-0.74,6.88,-0.74,0.73,-0.05,0.74,7.61,7.61,7.61
32.89,6.88,-0.72,6.88,-0.72,0.72,-0.05,0.74,7.60,7.60,7.60
33.22,6.89,-0.70,6.89,-0.70,0.70,-0.05,0.73,7.59,7.59,7.59
33.55,6.90,-0.68,6.90,-0.68,0.68,-0.05,0.72,7.58,7.58,7.57
33.89,6.90,-0.66,6.90,-0.66,0.66,-0.06,0.70,7.57,7.57,7.56
34.23,6.91,-0.64,6.91,-0.64,0.64,-0.06,0.69,7.55,7.55,7.55
34.57,6.92,-0.62,6.92,-0.62,0.62,-0.06,0.68,7.54,7.54,7.54
34.92,6.93,-0.60,6.93,-0.60,0.60,-0.06,0.66,7.52,7.52,7.53
35.27,6.94,-0.58,6.94,-0.58,0.57,-0.06,0.65,7.51,7.51,7.51
35.62,6.94,-0.56,6.94,-0.56,0.55,-0.06,0.63,7.49,7.49,7.50
35.97,6.95,-0.53,6.95,-0.53,0.53,-0.06,0.61,7.48,7.48,7.48
36.33,6.96,-0.50,6.96,-0.50,0.50,-0.06,0.60,7.47,7.47,7.46
36.70,6.97,-0.48,6.97,-0.48,0.48,-0.07,0.58,7.45,7.45,7.45
37.06,6.97,-0.45,6.97,-0.45,0.46,-0.07,0.56,7.43,7.43,7.43
37.43,6.97,-0.44,6.97,-0.44,0.44,-0.07,0.54,7.41,7.41,7.41
37.81,6.97,-0.42,6.97,-0.42,0.42,-0.07,0.52,7.39,7.39,7.39
38.19,6.96,-0.41,6.96,-0.41,0.41,-0.07,0.51,7.36,7.37,7.37
38.57,6.95,-0.40,6.95,-0.40,0.40,-0.07,0.49,7.35,7.35,7.35
38.95,6.94,-0.39,6.94,-0.39,0.39,-0.08,0.47,7.33,7.33,7.33
39.34,6.93,-0.38,6.93,-0.38,0.38,-0.08,0.45,7.31,7.31,7.31
39.74,6.92,-0.37,6.92,-0.37,0.38,-0.08,0.43,7.29,7.29,7.29
40.14,6.90,-0.38,6.90,-0.38,0.38,-0.08,0.41,7.27,7.27,7.27
40.54,6.87,-0.38,6.87,-0.38,0.38,-0.08,0.39,7.25,7.25,7.25
40.94,6.84,-0.39,6.84,-0.39,0.38,-0.08,0.37,7.23,7.23,7.23
41.35,6.81,-0.39,6.82,-0.39,0.39,-0.09,0.35,7.20,7.20,7.21
41.76,6.79,-0.40,6.79,-0.40,0.40,-0.09,0.33,7.18,7.18,7.18
42.18,6.76,-0.40,6.76,-0.40,0.40,-0.09,0.32,7.16,7.16,7.16
42.60,6.74,-0.40,6.74,-0.40,0.41,-0.09,0.30,7.14,7.14,7.14
43.03,6.72,-0.41,6.72,-0.41,0.41,-0.10,0.28,7.12,7.12,7.12
43.46,6.69,-0.41,6.69,-0.41,0.41,-0.10,0.26,7.10,7.10,7.10
43.90,6.67,-0.41,6.67,-0.41,0.40,-0.10,0.24,7.08,7.08,7.08
44.33,6.65,-0.40,6.66,-0.40,0.40,-0.10,0.23,7.05,7.05,7.06
44.78,6.64,-0.39,6.64,-0.39,0.38,-0.10,0.21,7.03,7.03,7.03
45.23,6.63,-0.37,6.63,-0.37,0.37,-0.11,0.19,7.00,7.00,7.00
45.68,6.63,-0.35,6.63,-0.35,0.35,-0.11,0.18,6.98,6.98,6.98
46.13,6.63,-0.33,6.63,-0.33,0.33,-0.11,0.16,6.96,6.96,6.95
46.60,6.63,-0.30,6.63,-0.30,0.31,-0.12,0.14,6.93,6.93,6.93
47.06,6.63,-0.28,6.63,-0.28,0.28,-0.12,0.13,6.91,6.91,6.91
47.53,6.62,-0.26,6.62,-0.26,0.26,-0.12,0.11,6.88,6.88,6.88
48.01,6.62,-0.24,6.62,-0.24,0.23,-0.12,0.09,6.85,6.85,6.85
48.49,6.61,-0.21,6.61,-0.21,0.21,-0.13,0.08,6.82,6.82,6.82
48.97,6.60,-0.19,6.60,-0.19,0.19,-0.13,0.06,6.79,6.79,6.79
49.46,6.59,-0.17,6.59,-0.17,0.18,-0.13,0.05,6.76,6.76,6.76
49.96,6.57,-0.16,6.57,-0.16,0.16,-0.14,0.03,6.73,6.73,6.72
50.46,6.55,-0.15,6.55,-0.15,0.15,-0.14,0.02,6.70,6.70,6.69
50.96,6.53,-0.14,6.53,-0.14,0.13,-0.14,0.00,6.66,6.66,6.67
51.47,6.51,-0.13,6.51,-0.13,0.12,-0.15,-0.01,6.63,6.63,6.63
51.99,6.49,-0.11,6.49,-0.11,0.10,-0.15,-0.03,6.59,6.59,6.60
52.51,6.47,-0.09,6.47,-0.09,0.09,-0.16,-0.04,6.56,6.56,6.56
53.03,6.46,-0.07,6.46,-0.07,0.07,-0.16,-0.06,6.53,6.53,6.53
53.56,6.45,-0.05,6.45,-0.05,0.05,-0.16,-0.07,6.49,6.49,6.49
54.10,6.43,-0.02,6.43,-0.02,0.02,-0.17,-0.08,6.45,6.45,6.46
54.64,6.42,0.00,6.42,0.00,-0.01,-0.17,-0.10,6.41,6.41,6.42
55.18,6.41,0.03,6.41,0.03,-0.04,-0.18,-0.11,6.38,6.38,6.39
55.74,6.41,0.06,6.41,0.06,-0.07,-0.18,-0.13,6.35,6.35,6.35
56.29,6.41,0.10,6.41,0.10,-0.09,-0.19,-0.14,6.32,6.32,6.31
56.86,6.40,0.13,6.40,0.13,-0.12,-0.19,-0.15,6.29,6.28,6.27
57.42,6.39,0.15,6.39,0.15,-0.14,-0.20,-0.17,6.25,6.25,6.23
58.00,6.36,0.17,6.36,0.16,-0.16,-0.20,-0.18,6.20,6.20,6.19
58.58,6.33,0.17,6.33,0.17,-0.17,-0.21,-0.19,6.15,6.16,6.15
59.16,6.29,0.18,6.29,0.18,-0.18,-0.21,-0.21,6.11,6.11,6.11
59.76,6.26,0.19,6.26,0.19,-0.19,-0.22,-0.22,6.07,6.07,6.07
60.35,6.23,0.20,6.23,0.20,-0.20,-0.22,-0.23,6.03,6.03,6.04
60.96,6.21,0.21,6.21,0.21,-0.20,-0.23,-0.25,6.00,6.00,6.00
61.57,6.18,0.22,6.18,0.21,-0.21,-0.24,-0.26,5.97,5.96,5.96
62.18,6.15,0.22,6.15,0.22,-0.22,-0.24,-0.27,5.93,5.93,5.93
62.80,6.12,0.23,6.12,0.23,-0.24,-0.25,-0.29,5.89,5.89,5.89
63.43,6.10,0.24,6.10,0.25,-0.25,-0.26,-0.30,5.85,5.85,5.85
64.07,6.07,0.26,6.07,0.26,-0.27,-0.26,-0.31,5.80,5.80,5.81
64.71,6.05,0.29,6.05,0.28,-0.29,-0.27,-0.33,5.76,5.76,5.76
65.35,6.02,0.31,6.02,0.31,-0.31,-0.28,-0.34,5.72,5.72,5.71
66.01,6.00,0.33,6.00,0.33,-0.33,-0.29,-0.35,5.67,5.67,5.67
66.67,5.97,0.35,5.97,0.35,-0.35,-0.30,-0.37,5.62,5.62,5.62
67.33,5.95,0.38,5.95,0.38,-0.38,-0.30,-0.38,5.57,5.57,5.57
68.01,5.92,0.40,5.92,0.40,-0.40,-0.31,-0.39,5.52,5.52,5.52
68.69,5.89,0.43,5.89,0.43,-0.43,-0.32,-0.41,5.46,5.46,5.46
69.37,5.86,0.45,5.86,0.45,-0.45,-0.33,-0.42,5.41,5.41,5.41
70.07,5.84,0.48,5.84,0.48,-0.48,-0.34,-0.43,5.36,5.36,5.36
70.77,5.81,0.50,5.81,0.50,-0.50,-0.35,-0.45,5.31,5.31,5.31
71.48,5.79,0.53,5.79,0.53,-0.53,-0.36,-0.46,5.26,5.26,5.26
72.19,5.77,0.55,5.77,0.55,-0.55,-0.37,-0.48,5.22,5.22,5.22
72.91,5.75,0.57,5.75,0.57,-0.56,-0.39,-0.49,5.18,5.18,5.18
73.64,5.72,0.59,5.72,0.58,-0.58,-0.40,-0.51,5.14,5.14,5.13
74.38,5.69,0.60,5.69,0.59,-0.59,-0.41,-0.53,5.10,5.10,5.09
75.12,5.65,0.60,5.65,0.60,-0.60,-0.42,-0.54,5.05,5.05,5.05
75.87,5.62,0.61,5.62,0.61,-0.62,-0.43,-0.56,5.00,5.00,5.01
76.63,5.59,0.62,5.59,0.63,-0.63,-0.45,-0.58,4.95,4.95,4.96
77.40,5.56,0.64,5.56,0.64,-0.65,-0.46,-0.59,4.91,4.91,4.91
78.17,5.53,0.67,5.53,0.67,-0.67,-0.48,-0.61,4.86,4.86,4.86
78.95,5.51,0.70,5.51,0.70,-0.70,-0.49,-0.63,4.81,4.81,4.81
79.74,5.48,0.72,5.48,0.72,-0.72,-0.51,-0.65,4.76,4.76,4.76
80.54,5.45,0.75,5.45,0.75,-0.75,-0.52,-0.67,4.71,4.71,4.70
81.35,5.42,0.78,5.42,0.78,-0.77,-0.54,-0.69,4.65,4.65,4.65
82.16,5.39,0.80,5.39,0.80,-0.80,-0.56,-0.71,4.59,4.59,4.59
82.98,5.35,0.82,5.35,0.82,-0.82,-0.58,-0.73,4.53,4.53,4.53
83.81,5.31,0.84,5.31,0.85,-0.85,-0.59,-0.76,4.47,4.47,4.47
84.65,5.27,0.87,5.27,0.87,-0.87,-0.61,-0.78,4.40,4.40,4.40
85.50,5.23,0.89,5.23,0.89,-0.89,-0.63,-0.80,4.34,4.34,4.34
86.35,5.19,0.91,5.19,0.91,-0.91,-0.65,-0.83,4.28,4.28,4.28
87.22,5.15,0.93,5.15,0.93,-0.93,-0.68,-0.85,4.22,4.22,4.22
88.09,5.11,0.95,5.11,0.95,-0.95,-0.70,-0.88,4.16,4.16,4.16
88.97,5.07,0.96,5.07,0.96,-0.97,-0.72,-0.91,4.10,4.10,4.10
89.86,5.03,0.98,5.03,0.98,-0.98,-0.74,-0.93,4.05,4.05,4.05
90.76,5.00,1.00,5.00,1.00,-1.00,-0.77,-0.96,4.00,4.00,4.00
91.66,4.97,1.02,4.97,1.02,-1.02,-0.79,-0.99,3.96,3.96,3.95
92.58,4.94,1.03,4.94,1.03,-1.03,-0.82,-1.02,3.91,3.91,3.91
93.51,4.91,1.05,4.91,1.05,-1.05,-0.85,-1.05,3.86,3.86,3.86
94.44,4.88,1.07,4.88,1.07,-1.07,-0.87,-1.08,3.81,3.81,3.82
95.39,4.85,1.08,4.85,1.08,-1.09,-0.90,-1.11,3.76,3.76,3.77
96.34,4.81,1.10,4.81,1.10,-1.10,-0.93,-1.14,3.71,3.71,3.71
97.30,4.78,1.12,4.78,1.12,-1.12,-0.96,-1.18,3.66,3.66,3.66
98.28,4.74,1.14,4.74,1.14,-1.14,-0.99,-1.21,3.60,3.60,3.60
99.26,4.70,1.16,4.70,1.16,-1.16,-1.02,-1.24,3.54,3.54,3.54
100.25,4.66,1.18,4.66,1.18,-1.18,-1.05,-1.28,3.48,3.48,3.48
101.25,4.62,1.20,4.62,1.20,-1.20,-1.09,-1.31,3.42,3.42,3.42
102.27,4.58,1.22,4.58,1.22,-1.22,-1.12,-1.34,3.36,3.36,3.36
103.29,4.54,1.23,4.54,1.23,-1.24,-1.15,-1.38,3.30,3.30,3.30
104.32,4.50,1.25,4.50,1.25,-1.25,-1.18,-1.41,3.24,3.24,3.24
105.37,4.46,1.27,4.46,1.27,-1.27,-1.22,-1.44,3.19,3.18,3.18
106.42,4.41,1.29,4.41,1.29,-1.29,-1.25,-1.48,3.13,3.13,3.13
107.48,4.37,1.30,4.37,1.30,-1.30,-1.29,-1.51,3.07,3.07,3.07
108.56,4.33,1.32,4.33,1.32,-1.31,-1.32,-1.54,3.01,3.01,3.01
109.64,4.28,1.33,4.28,1.33,-1.32,-1.35,-1.57,2.96,2.96,2.95
110.74,4.24,1.34,4.24,1.34,-1.34,-1.38,-1.60,2.90,2.90,2.90
111.85,4.19,1.35,4.19,1.35,-1.35,-1.42,-1.63,2.84,2.84,2.84
112.97,4.15,1.36,4.15,1.36,-1.36,-1.45,-1.66,2.78,2.78,2.79
114.10,4.10,1.37,4.10,1.37,-1.38,-1.48,-1.68,2.72,2.72,2.73
115.24,4.06,1.39,4.06,1.39,-1.40,-1.50,-1.71,2.66,2.66,2.67
116.39,4.02,1.41,4.02,1.41,-1.42,-1.53,-1.73,2.60,2.60,2.61
117.55,3.98,1.44,3.98,1.44,-1.44,-1.56,-1.75,2.54,2.54,2.54
118.73,3.95,1.47,3.95,1.47,-1.47,-1.58,-1.77,2.48,2.48,2.47
119.92,3.91,1.50,3.91,1.50,-1.49,-1.60,-1.78,2.42,2.42,2.41
121.12,3.88,1.52,3.88,1.52,-1.52,-1.62,-1.79,2.36,2.36,2.36
122.33,3.84,1.54,3.84,1.54,-1.54,-1.64,-1.80,2.30,2.30,2.30
123.55,3.81,1.55,3.81,1.55,-1.55,-1.65,-1.81,2.25,2.25,2.25
124.79,3.77,1.57,3.77,1.57,-1.56,-1.66,-1.82,2.21,2.20,2.20
126.03,3.73,1.58,3.73,1.57,-1.57,-1.68,-1.82,2.16,2.16,2.15
127.29,3.68,1.58,3.68,1.58,-1.57,-1.68,-1.82,2.11,2.11,2.11
128.57,3.63,1.57,3.64,1.57,-1.57,-1.69,-1.82,2.06,2.06,2.06
129.85,3.59,1.57,3.59,1.57,-1.57,-1.69,-1.81,2.01,2.01,2.02
131.15,3.54,1.57,3.54,1.57,-1.57,-1.69,-1.81,1.96,1.96,1.97
132.46,3.49,1.56,3.49,1.56,-1.57,-1.68,-1.80,1.91,1.91,1.92
133.79,3.44,1.57,3.44,1.57,-1.57,-1.68,-1.79,1.87,1.87,1.87
135.12,3.39,1.57,3.39,1.57,-1.57,-1.67,-1.77,1.82,1.82,1.82
136.48,3.34,1.58,3.34,1.58,-1.57,-1.66,-1.76,1.77,1.76,1.76
137.84,3.28,1.59,3.28,1.58,-1.57,-1.64,-1.74,1.71,1.71,1.70
139.22,3.22,1.58,3.22,1.58,-1.57,-1.63,-1.72,1.65,1.65,1.64
140.61,3.16,1.58,3.16,1.58,-1.58,-1.61,-1.70,1.59,1.59,1.59
142.02,3.11,1.57,3.11,1.57,-1.58,-1.60,-1.68,1.53,1.53,1.54
143.44,3.06,1.57,3.06,1.57,-1.58,-1.58,-1.66,1.48,1.48,1.49
144.87,3.02,1.58,3.02,1.58,-1.59,-1.56,-1.63,1.43,1.44,1.45
146.32,2.99,1.59,2.99,1.59,-1.59,-1.54,-1.61,1.40,1.40,1.40
147.78,2.96,1.60,2.95,1.60,-1.59,-1.52,-1.59,1.36,1.36,1.36
149.26,2.92,1.60,2.92,1.60,-1.59,-1.50,-1.56,1.32,1.32,1.31
150.75,2.87,1.60,2.87,1.60,-1.59,-1.48,-1.54,1.28,1.28,1.27
152.26,2.82,1.59,2.82,1.59,-1.59,-1.46,-1.51,1.23,1.23,1.23
153.78,2.76,1.58,2.76,1.58,-1.58,-1.44,-1.49,1.19,1.19,1.19
155.32,2.71,1.56,2.71,1.56,-1.56,-1.43,-1.46,1.15,1.15,1.15
156.88,2.66,1.54,2.66,1.54,-1.55,-1.41,-1.44,1.11,1.11,1.12
158.44,2.61,1.52,2.61,1.52,-1.53,-1.39,-1.42,1.08,1.08,1.09
160.03,2.56,1.50,2.56,1.50,-1.50,-1.38,-1.39,1.06,1.06,1.06
161.63,2.52,1.48,2.52,1.48,-1.47,-1.36,-1.37,1.04,1.04,1.03
163.24,2.47,1.46,2.47,1.46,-1.45,-1.35,-1.35,1.02,1.02,1.01
164.88,2.42,1.43,2.42,1.43,-1.42,-1.34,-1.33,1.01,1.01,0.99
166.53,2.38,1.39,2.38,1.39,-1.39,-1.33,-1.31,0.99,0.99,0.98
168.19,2.33,1.36,2.33,1.36,-1.36,-1.32,-1.29,0.96,0.96,0.97
169.87,2.28,1.33,2.28,1.33,-1.34,-1.31,-1.27,0.93,0.93,0.95
171.57,2.22,1.31,2.22,1.31,-1.33,-1.31,-1.25,0.89,0.89,0.92
173.29,2.17,1.31,2.17,1.31,-1.33,-1.30,-1.24,0.85,0.85,0.86
175.02,2.12,1.32,2.12,1.32,-1.33,-1.30,-1.22,0.79,0.79,0.80
176.77,2.07,1.34,2.07,1.34,-1.34,-1.30,-1.21,0.73,0.73,0.73
178.54,2.01,1.36,2.01,1.36,-1.36,-1.30,-1.20,0.66,0.66,0.65
180.32,1.96,1.38,1.96,1.38,-1.37,-1.30,-1.18,0.59,0.59,0.58
182.13,1.91,1.40,1.91,1.40,-1.38,-1.31,-1.17,0.53,0.53,0.51
183.95,1.86,1.40,1.86,1.40,-1.39,-1.31,-1.16,0.47,0.47,0.46
185.79,1.81,1.40,1.81,1.40,-1.40,-1.32,-1.15,0.41,0.41,0.41
187.65,1.76,1.40,1.76,1.40,-1.39,-1.32,-1.14,0.37,0.37,0.36
189.52,1.71,1.39,1.71,1.39,-1.39,-1.33,-1.14,0.32,0.32,0.32
191.42,1.66,1.38,1.66,1.38,-1.38,-1.34,-1.13,0.28,0.28,0.28
193.33,1.61,1.37,1.61,1.37,-1.37,-1.35,-1.12,0.24,0.24,0.24
195.27,1.57,1.36,1.57,1.36,-1.37,-1.36,-1.12,0.20,0.20,0.21
197.22,1.52,1.36,1.52,1.36,-1.36,-1.37,-1.11,0.16,0.16,0.17
199.19,1.48,1.36,1.48,1.36,-1.36,-1.37,-1.11,0.12,0.12,0.13
201.18,1.45,1.36,1.45,1.36,-1.36,-1.38,-1.10,0.09,0.09,0.09
203.19,1.41,1.36,1.41,1.36,-1.36,-1.38,-1.10,0.06,0.06,0.05
205.23,1.38,1.36,1.38,1.36,-1.35,-1.39,-1.10,0.03,0.03,0.02
207.28,1.34,1.35,1.34,1.35,-1.35,-1.39,-1.10,-0.00,-0.00,-0.01
209.35,1.31,1.34,1.30,1.34,-1.34,-1.38,-1.09,-0.03,-0.03,-0.03
211.44,1.27,1.33,1.27,1.33,-1.33,-1.38,-1.09,-0.06,-0.06,-0.06
213.56,1.23,1.31,1.23,1.31,-1.31,-1.37,-1.09,-0.09,-0.09,-0.09
215.69,1.18,1.29,1.18,1.29,-1.30,-1.36,-1.09,-0.11,-0.11,-0.11
217.85,1.14,1.28,1.14,1.28,-1.28,-1.34,-1.09,-0.14,-0.14,-0.13
220.03,1.10,1.26,1.10,1.26,-1.26,-1.33,-1.08,-0.16,-0.16,-0.16
222.23,1.05,1.23,1.05,1.23,-1.23,-1.30,-1.08,-0.18,-0.18,-0.18
224.45,1.00,1.21,1.00,1.21,-1.21,-1.28,-1.08,-0.20,-0.20,-0.21
226.70,0.96,1.18,0.96,1.18,-1.18,-1.25,-1.07,-0.23,-0.23,-0.23
228.96,0.91,1.16,0.91,1.16,-1.16,-1.22,-1.07,-0.25,-0.25,-0.25
231.25,0.86,1.13,0.86,1.13,-1.13,-1.19,-1.06,-0.27,-0.27,-0.27
233.57,0.82,1.10,0.82,1.10,-1.10,-1.15,-1.06,-0.28,-0.28,-0.28
235.90,0.77,1.07,0.77,1.07,-1.07,-1.11,-1.05,-0.30,-0.30,-0.30
238.26,0.73,1.04,0.73,1.04,-1.04,-1.07,-1.04,-0.31,-0.31,-0.31
240.64,0.69,1.01,0.69,1.01,-1.01,-1.03,-1.03,-0.32,-0.32,-0.32
243.05,0.65,0.98,0.65,0.98,-0.98,-0.99,-1.02,-0.33,-0.33,-0.33
245.48,0.60,0.95,0.60,0.95,-0.95,-0.95,-1.00,-0.35,-0.35,-0.35
247.93,0.56,0.92,0.56,0.92,-0.92,-0.90,-0.99,-0.36,-0.36,-0.36
250.41,0.51,0.89,0.51,0.89,-0.88,-0.86,-0.97,-0.37,-0.37,-0.38
252.92,0.46,0.85,0.46,0.85,-0.85,-0.81,-0.95,-0.39,-0.39,-0.39
255.45,0.41,0.81,0.41,0.81,-0.82,-0.77,-0.94,-0.40,-0.40,-0.40
258.00,0.37,0.78,0.37,0.78,-0.78,-0.73,-0.91,-0.41,-0.41,-0.41
260.58,0.32,0.75,0.32,0.75,-0.75,-0.69,-0.89,-0.43,-0.43,-0.42
263.19,0.28,0.72,0.28,0.72,-0.72,-0.64,-0.87,-0.44,-0.44,-0.44
265.82,0.24,0.69,0.24,0.69,-0.69,-0.60,-0.84,-0.45,-0.45,-0.45
268.48,0.19,0.66,0.19,0.66,-0.66,-0.56,-0.82,-0.46,-0.46,-0.47
271.16,0.15,0.63,0.15,0.63,-0.63,-0.52,-0.79,-0.48,-0.48,-0.48
273.87,0.11,0.60,0.11,0.60,-0.60,-0.49,-0.76,-0.49,-0.49,-0.49
276.61,0.07,0.57,0.07,0.57,-0.56,-0.45,-0.73,-0.50,-0.50,-0.50
279.38,0.02,0.53,0.02,0.53,-0.53,-0.41,-0.70,-0.51,-0.51,-0.51
282.17,-0.02,0.50,-0.02,0.50,-0.50,-0.38,-0.67,-0.52,-0.52,-0.52
284.99,-0.07,0.46,-0.07,0.46,-0.46,-0.34,-0.63,-0.53,-0.53,-0.52
287.84,-0.11,0.42,-0.11,0.42,-0.43,-0.31,-0.60,-0.54,-0.54,-0.53
290.72,-0.15,0.39,-0.15,0.39,-0.39,-0.28,-0.56,-0.54,-0.54,-0.54
293.63,-0.20,0.35,-0.20,0.35,-0.35,-0.25,-0.53,-0.55,-0.55,-0.55
296.57,-0.24,0.32,-0.24,0.32,-0.32,-0.21,-0.49,-0.56,-0.56,-0.56
299.53,-0.28,0.28,-0.28,0.28,-0.28,-0.18,-0.45,-0.56,-0.56,-0.56
302.53,-0.32,0.25,-0.32,0.25,-0.25,-0.15,-0.41,-0.57,-0.57,-0.57
305.55,-0.36,0.21,-0.36,0.21,-0.21,-0.13,-0.38,-0.57,-0.57,-0.57
308.61,-0.40,0.18,-0.40,0.18,-0.18,-0.10,-0.34,-0.57,-0.57,-0.58
311.69,-0.44,0.14,-0.44,0.14,-0.14,-0.07,-0.30,-0.58,-0.58,-0.58
314.81,-0.47,0.11,-0.47,0.11,-0.11,-0.04,-0.26,-0.58,-0.58,-0.58
317.96,-0.51,0.07,-0.51,0.07,-0.07,-0.02,-0.22,-0.58,-0.58,-0.58
321.14,-0.54,0.04,-0.54,0.04,-0.04,0.01,-0.18,-0.58,-0.58,-0.58
324.35,-0.58,0.00,-0.58,0.00,0.00,0.03,-0.14,-0.58,-0.58,-0.58
327.59,-0.61,-0.03,-0.61,-0.03,0.04,0.06,-0.10,-0.58,-0.58,-0.58
330.87,-0.65,-0.07,-0.65,-0.07,0.07,0.08,-0.06,-0.58,-0.58,-0.58
334.18,-0.69,-0.10,-0.69,-0.10,0.10,0.11,-0.01,-0.58,-0.58,-0.58
337.52,-0.72,-0.14,-0.72,-0.14,0.14,0.13,0.03,-0.59,-0.59,-0.59
340.90,-0.76,-0.17,-0.76,-0.17,0.17,0.16,0.07,-0.59,-0.59,-0.59
344.30,-0.79,-0.20,-0.79,-0.20,0.20,0.18,0.11,-0.59,-0.59,-0.59
347.75,-0.82,-0.23,-0.82,-0.23,0.23,0.20,0.15,-0.59,-0.59,-0.59
351.23,-0.85,-0.26,-0.85,-0.26,0.26,0.23,0.19,-0.59,-0.59,-0.60
354.74,-0.88,-0.28,-0.88,-0.28,0.29,0.25,0.24,-0.60,-0.60,-0.60
358.28,-0.91,-0.31,-0.91,-0.31,0.31,0.27,0.28,-0.60,-0.60,-0.60
361.87,-0.95,-0.34,-0.95,-0.34,0.34,0.29,0.32,-0.60,-0.60,-0.60
365.49,-0.98,-0.37,-0.98,-0.37,0.37,0.32,0.37,-0.61,-0.61,-0.61
369.14,-1.01,-0.40,-1.01,-0.40,0.40,0.34,0.41,-0.61,-0.61,-0.61
372.83,-1.04,-0.43,-1.04,-0.43,0.43,0.36,0.45,-0.61,-0.61,-0.61
376.56,-1.07,-0.46,-1.07,-0.46,0.45,0.38,0.50,-0.62,-0.62,-0.62
380.33,-1.10,-0.48,-1.10,-0.48,0.48,0.41,0.54,-0.62,-0.62,-0.62
384.13,-1.13,-0.51,-1.13,-0.51,0.51,0.43,0.58,-0.62,-0.62,-0.62
387.97,-1.16,-0.53,-1.16,-0.53,0.53,0.45,0.63,-0.63,-0.63,-0.63
391.85,-1.19,-0.55,-1.19,-0.55,0.55,0.47,0.67,-0.63,-0.63,-0.63
395.77,-1.22,-0.58,-1.22,-0.58,0.57,0.49,0.71,-0.64,-0.64,-0.64
399.73,-1.25,-0.60,-1.24,-0.60,0.60,0.52,0.76,-0.65,-0.65,-0.65
403.72,-1.27,-0.62,-1.27,-0.62,0.62,0.54,0.80,-0.65,-0.65,-0.65
407.76,-1.30,-0.64,-1.30,-0.64,0.64,0.56,0.84,-0.66,-0.66,-0.66
411.84,-1.32,-0.66,-1.32,-0.66,0.66,0.58,0.89,-0.66,-0.66,-0.66
415.96,-1.35,-0.68,-1.35,-0.68,0.69,0.60,0.93,-0.66,-0.66,-0.67
420.12,-1.38,-0.71,-1.38,-0.71,0.71,0.62,0.97,-0.67,-0.67,-0.68
424.32,-1.42,-0.74,-1.42,-0.74,0.74,0.65,1.01,-0.68,-0.68,-0.68
428.56,-1.45,-0.77,-1.45,-0.76,0.76,0.67,1.05,-0.69,-0.69,-0.68
432.85,-1.48,-0.79,-1.48,-0.79,0.79,0.69,1.09,-0.69,-0.69,-0.69
437.18,-1.51,-0.82,-1.51,-0.82,0.81,0.71,1.13,-0.69,-0.69,-0.69
441.55,-1.53,-0.84,-1.53,-0.84,0.84,0.73,1.16,-0.69,-0.69,-0.69
445.96,-1.55,-0.86,-1.55,-0.86,0.86,0.75,1.20,-0.70,-0.70,-0.70
450.42,-1.57,-0.87,-1.57,-0.87,0.88,0.78,1.23,-0.70,-0.70,-0.70
454.93,-1.59,-0.89,-1.59,-0.89,0.89,0.80,1.26,-0.70,-0.70,-0.70
459.48,-1.61,-0.91,-1.61,-0.91,0.90,0.82,1.29,-0.71,-0.71,-0.70
464.07,-1.62,-0.92,-1.62,-0.92,0.91,0.84,1.32,-0.71,-0.71,-0.71
468.71,-1.63,-0.92,-1.63,-0.92,0.92,0.86,1.34,-0.71,-0.71,-0.71
473.40,-1.64,-0.92,-1.64,-0.93,0.93,0.88,1.37,-0.71,-0.71,-0.72
478.13,-1.65,-0.93,-1.65,-0.93,0.94,0.90,1.39,-0.71,-0.71,-0.72
482.91,-1.66,-0.94,-1.66,-0.94,0.94,0.92,1.41,-0.72,-0.72,-0.72
487.74,-1.67,-0.95,-1.67,-0.95,0.95,0.94,1.42,-0.72,-0.72,-0.73
492.62,-1.69,-0.96,-1.69,-0.96,0.96,0.96,1.43,-0.73,-0.73,-0.73
497.55,-1.71,-0.97,-1.71,-0.97,0.97,0.98,1.44,-0.74,-0.74,-0.74
502.52,-1.72,-0.98,-1.72,-0.98,0.98,1.00,1.45,-0.74,-0.74,-0.74
507.55,-1.74,-0.99,-1.74,-0.99,0.99,1.02,1.45,-0.75,-0.75,-0.75
512.62,-1.75,-1.00,-1.75,-1.00,1.00,1.03,1.45,-0.75,-0.75,-0.75
