frequency,raw,error,smoothed,error_smoothed,equalization,parametric_eq,fixed_band_eq,equalized_raw,equalized_smoothed,target
20.00,7.67,-2.20,7.67,-2.19,2.20,-0.01,0.65,9.88,9.88,9.87
20.20,7.69,-2.19,7.68,-2.19,2.20,-0.01,0.67,9.88,9.88,9.88
20.40,7.70,-2.19,7.70,-2.19,2.19,-0.01,0.69,9.89,9.89,9.89
20.61,7.72,-2.19,7.72,-2.18,2.18,-0.01,0.71,9.89,9.90,9.90
20.81,7.76,-2.17,7.76,-2.17,2.16,-0.01,0.73,9.92,9.92,9.93
21.02,7.80,-2.16,7.80,-2.16,2.15,-0.01,0.75,9.95,9.95,9.95
21.23,7.84,-2.14,7.84,-2.14,2.13,-0.01,0.78,9.98,9.98,9.98
21.44,7.88,-2.11,7.88,-2.11,2.12,-0.01,0.80,10.00,10.00,10.00
21.66,7.93,-2.09,7.93,-2.09,2.10,-0.01,0.83,10.02,10.02,10.02
21.87,7.97,-2.07,7.97,-2.07,2.07,-0.01,0.85,10.04,10.04,10.04
22.09,8.01,-2.05,8.01,-2.05,2.05,-0.01,0.88,10.06,10.06,10.06
22.31,8.05,-2.03,8.05,-2.03,2.03,-0.01,0.90,10.08,10.08,10.08
22.54,8.08,-2.01,8.08,-2.01,2.01,-0.01,0.93,10.09,10.09,10.09
22.76,8.12,-1.99,8.12,-1.99,1.99,-0.01,0.96,10.11,10.11,10.11
22.99,8.16,-1.97,8.16,-1.97,1.97,-0.01,0.99,10.13,10.13,10.13
23.22,8.20,-1.95,8.20,-1.95,1.95,-0.01,1.02,10.15,10.15,10.15
23.45,8.24,-1.92,8.24,-1.92,1.92,-0.01,1.05,10.17,10.17,10.17
23.69,8.28,-1.90,8.28,-1.90,1.90,-0.01,1.08,10.19,10.19,10.19
23.92,8.32,-1.88,8.32,-1.88,1.88,-0.02,1.11,10.21,10.21,10.21
24.16,8.36,-1.86,8.36,-1.86,1.86,-0.02,1.14,10.22,10.22,10.22
24.40,8.40,-1.84,8.40,-1.84,1.84,-0.02,1.17,10.24,10.24,10.24
24.65,8.44,-1.82,8.44,-1.82,1.82,-0.02,1.20,10.26,10.26,10.26
24.89,8.47,-1.80,8.47,-1.80,1.80,-0.02,1.23,10.27,10.27,10.27
25.14,8.50,-1.78,8.50,-1.78,1.78,-0.02,1.27,10.29,10.29,10.29
25.39,8.53,-1.77,8.54,-1.77,1.77,-0.02,1.30,10.30,10.30,10.30
25.65,8.57,-1.75,8.57,-1.75,1.75,-0.02,1.33,10.32,10.32,10.32
25.91,8.60,-1.73,8.60,-1.73,1.73,-0.02,1.37,10.33,10.33,10.33
26.16,8.63,-1.71,8.64,-1.71,1.71,-0.02,1.40,10.35,10.35,10.35
26.43,8.67,-1.69,8.67,-1.69,1.69,-0.02,1.43,10.36,10.36,10.36
26.69,8.70,-1.67,8.70,-1.67,1.67,-0.02,1.46,10.37,10.37,10.37
26.96,8.73,-1.65,8.73,-1.65,1.65,-0.02,1.49,10.39,10.39,10.39
27.23,8.77,-1.63,8.77,-1.63,1.63,-0.02,1.52,10.40,10.40,10.40
27.50,8.80,-1.61,8.80,-1.61,1.61,-0.02,1.55,10.41,10.41,10.41
27.77,8.83,-1.59,8.83,-1.59,1.59,-0.02,1.58,10.42,10.42,10.42
28.05,8.86,-1.57,8.86,-1.57,1.57,-0.02,1.61,10.43,10.43,10.43
28.33,8.89,-1.55,8.89,-1.55,1.55,-0.02,1.63,10.44,10.44,10.44
28.62,8.92,-1.53,8.92,-1.53,1.53,-0.02,1.65,10.45,10.45,10.45
28.90,8.95,-1.51,8.95,-1.51,1.51,-0.02,1.67,10.46,10.46,10.46
29.19,8.98,-1.49,8.98,-1.49,1.49,-0.02,1.69,10.47,10.47,10.46
29.48,9.00,-1.47,9.00,-1.47,1.47,-0.02,1.71,10.48,10.48,10.47
29.78,9.03,-1.46,9.03,-1.46,1.46,-0.02,1.73,10.49,10.49,10.48
30.08,9.05,-1.44,9.05,-1.44,1.44,-0.02,1.74,10.49,10.49,10.49
30.38,9.07,-1.43,9.07,-1.43,1.43,-0.02,1.75,10.50,10.50,10.50
30.68,9.09,-1.42,9.09,-1.42,1.42,-0.03,1.75,10.51,10.51,10.51
30.99,9.11,-1.41,9.11,-1.41,1.40,-0.03,1.76,10.51,10.51,10.51
31.30,9.13,-1.39,9.13,-1.39,1.39,-0.03,1.76,10.52,10.52,10.52
31.61,9.15,-1.38,9.15,-1.38,1.37,-0.03,1.76,10.52,10.52,10.52
31.93,9.17,-1.36,9.17,-1.36,1.35,-0.03,1.75,10.53,10.53,10.53
32.24,9.19,-1.34,9.19,-1.34,1.34,-0.03,1.75,10.53,10.53,10.53
32.57,9.22,-1.31,9.22,-1.32,1.32,-0.03,1.74,10.53,10.53,10.53
32.89,9.24,-1.30,9.24,-1.30,1.30,-0.03,1.73,10.54,10.54,10.53
33.22,9.26,-1.28,9.26,-1.28,1.28,-0.03,1.71,10.54,10.54,10.54
33.55,9.28,-1.26,9.28,-1.26,1.26,-0.03,1.69,10.54,10.54,10.54
33.89,9.29,-1.25,9.29,-1.25,1.25,-0.03,1.67,10.54,10.54,10.54
34.23,9.31,-1.23,9.31,-1.23,1.23,-0.03,1.65,10.54,10.54,10.54
34.57,9.32,-1.22,9.32,-1.22,1.22,-0.03,1.63,10.54,10.54,10.54
34.92,9.34,-1.20,9.34,-1.20,1.20,-0.03,1.61,10.54,10.54,10.54
35.27,9.35,-1.19,9.35,-1.19,1.19,-0.03,1.58,10.54,10.54,10.54
35.62,9.36,-1.17,9.36,-1.17,1.17,-0.03,1.55,10.54,10.54,10.54
35.97,9.37,-1.16,9.37,-1.16,1.16,-0.03,1.52,10.53,10.53,10.54
36.33,9.39,-1.15,9.39,-1.15,1.15,-0.04,1.50,10.53,10.53,10.53
36.70,9.40,-1.13,9.40,-1.13,1.13,-0.04,1.47,10.53,10.53,10.53
37.06,9.41,-1.12,9.41,-1.12,1.12,-0.04,1.44,10.53,10.53,10.53
37.43,9.42,-1.10,9.42,-1.10,1.10,-0.04,1.40,10.52,10.52,10.52
37.81,9.43,-1.09,9.43,-1.08,1.09,-0.04,1.37,10.52,10.52,10.52
38.19,9.44,-1.07,9.44,-1.07,1.07,-0.04,1.34,10.51,10.51,10.51
38.57,9.45,-1.06,9.45,-1.06,1.06,-0.04,1.31,10.51,10.51,10.50
38.95,9.46,-1.04,9.46,-1.04,1.05,-0.04,1.28,10.50,10.50,10.50
39.34,9.47,-1.03,9.47,-1.03,1.03,-0.04,1.25,10.50,10.50,10.50
39.74,9.48,-1.02,9.48,-1.02,1.02,-0.04,1.22,10.49,10.49,10.49
40.14,9.49,-1.00,9.49,-1.00,1.00,-0.04,1.18,10.49,10.49,10.49
40.54,9.50,-0.99,9.50,-0.99,0.98,-0.04,1.15,10.48,10.48,10.49
40.94,9.52,-0.97,9.52,-0.97,0.96,-0.05,1.12,10.48,10.48,10.48
41.35,9.53,-0.94,9.53,-0.94,0.94,-0.05,1.10,10.48,10.48,10.48
41.76,9.55,-0.92,9.55,-0.92,0.92,-0.05,1.07,10.47,10.47,10.47
42.18,9.57,-0.90,9.57,-0.90,0.90,-0.05,1.04,10.47,10.47,10.47
42.60,9.59,-0.88,9.59,-0.88,0.88,-0.05,1.01,10.47,10.47,10.46
43.03,9.60,-0.86,9.60,-0.86,0.86,-0.05,0.99,10.46,10.46,10.46
43.46,9.61,-0.84,9.61,-0.84,0.84,-0.05,0.96,10.46,10.46,10.45
43.90,9.62,-0.82,9.62,-0.82,0.83,-0.05,0.93,10.45,10.45,10.45
44.33,9.63,-0.81,9.63,-0.81,0.81,-0.05,0.91,10.44,10.44,10.44
44.78,9.63,-0.80,9.63,-0.80,0.80,-0.05,0.89,10.43,10.43,10.43
45.23,9.63,-0.78,9.63,-0.78,0.79,-0.06,0.86,10.42,10.42,10.42
45.68,9.63,-0.78,9.63,-0.78,0.78,-0.06,0.84,10.41,10.41,10.41
46.13,9.63,-0.77,9.63,-0.77,0.77,-0.06,0.82,10.39,10.39,10.40
46.60,9.63,-0.76,9.63,-0.76,0.75,-0.06,0.80,10.38,10.38,10.39
47.06,9.63,-0.75,9.63,-0.75,0.74,-0.06,0.78,10.37,10.37,10.38
47.53,9.64,-0.73,9.64,-0.73,0.72,-0.06,0.76,10.36,10.36,10.37
48.01,9.65,-0.71,9.65,-0.71,0.70,-0.06,0.74,10.35,10.35,10.36
48.49,9.66,-0.68,9.66,-0.69,0.68,-0.06,0.72,10.34,10.34,10.34
48.97,9.67,-0.66,9.67,-0.66,0.66,-0.07,0.70,10.33,10.33,10.33
49.46,9.67,-0.64,9.67,-0.64,0.64,-0.07,0.69,10.31,10.31,10.31
49.96,9.68,-0.61,9.68,-0.61,0.62,-0.07,0.67,10.30,10.30,10.29
50.46,9.68,-0.59,9.68,-0.59,0.60,-0.07,0.66,10.28,10.28,10.27
50.96,9.68,-0.58,9.68,-0.58,0.58,-0.07,0.64,10.26,10.26,10.26
51.47,9.68,-0.56,9.68,-0.56,0.57,-0.07,0.63,10.25,10.25,10.24
51.99,9.68,-0.55,9.68,-0.55,0.55,-0.07,0.61,10.23,10.23,10.23
52.51,9.68,-0.54,9.68,-0.54,0.54,-0.08,0.60,10.22,10.22,10.22
53.03,9.67,-0.53,9.67,-0.53,0.53,-0.08,0.58,10.20,10.20,10.20
53.56,9.67,-0.52,9.67,-0.52,0.52,-0.08,0.57,10.19,10.19,10.19
54.10,9.66,-0.52,9.66,-0.52,0.52,-0.08,0.56,10.18,10.18,10.18
54.64,9.65,-0.51,9.65,-0.51,0.51,-0.08,0.55,10.16,10.16,10.16
55.18,9.65,-0.50,9.65,-0.50,0.50,-0.08,0.53,10.14,10.14,10.15
55.74,9.64,-0.49,9.64,-0.49,0.49,-0.09,0.52,10.13,10.13,10.13
56.29,9.64,-0.48,9.64,-0.48,0.48,-0.09,0.51,10.11,10.11,10.11
56.86,9.63,-0.46,9.63,-0.47,0.46,-0.09,0.50,10.09,10.09,10.09
57.42,9.62,-0.45,9.62,-0.45,0.45,-0.09,0.48,10.07,10.07,10.07
58.00,9.61,-0.44,9.61,-0.44,0.44,-0.09,0.47,10.05,10.05,10.05
58.58,9.61,-0.42,9.61,-0.42,0.42,-0.10,0.46,10.03,10.03,10.03
59.16,9.60,-0.41,9.60,-0.41,0.41,-0.10,0.45,10.01,10.01,10.01
59.76,9.59,-0.40,9.59,-0.40,0.40,-0.10,0.44,9.99,9.99,9.99
60.35,9.58,-0.38,9.58,-0.38,0.39,-0.10,0.42,9.97,9.97,9.97
60.96,9.57,-0.37,9.57,-0.37,0.37,-0.10,0.41,9.95,9.95,9.95
61.57,9.57,-0.36,9.57,-0.36,0.36,-0.11,0.40,9.93,9.93,9.93
62.18,9.56,-0.35,9.56,-0.35,0.35,-0.11,0.38,9.91,9.91,9.91
62.80,9.55,-0.34,9.55,-0.34,0.34,-0.11,0.37,9.89,9.89,9.89
63.43,9.53,-0.33,9.54,-0.33,0.33,-0.11,0.36,9.87,9.87,9.87
64.07,9.52,-0.32,9.52,-0.32,0.32,-0.12,0.34,9.84,9.84,9.85
64.71,9.51,-0.31,9.51,-0.31,0.31,-0.12,0.33,9.82,9.82,9.82
65.35,9.49,-0.30,9.49,-0.30,0.30,-0.12,0.32,9.79,9.79,9.79
66.01,9.47,-0.29,9.47,-0.29,0.29,-0.12,0.30,9.76,9.76,9.77
66.67,9.46,-0.28,9.46,-0.28,0.28,-0.13,0.29,9.73,9.73,9.74
67.33,9.44,-0.26,9.44,-0.26,0.26,-0.13,0.27,9.70,9.70,9.70
68.01,9.42,-0.25,9.42,-0.25,0.25,-0.13,0.26,9.67,9.67,9.67
68.69,9.40,-0.24,9.40,-0.24,0.24,-0.14,0.24,9.64,9.64,9.64
69.37,9.38,-0.23,9.38,-0.23,0.23,-0.14,0.23,9.61,9.61,9.61
70.07,9.36,-0.22,9.36,-0.22,0.22,-0.14,0.21,9.58,9.58,9.58
70.77,9.34,-0.21,9.34,-0.21,0.21,-0.14,0.19,9.55,9.55,9.55
71.48,9.31,-0.21,9.31,-0.21,0.21,-0.15,0.18,9.52,9.52,9.52
72.19,9.29,-0.20,9.29,-0.20,0.21,-0.15,0.16,9.49,9.49,9.49
72.91,9.26,-0.20,9.26,-0.20,0.20,-0.15,0.14,9.47,9.47,9.47
73.64,9.24,-0.20,9.24,-0.20,0.20,-0.16,0.13,9.44,9.44,9.44
74.38,9.21,-0.21,9.21,-0.21,0.21,-0.16,0.11,9.42,9.42,9.42
75.12,9.19,-0.21,9.19,-0.21,0.21,-0.17,0.09,9.39,9.39,9.39
75.87,9.16,-0.21,9.16,-0.21,0.21,-0.17,0.08,9.37,9.37,9.37
76.63,9.13,-0.21,9.13,-0.21,0.21,-0.17,0.06,9.34,9.34,9.34
77.40,9.10,-0.21,9.10,-0.21,0.21,-0.18,0.04,9.31,9.31,9.31
78.17,9.07,-0.21,9.07,-0.21,0.21,-0.18,0.02,9.28,9.28,9.28
78.95,9.04,-0.21,9.04,-0.21,0.21,-0.18,0.00,9.25,9.25,9.25
79.74,9.01,-0.21,9.01,-0.21,0.21,-0.19,-0.01,9.22,9.22,9.21
80.54,8.97,-0.21,8.97,-0.21,0.21,-0.19,-0.03,9.18,9.18,9.18
81.35,8.93,-0.20,8.94,-0.20,0.21,-0.20,-0.05,9.14,9.14,9.14
82.16,8.90,-0.20,8.90,-0.20,0.20,-0.20,-0.07,9.10,9.10,9.10
82.98,8.86,-0.19,8.86,-0.20,0.19,-0.21,-0.09,9.06,9.06,9.06
83.81,8.83,-0.19,8.83,-0.18,0.18,-0.21,-0.11,9.01,9.01,9.01
84.65,8.80,-0.17,8.80,-0.17,0.17,-0.22,-0.12,8.96,8.96,8.97
85.50,8.77,-0.15,8.77,-0.15,0.14,-0.22,-0.14,8.91,8.91,8.92
86.35,8.76,-0.12,8.76,-0.12,0.11,-0.23,-0.16,8.87,8.87,8.87
87.22,8.75,-0.08,8.75,-0.08,0.07,-0.23,-0.18,8.82,8.82,8.83
88.09,8.75,-0.04,8.75,-0.04,0.03,-0.24,-0.20,8.78,8.78,8.79
88.97,8.76,0.01,8.76,0.01,-0.01,-0.24,-0.22,8.75,8.75,8.75
89.86,8.78,0.07,8.78,0.06,-0.06,-0.25,-0.24,8.72,8.72,8.71
90.76,8.79,0.12,8.79,0.11,-0.11,-0.25,-0.26,8.68,8.68,8.68
91.66,8.81,0.16,8.81,0.16,-0.16,-0.26,-0.28,8.65,8.65,8.65
92.58,8.82,0.21,8.82,0.21,-0.20,-0.26,-0.30,8.62,8.62,8.62
93.51,8.83,0.25,8.83,0.25,-0.25,-0.27,-0.32,8.58,8.58,8.58
94.44,8.83,0.29,8.83,0.29,-0.28,-0.28,-0.34,8.54,8.54,8.54
95.39,8.82,0.32,8.82,0.32,-0.32,-0.28,-0.36,8.50,8.50,8.50
96.34,8.81,0.35,8.81,0.35,-0.35,-0.29,-0.38,8.46,8.46,8.46
97.30,8.80,0.38,8.80,0.38,-0.38,-0.30,-0.40,8.42,8.42,8.42
98.28,8.78,0.40,8.78,0.40,-0.41,-0.30,-0.43,8.37,8.37,8.38
99.26,8.76,0.43,8.76,0.43,-0.43,-0.31,-0.45,8.33,8.33,8.33
100.25,8.74,0.45,8.74,0.45,-0.45,-0.32,-0.47,8.28,8.28,8.28
101.25,8.71,0.47,8.71,0.47,-0.48,-0.33,-0.49,8.23,8.23,8.24
102.27,8.68,0.50,8.68,0.50,-0.50,-0.33,-0.51,8.19,8.19,8.19
103.29,8.65,0.52,8.65,0.52,-0.52,-0.34,-0.53,8.14,8.14,8.14
104.32,8.62,0.53,8.62,0.53,-0.54,-0.35,-0.55,8.09,8.09,8.09
105.37,8.59,0.55,8.59,0.55,-0.55,-0.36,-0.58,8.04,8.04,8.04
106.42,8.56,0.57,8.56,0.57,-0.57,-0.37,-0.60,7.99,7.99,7.99
107.48,8.52,0.58,8.52,0.58,-0.58,-0.38,-0.62,7.94,7.94,7.94
108.56,8.49,0.60,8.49,0.60,-0.59,-0.38,-0.64,7.89,7.89,7.89
109.64,8.45,0.60,8.45,0.60,-0.60,-0.39,-0.66,7.85,7.85,7.85
110.74,8.41,0.61,8.41,0.61,-0.61,-0.40,-0.68,7.80,7.80,7.80
111.85,8.37,0.62,8.37,0.62,-0.62,-0.41,-0.70,7.75,7.75,7.75
112.97,8.33,0.62,8.33,0.63,-0.63,-0.42,-0.72,7.70,7.70,7.70
114.10,8.29,0.63,8.29,0.63,-0.64,-0.43,-0.74,7.65,7.65,7.65
115.24,8.24,0.64,8.24,0.64,-0.65,-0.44,-0.75,7.60,7.60,7.60
116.39,8.20,0.65,8.20,0.65,-0.66,-0.45,-0.77,7.54,7.54,7.55
117.55,8.15,0.67,8.15,0.67,-0.67,-0.47,-0.79,7.49,7.49,7.49
118.73,8.11,0.68,8.11,0.68,-0.67,-0.48,-0.80,7.43,7.43,7.43
119.92,8.06,0.69,8.06,0.69,-0.68,-0.49,-0.82,7.38,7.38,7.37
121.12,8.01,0.69,8.01,0.69,-0.69,-0.50,-0.83,7.32,7.32,7.32
122.33,7.96,0.69,7.96,0.70,-0.69,-0.51,-0.85,7.27,7.27,7.27
123.55,7.91,0.70,7.91,0.70,-0.70,-0.53,-0.86,7.22,7.22,7.22
124.79,7.86,0.70,7.86,0.70,-0.70,-0.54,-0.87,7.16,7.16,7.17
126.03,7.82,0.70,7.82,0.70,-0.70,-0.55,-0.89,7.12,7.12,7.11
127.29,7.77,0.71,7.77,0.71,-0.71,-0.56,-0.90,7.07,7.07,7.07
128.57,7.73,0.71,7.73,0.71,-0.71,-0.58,-0.91,7.02,7.02,7.02
129.85,7.69,0.72,7.69,0.72,-0.72,-0.59,-0.92,6.97,6.97,6.97
131.15,7.65,0.73,7.65,0.73,-0.74,-0.61,-0.92,6.91,6.91,6.92
132.46,7.62,0.75,7.62,0.75,-0.76,-0.62,-0.93,6.86,6.86,6.87
133.79,7.59,0.78,7.59,0.78,-0.79,-0.64,-0.94,6.81,6.81,6.82
135.12,7.57,0.81,7.57,0.81,-0.82,-0.65,-0.95,6.75,6.75,6.76
136.48,7.55,0.85,7.55,0.85,-0.85,-0.67,-0.95,6.70,6.70,6.70
137.84,7.53,0.89,7.53,0.89,-0.89,-0.69,-0.96,6.64,6.64,6.64
139.22,7.52,0.94,7.52,0.94,-0.94,-0.70,-0.96,6.58,6.58,6.58
140.61,7.50,0.98,7.50,0.98,-0.98,-0.72,-0.97,6.52,6.52,6.52
142.02,7.49,1.02,7.49,1.02,-1.02,-0.74,-0.98,6.47,6.47,6.46
143.44,7.47,1.06,7.47,1.06,-1.06,-0.76,-0.98,6.41,6.41,6.40
144.87,7.45,1.10,7.45,1.10,-1.09,-0.78,-0.99,6.35,6.35,6.35
146.32,7.42,1.13,7.42,1.13,-1.13,-0.80,-0.99,6.29,6.29,6.29
147.78,7.39,1.15,7.39,1.15,-1.16,-0.81,-1.00,6.24,6.24,6.24
149.26,7.36,1.18,7.36,1.18,-1.18,-0.83,-1.01,6.18,6.18,6.18
150.75,7.33,1.20,7.33,1.20,-1.20,-0.85,-1.01,6.13,6.13,6.13
152.26,7.30,1.22,7.30,1.22,-1.22,-0.88,-1.02,6.08,6.08,6.08
153.78,7.26,1.23,7.26,1.23,-1.23,-0.90,-1.03,6.03,6.03,6.03
155.32,7.22,1.24,7.22,1.24,-1.24,-0.92,-1.04,5.98,5.98,5.98
156.88,7.18,1.25,7.18,1.25,-1.25,-0.94,-1.04,5.93,5.93,5.93
158.44,7.14,1.25,7.14,1.25,-1.25,-0.96,-1.05,5.89,5.89,5.89
160.03,7.10,1.25,7.10,1.25,-1.25,-0.99,-1.06,5.85,5.85,5.85
161.63,7.06,1.25,7.06,1.25,-1.25,-1.01,-1.07,5.81,5.81,5.81
163.24,7.02,1.25,7.02,1.25,-1.24,-1.03,-1.09,5.78,5.78,5.77
164.88,6.97,1.24,6.97,1.24,-1.23,-1.06,-1.10,5.74,5.74,5.73
166.53,6.93,1.23,6.93,1.23,-1.23,-1.08,-1.11,5.71,5.71,5.70
168.19,6.89,1.22,6.89,1.22,-1.23,-1.11,-1.13,5.66,5.66,5.67
169.87,6.84,1.22,6.84,1.22,-1.23,-1.13,-1.14,5.61,5.61,5.63
171.57,6.80,1.22,6.80,1.23,-1.24,-1.16,-1.16,5.55,5.55,5.57
173.29,6.75,1.25,6.75,1.25,-1.27,-1.18,-1.18,5.48,5.48,5.50
175.02,6.70,1.28,6.70,1.28,-1.30,-1.21,-1.19,5.40,5.40,5.42
176.77,6.65,1.33,6.65,1.33,-1.33,-1.24,-1.21,5.32,5.32,5.32
178.54,6.60,1.38,6.60,1.38,-1.37,-1.26,-1.23,5.23,5.23,5.22
180.32,6.55,1.42,6.55,1.42,-1.41,-1.29,-1.26,5.14,5.14,5.12
182.13,6.49,1.46,6.49,1.46,-1.45,-1.32,-1.28,5.05,5.05,5.03
183.95,6.44,1.49,6.44,1.49,-1.48,-1.34,-1.30,4.96,4.96,4.95
185.79,6.39,1.51,6.39,1.51,-1.51,-1.37,-1.33,4.88,4.88,4.87
187.65,6.33,1.53,6.33,1.53,-1.53,-1.40,-1.35,4.80,4.80,4.80
189.52,6.28,1.54,6.28,1.54,-1.55,-1.42,-1.38,4.73,4.73,4.73
191.42,6.22,1.56,6.22,1.56,-1.56,-1.45,-1.40,4.66,4.66,4.67
193.33,6.17,1.57,6.17,1.57,-1.58,-1.47,-1.43,4.59,4.59,4.60
195.27,6.11,1.59,6.11,1.59,-1.59,-1.50,-1.46,4.52,4.52,4.53
197.22,6.06,1.60,6.06,1.60,-1.60,-1.53,-1.49,4.45,4.45,4.46
199.19,6.00,1.61,6.00,1.61,-1.61,-1.55,-1.52,4.39,4.39,4.39
201.18,5.94,1.63,5.94,1.63,-1.63,-1.57,-1.55,4.32,4.32,4.32
203.19,5.89,1.64,5.89,1.64,-1.64,-1.60,-1.58,4.25,4.25,4.25
205.23,5.83,1.65,5.83,1.65,-1.64,-1.62,-1.61,4.19,4.19,4.19
207.28,5.78,1.65,5.78,1.65,-1.65,-1.64,-1.64,4.13,4.13,4.13
209.35,5.72,1.65,5.72,1.65,-1.65,-1.66,-1.67,4.07,4.07,4.07
211.44,5.67,1.65,5.67,1.65,-1.65,-1.68,-1.70,4.01,4.01,4.01
213.56,5.61,1.65,5.61,1.65,-1.65,-1.70,-1.72,3.96,3.96,3.96
215.69,5.55,1.65,5.55,1.65,-1.65,-1.72,-1.75,3.90,3.90,3.90
217.85,5.50,1.65,5.50,1.65,-1.65,-1.74,-1.78,3.85,3.85,3.85
220.03,5.44,1.64,5.44,1.64,-1.64,-1.75,-1.81,3.80,3.80,3.80
222.23,5.39,1.64,5.39,1.64,-1.64,-1.77,-1.83,3.75,3.75,3.75
224.45,5.33,1.64,5.33,1.64,-1.63,-1.78,-1.86,3.69,3.69,3.69
226.70,5.27,1.63,5.27,1.63,-1.63,-1.79,-1.88,3.64,3.64,3.64
228.96,5.22,1.62,5.22,1.62,-1.62,-1.80,-1.90,3.59,3.59,3.59
231.25,5.16,1.62,5.16,1.62,-1.62,-1.80,-1.91,3.54,3.54,3.54
233.57,5.10,1.61,5.10,1.61,-1.61,-1.81,-1.93,3.49,3.49,3.49
235.90,5.04,1.60,5.05,1.60,-1.60,-1.81,-1.94,3.44,3.44,3.44
238.26,4.99,1.60,4.99,1.60,-1.60,-1.81,-1.95,3.39,3.39,3.39
240.64,4.93,1.59,4.93,1.59,-1.59,-1.81,-1.96,3.34,3.34,3.34
243.05,4.87,1.58,4.87,1.59,-1.59,-1.81,-1.97,3.29,3.29,3.29
245.48,4.82,1.58,4.82,1.58,-1.58,-1.81,-1.97,3.23,3.23,3.23
247.93,4.76,1.58,4.76,1.58,-1.58,-1.80,-1.97,3.18,3.18,3.18
250.41,4.70,1.57,4.70,1.57,-1.57,-1.79,-1.96,3.13,3.13,3.13
252.92,4.64,1.57,4.64,1.57,-1.57,-1.78,-1.95,3.08,3.08,3.08
255.45,4.59,1.56,4.59,1.56,-1.56,-1.77,-1.94,3.03,3.03,3.03
258.00,4.53,1.55,4.53,1.55,-1.56,-1.76,-1.93,2.97,2.97,2.98
260.58,4.47,1.55,4.47,1.55,-1.55,-1.74,-1.91,2.92,2.92,2.92
263.19,4.41,1.54,4.41,1.54,-1.55,-1.73,-1.89,2.87,2.87,2.87
265.82,4.36,1.54,4.36,1.54,-1.54,-1.71,-1.87,2.82,2.82,2.82
268.48,4.30,1.53,4.30,1.53,-1.53,-1.69,-1.84,2.77,2.77,2.76
271.16,4.24,1.53,4.24,1.53,-1.53,-1.67,-1.81,2.72,2.72,2.71
273.87,4.18,1.52,4.18,1.52,-1.52,-1.64,-1.78,2.67,2.67,2.66
276.61,4.12,1.51,4.12,1.51,-1.51,-1.62,-1.75,2.62,2.62,2.62
279.38,4.07,1.50,4.07,1.50,-1.50,-1.59,-1.72,2.57,2.57,2.57
282.17,4.01,1.48,4.01,1.48,-1.49,-1.57,-1.68,2.52,2.52,2.53
284.99,3.95,1.47,3.95,1.47,-1.47,-1.54,-1.64,2.48,2.48,2.48
287.84,3.89,1.46,3.89,1.46,-1.46,-1.51,-1.60,2.43,2.43,2.43
290.72,3.83,1.45,3.83,1.45,-1.45,-1.48,-1.56,2.39,2.39,2.39
293.63,3.78,1.43,3.78,1.43,-1.43,-1.45,-1.52,2.35,2.35,2.35
296.57,3.72,1.42,3.72,1.42,-1.42,-1.42,-1.48,2.30,2.30,2.30
299.53,3.66,1.40,3.66,1.40,-1.40,-1.39,-1.43,2.26,2.26,2.26
302.53,3.60,1.38,3.60,1.38,-1.38,-1.36,-1.39,2.22,2.22,2.22
305.55,3.54,1.36,3.54,1.36,-1.36,-1.32,-1.35,2.19,2.18,2.18
308.61,3.49,1.34,3.49,1.34,-1.34,-1.29,-1.30,2.15,2.15,2.15
311.69,3.43,1.32,3.43,1.32,-1.32,-1.26,-1.26,2.11,2.11,2.11
314.81,3.37,1.29,3.37,1.29,-1.29,-1.22,-1.22,2.08,2.08,2.08
317.96,3.31,1.27,3.31,1.27,-1.27,-1.19,-1.17,2.05,2.05,2.05
321.14,3.26,1.24,3.26,1.24,-1.24,-1.15,-1.13,2.02,2.02,2.02
324.35,3.20,1.21,3.20,1.21,-1.21,-1.12,-1.08,1.99,1.99,1.99
327.59,3.14,1.18,3.14,1.18,-1.18,-1.08,-1.04,1.96,1.96,1.96
330.87,3.08,1.15,3.08,1.15,-1.15,-1.05,-1.00,1.93,1.93,1.93
334.18,3.03,1.12,3.03,1.12,-1.13,-1.01,-0.96,1.90,1.90,1.90
337.52,2.97,1.09,2.97,1.09,-1.10,-0.98,-0.92,1.87,1.87,1.87
340.90,2.91,1.07,2.91,1.07,-1.07,-0.94,-0.88,1.84,1.84,1.85
344.30,2.85,1.04,2.85,1.04,-1.04,-0.91,-0.84,1.82,1.82,1.82
347.75,2.80,1.01,2.80,1.01,-1.01,-0.88,-0.80,1.79,1.79,1.79
351.23,2.74,0.98,2.74,0.98,-0.98,-0.84,-0.76,1.76,1.76,1.76
354.74,2.68,0.95,2.68,0.95,-0.95,-0.81,-0.72,1.73,1.73,1.73
358.28,2.63,0.92,2.63,0.92,-0.92,-0.77,-0.68,1.71,1.71,1.71
361.87,2.57,0.89,2.57,0.89,-0.89,-0.74,-0.64,1.68,1.68,1.68
365.49,2.51,0.86,2.51,0.86,-0.86,-0.71,-0.61,1.65,1.65,1.65
369.14,2.46,0.83,2.46,0.83,-0.83,-0.67,-0.57,1.63,1.63,1.63
372.83,2.40,0.80,2.40,0.80,-0.80,-0.64,-0.53,1.60,1.60,1.60
376.56,2.34,0.76,2.34,0.76,-0.76,-0.60,-0.50,1.58,1.58,1.58
380.33,2.29,0.73,2.29,0.73,-0.73,-0.57,-0.47,1.56,1.56,1.56
384.13,2.23,0.70,2.23,0.70,-0.70,-0.54,-0.43,1.53,1.53,1.53
387.97,2.18,0.67,2.18,0.67,-0.67,-0.51,-0.40,1.51,1.51,1.51
391.85,2.12,0.63,2.12,0.63,-0.63,-0.47,-0.37,1.49,1.49,1.49
395.77,2.07,0.60,2.07,0.60,-0.60,-0.44,-0.33,1.47,1.47,1.47
399.73,2.01,0.56,2.01,0.56,-0.56,-0.41,-0.30,1.45,1.45,1.45
403.72,1.96,0.53,1.96,0.53,-0.53,-0.37,-0.27,1.43,1.43,1.43
407.76,1.90,0.49,1.90,0.49,-0.49,-0.34,-0.24,1.41,1.41,1.41
411.84,1.85,0.46,1.85,0.46,-0.46,-0.31,-0.21,1.39,1.39,1.39
415.96,1.79,0.42,1.79,0.42,-0.42,-0.28,-0.18,1.37,1.37,1.37
420.12,1.74,0.38,1.74,0.38,-0.38,-0.25,-0.15,1.36,1.36,1.35
424.32,1.69,0.35,1.69,0.35,-0.35,-0.21,-0.12,1.34,1.34,1.34
428.56,1.63,0.31,1.63,0.31,-0.31,-0.18,-0.09,1.33,1.33,1.32
432.85,1.58,0.27,1.58,0.27,-0.27,-0.15,-0.06,1.31,1.31,1.31
437.18,1.52,0.22,1.52,0.22,-0.22,-0.12,-0.03,1.30,1.30,1.30
441.55,1.47,0.18,1.47,0.18,-0.18,-0.08,0.00,1.29,1.29,1.29
445.96,1.42,0.14,1.42,0.14,-0.14,-0.05,0.03,1.28,1.28,1.28
450.42,1.36,0.09,1.36,0.09,-0.09,-0.02,0.06,1.27,1.27,1.27
454.93,1.31,0.05,1.31,0.05,-0.05,0.02,0.09,1.26,1.26,1.26
459.48,1.26,0.00,1.26,0.00,-0.00,0.05,0.12,1.26,1.26,1.26
464.07,1.21,-0.04,1.21,-0.04,0.04,0.08,0.15,1.25,1.25,1.25
468.71,1.16,-0.09,1.16,-0.09,0.09,0.12,0.17,1.24,1.24,1.24
473.40,1.11,-0.13,1.11,-0.13,0.13,0.15,0.20,1.24,1.24,1.24
478.13,1.06,-0.18,1.06,-0.18,0.18,0.19,0.23,1.23,1.23,1.23
482.91,1.01,-0.22,1.01,-0.22,0.22,0.22,0.26,1.23,1.23,1.23
487.74,0.96,-0.27,0.96,-0.27,0.27,0.26,0.29,1.22,1.22,1.22
492.62,0.91,-0.31,0.91,-0.31,0.31,0.30,0.32,1.22,1.22,1.22
497.55,0.86,-0.36,0.86,-0.36,0.36,0.33,0.35,1.22,1.22,1.22
502.52,0.81,-0.41,0.81,-0.41,0.41,0.37,0.38,1.22,1.22,1.22
507.55,0.76,-0.45,0.76,-0.45,0.45,0.41,0.40,1.21,1.21,1.21
512.62,0.71,-0.50,0.71,-0.50,0.50,0.45,0.43,1.21,1.21,1.21
517.75,0.66,-0.55,0.66,-0.55,0.55,0.48,0.46,1.21,1.21,1.21
