frequency,raw,error,smoothed,error_smoothed,equalization,parametric_eq,fixed_band_eq,equalized_raw,equalized_smoothed,target
20.00,11.99,-0.02,11.99,-0.04,-0.24,0.22,0.64,11.75,11.75,12.00
20.20,12.00,0.17,12.00,0.19,-0.29,0.22,0.66,11.70,11.70,11.83
20.40,12.00,0.34,12.00,0.37,-0.32,0.23,0.67,11.68,11.68,11.66
20.61,12.00,0.50,11.99,0.48,-0.33,0.24,0.69,11.66,11.66,11.50
20.81,11.98,0.57,11.98,0.56,-0.31,0.25,0.72,11.66,11.66,11.41
21.02,11.95,0.55,11.95,0.55,-0.27,0.26,0.74,11.68,11.68,11.40
21.23,11.92,0.44,11.92,0.42,-0.21,0.26,0.76,11.71,11.71,11.47
21.44,11.88,0.22,11.88,0.21,-0.13,0.27,0.78,11.76,11.76,11.66
21.66,11.85,-0.07,11.85,-0.06,0.09,0.28,0.81,11.94,11.94,11.92
21.87,11.82,-0.35,11.82,-0.34,0.30,0.29,0.83,12.12,12.12,12.17
22.09,11.79,-0.59,11.79,-0.59,0.49,0.30,0.85,12.28,12.28,12.38
22.31,11.77,-0.77,11.77,-0.76,0.63,0.31,0.88,12.40,12.40,12.54
22.54,11.76,-0.84,11.76,-0.84,0.69,0.33,0.91,12.45,12.45,12.60
22.76,11.75,-0.81,11.75,-0.81,0.66,0.34,0.93,12.41,12.41,12.57
22.99,11.75,-0.68,11.75,-0.67,0.56,0.35,0.96,12.31,12.31,12.43
23.22,11.74,-0.45,11.74,-0.45,0.41,0.36,0.99,12.15,12.15,12.19
23.45,11.73,-0.19,11.73,-0.20,0.23,0.38,1.02,11.97,11.97,11.93
23.69,11.72,0.04,11.72,0.04,0.07,0.39,1.05,11.80,11.80,11.69
23.92,11.71,0.22,11.71,0.20,-0.05,0.41,1.08,11.66,11.66,11.49
24.16,11.69,0.29,11.69,0.27,-0.12,0.42,1.11,11.57,11.57,11.40
24.40,11.67,0.24,11.67,0.24,-0.12,0.44,1.14,11.55,11.55,11.42
24.65,11.64,0.12,11.64,0.12,-0.07,0.46,1.17,11.57,11.57,11.52
24.89,11.61,-0.06,11.61,-0.06,0.03,0.48,1.20,11.64,11.64,11.67
25.14,11.58,-0.23,11.58,-0.23,0.15,0.50,1.23,11.72,11.72,11.81
25.39,11.54,-0.38,11.54,-0.37,0.27,0.52,1.26,11.81,11.81,11.93
25.65,11.50,-0.46,11.50,-0.46,0.37,0.54,1.29,11.88,11.88,11.97
25.91,11.46,-0.51,11.46,-0.51,0.45,0.56,1.33,11.91,11.91,11.97
26.16,11.42,-0.52,11.42,-0.52,0.50,0.59,1.36,11.92,11.92,11.94
26.43,11.37,-0.51,11.37,-0.52,0.54,0.61,1.39,11.90,11.90,11.88
26.69,11.31,-0.52,11.31,-0.52,0.56,0.64,1.42,11.87,11.87,11.83
26.96,11.26,-0.53,11.26,-0.53,0.57,0.67,1.45,11.84,11.84,11.79
27.23,11.22,-0.57,11.22,-0.57,0.59,0.70,1.48,11.81,11.81,11.78
27.50,11.18,-0.62,11.18,-0.62,0.63,0.73,1.51,11.81,11.81,11.80
27.77,11.15,-0.68,11.15,-0.68,0.67,0.77,1.54,11.82,11.82,11.83
28.05,11.12,-0.75,11.12,-0.75,0.73,0.80,1.56,11.85,11.85,11.87
28.33,11.09,-0.81,11.09,-0.81,0.80,0.84,1.59,11.89,11.89,11.90
28.62,11.05,-0.88,11.05,-0.88,0.89,0.88,1.61,11.94,11.94,11.93
28.90,11.01,-0.95,11.01,-0.95,0.98,0.93,1.63,11.99,11.99,11.96
29.19,10.96,-1.05,10.95,-1.05,1.08,0.97,1.65,12.04,12.04,12.00
29.48,10.90,-1.16,10.90,-1.16,1.19,1.02,1.67,12.09,12.09,12.05
29.78,10.85,-1.28,10.85,-1.28,1.29,1.07,1.69,12.14,12.14,12.13
30.08,10.80,-1.40,10.81,-1.40,1.38,1.13,1.70,12.18,12.19,12.21
30.38,10.77,-1.51,10.78,-1.51,1.46,1.18,1.71,12.23,12.24,12.29
30.68,10.76,-1.58,10.76,-1.58,1.52,1.25,1.72,12.28,12.28,12.34
30.99,10.75,-1.61,10.75,-1.61,1.56,1.31,1.73,12.31,12.31,12.36
31.30,10.73,-1.61,10.73,-1.61,1.59,1.38,1.73,12.32,12.32,12.35
31.61,10.70,-1.60,10.69,-1.60,1.62,1.45,1.74,12.31,12.31,12.30
31.93,10.64,-1.59,10.64,-1.60,1.64,1.53,1.73,12.28,12.28,12.23
32.24,10.56,-1.61,10.56,-1.61,1.67,1.61,1.73,12.23,12.23,12.18
32.57,10.48,-1.65,10.48,-1.66,1.70,1.69,1.73,12.19,12.19,12.14
32.89,10.41,-1.74,10.41,-1.74,1.75,1.78,1.72,12.16,12.17,12.15
33.22,10.36,-1.83,10.36,-1.83,1.82,1.87,1.71,12.18,12.18,12.19
33.55,10.32,-1.93,10.33,-1.92,1.90,1.96,1.70,12.22,12.23,12.25
33.89,10.31,-2.01,10.31,-2.01,1.99,2.06,1.69,12.30,12.30,12.33
34.23,10.31,-2.09,10.31,-2.09,2.09,2.16,1.67,12.40,12.39,12.40
34.57,10.30,-2.17,10.30,-2.17,2.19,2.26,1.65,12.49,12.49,12.47
34.92,10.28,-2.26,10.28,-2.27,2.29,2.36,1.64,12.57,12.57,12.54
35.27,10.25,-2.37,10.25,-2.37,2.39,2.45,1.62,12.64,12.64,12.63
35.62,10.23,-2.49,10.23,-2.49,2.48,2.55,1.60,12.71,12.72,12.72
35.97,10.22,-2.60,10.22,-2.60,2.57,2.64,1.58,12.79,12.80,12.82
36.33,10.22,-2.69,10.22,-2.69,2.67,2.73,1.55,12.89,12.89,12.91
36.70,10.22,-2.76,10.23,-2.76,2.75,2.80,1.53,12.98,12.98,12.99
37.06,10.22,-2.82,10.22,-2.82,2.84,2.87,1.51,13.06,13.05,13.05
37.43,10.19,-2.88,10.19,-2.89,2.91,2.93,1.49,13.11,13.10,13.07
37.81,10.13,-2.95,10.13,-2.95,2.98,2.97,1.46,13.11,13.11,13.08
38.19,10.07,-3.02,10.07,-3.02,3.03,3.00,1.44,13.10,13.10,13.09
38.57,10.00,-3.09,10.00,-3.08,3.07,3.02,1.42,13.07,13.07,13.08
38.95,9.94,-3.12,9.94,-3.12,3.10,3.01,1.39,13.04,13.04,13.06
39.34,9.89,-3.13,9.89,-3.12,3.10,3.00,1.37,12.99,12.99,13.02
39.74,9.85,-3.10,9.85,-3.10,3.07,2.96,1.35,12.92,12.92,12.95
40.14,9.81,-3.04,9.81,-3.04,3.02,2.92,1.33,12.83,12.83,12.85
40.54,9.77,-2.95,9.77,-2.95,2.94,2.86,1.31,12.71,12.71,12.72
40.94,9.73,-2.84,9.73,-2.84,2.84,2.79,1.29,12.57,12.57,12.57
41.35,9.69,-2.72,9.69,-2.72,2.73,2.71,1.27,12.42,12.42,12.41
41.76,9.66,-2.58,9.67,-2.58,2.60,2.63,1.25,12.27,12.27,12.25
42.18,9.65,-2.45,9.65,-2.45,2.47,2.53,1.23,12.12,12.12,12.10
42.60,9.64,-2.32,9.64,-2.32,2.33,2.44,1.22,11.96,11.96,11.95
43.03,9.62,-2.20,9.62,-2.20,2.19,2.34,1.20,11.81,11.81,11.82
43.46,9.61,-2.08,9.61,-2.07,2.05,2.24,1.19,11.66,11.66,11.68
43.90,9.59,-1.94,9.59,-1.94,1.92,2.14,1.17,11.51,11.51,11.54
44.33,9.58,-1.80,9.58,-1.80,1.80,2.04,1.16,11.38,11.38,11.38
44.78,9.56,-1.67,9.55,-1.67,1.70,1.94,1.15,11.26,11.26,11.22
45.23,9.53,-1.56,9.52,-1.57,1.61,1.85,1.14,11.14,11.14,11.08
45.68,9.49,-1.50,9.49,-1.50,1.54,1.76,1.13,11.03,11.03,10.98
46.13,9.45,-1.46,9.45,-1.46,1.47,1.67,1.12,10.92,10.92,10.91
46.60,9.41,-1.44,9.41,-1.43,1.42,1.59,1.11,10.82,10.83,10.84
47.06,9.37,-1.40,9.37,-1.40,1.37,1.51,1.10,10.74,10.74,10.77
47.53,9.34,-1.35,9.34,-1.35,1.31,1.43,1.09,10.65,10.65,10.69
48.01,9.30,-1.29,9.30,-1.29,1.25,1.36,1.09,10.55,10.55,10.59
48.49,9.26,-1.22,9.26,-1.22,1.19,1.29,1.08,10.45,10.45,10.48
48.97,9.20,-1.14,9.20,-1.13,1.13,1.22,1.08,10.33,10.33,10.34
49.46,9.14,-1.05,9.14,-1.05,1.07,1.16,1.07,10.21,10.21,10.19
49.96,9.07,-0.97,9.06,-0.98,1.02,1.10,1.07,10.09,10.09,10.03
50.46,8.97,-0.94,8.97,-0.94,0.99,1.05,1.07,9.96,9.96,9.91
50.96,8.88,-0.93,8.88,-0.93,0.97,1.00,1.06,9.85,9.85,9.81
51.47,8.78,-0.95,8.78,-0.95,0.96,0.95,1.06,9.74,9.74,9.73
51.99,8.69,-0.97,8.70,-0.97,0.95,0.90,1.06,9.65,9.65,9.66
52.51,8.63,-0.98,8.63,-0.99,0.94,0.86,1.06,9.57,9.57,9.61
53.03,8.57,-0.99,8.58,-0.99,0.92,0.82,1.06,9.50,9.50,9.57
53.56,8.54,-0.96,8.54,-0.96,0.90,0.78,1.06,9.44,9.44,9.51
54.10,8.52,-0.90,8.52,-0.89,0.87,0.74,1.06,9.39,9.39,9.42
54.64,8.50,-0.80,8.50,-0.80,0.84,0.71,1.06,9.34,9.34,9.30
55.18,8.48,-0.70,8.48,-0.73,0.80,0.67,1.06,9.28,9.28,9.19
55.74,8.46,-0.69,8.46,-0.70,0.75,0.64,1.06,9.21,9.21,9.15
56.29,8.43,-0.71,8.43,-0.71,0.69,0.61,1.05,9.13,9.13,9.14
56.86,8.40,-0.74,8.40,-0.71,0.65,0.58,1.05,9.05,9.05,9.14
57.42,8.36,-0.69,8.36,-0.68,0.62,0.56,1.05,8.97,8.98,9.05
58.00,8.31,-0.62,8.30,-0.62,0.61,0.53,1.05,8.92,8.91,8.93
58.58,8.23,-0.55,8.23,-0.55,0.62,0.51,1.04,8.85,8.85,8.78
59.16,8.14,-0.51,8.14,-0.54,0.64,0.48,1.04,8.78,8.78,8.65
59.76,8.03,-0.58,8.03,-0.59,0.66,0.46,1.04,8.69,8.69,8.61
60.35,7.91,-0.68,7.91,-0.68,0.68,0.44,1.03,8.59,8.59,8.59
60.96,7.77,-0.79,7.76,-0.78,0.71,0.42,1.02,8.48,8.47,8.56
61.57,7.62,-0.84,7.61,-0.83,0.74,0.40,1.01,8.36,8.36,8.46
62.18,7.47,-0.83,7.47,-0.83,0.78,0.39,1.00,8.25,8.25,8.29
62.80,7.33,-0.79,7.33,-0.80,0.81,0.37,0.99,8.14,8.14,8.12
63.43,7.23,-0.78,7.23,-0.78,0.82,0.35,0.98,8.05,8.05,8.01
64.07,7.15,-0.79,7.17,-0.79,0.82,0.34,0.97,7.98,7.99,7.94
64.71,7.14,-0.81,7.14,-0.80,0.81,0.32,0.96,7.95,7.95,7.95
65.35,7.15,-0.81,7.15,-0.80,0.79,0.31,0.94,7.93,7.93,7.95
66.01,7.17,-0.79,7.16,-0.78,0.77,0.30,0.93,7.93,7.93,7.95
66.67,7.16,-0.75,7.16,-0.75,0.74,0.28,0.91,7.91,7.90,7.91
67.33,7.13,-0.72,7.13,-0.72,0.72,0.27,0.89,7.85,7.84,7.85
68.01,7.07,-0.69,7.07,-0.69,0.68,0.26,0.88,7.75,7.74,7.76
68.69,6.98,-0.65,6.98,-0.65,0.64,0.25,0.86,7.62,7.62,7.63
69.37,6.89,-0.60,6.89,-0.60,0.60,0.23,0.84,7.49,7.49,7.49
70.07,6.81,-0.55,6.82,-0.55,0.57,0.22,0.82,7.38,7.39,7.36
70.77,6.77,-0.50,6.77,-0.51,0.54,0.21,0.80,7.31,7.31,7.27
71.48,6.74,-0.49,6.74,-0.49,0.53,0.20,0.78,7.27,7.27,7.23
72.19,6.73,-0.49,6.73,-0.49,0.51,0.19,0.75,7.24,7.24,7.22
72.91,6.72,-0.50,6.72,-0.50,0.49,0.18,0.73,7.21,7.21,7.22
73.64,6.70,-0.50,6.70,-0.50,0.46,0.17,0.71,7.16,7.16,7.20
74.38,6.67,-0.49,6.67,-0.48,0.43,0.17,0.69,7.10,7.10,7.16
75.12,6.64,-0.45,6.64,-0.44,0.40,0.16,0.66,7.03,7.03,7.08
75.87,6.60,-0.37,6.60,-0.37,0.35,0.15,0.64,6.95,6.95,6.96
76.63,6.56,-0.28,6.56,-0.28,0.30,0.14,0.62,6.86,6.86,6.84
77.40,6.52,-0.20,6.52,-0.21,0.25,0.13,0.59,6.77,6.77,6.72
78.17,6.47,-0.16,6.47,-0.16,0.20,0.13,0.57,6.67,6.67,6.63
78.95,6.42,-0.13,6.42,-0.14,0.15,0.12,0.55,6.58,6.58,6.56
79.74,6.37,-0.12,6.37,-0.12,0.11,0.11,0.53,6.49,6.49,6.50
80.54,6.32,-0.11,6.32,-0.10,0.08,0.10,0.50,6.40,6.40,6.43
81.35,6.26,-0.09,6.26,-0.09,0.05,0.10,0.48,6.31,6.31,6.35
82.16,6.20,-0.06,6.20,-0.06,0.04,0.09,0.46,6.24,6.24,6.27
82.98,6.14,-0.05,6.14,-0.04,0.04,0.08,0.43,6.18,6.18,6.19
83.81,6.07,-0.03,6.07,-0.03,0.06,0.08,0.41,6.14,6.14,6.11
84.65,6.00,-0.04,6.00,-0.04,0.11,0.07,0.39,6.11,6.11,6.04
85.50,5.93,-0.09,5.93,-0.09,0.18,0.06,0.37,6.11,6.11,6.02
86.35,5.86,-0.17,5.86,-0.19,0.26,0.06,0.35,6.12,6.12,6.03
87.22,5.79,-0.32,5.79,-0.32,0.35,0.05,0.33,6.13,6.13,6.11
88.09,5.71,-0.48,5.71,-0.47,0.42,0.05,0.30,6.13,6.13,6.19
88.97,5.64,-0.57,5.64,-0.57,0.46,0.04,0.28,6.10,6.10,6.21
89.86,5.57,-0.62,5.57,-0.60,0.48,0.03,0.26,6.05,6.05,6.19
90.76,5.50,-0.56,5.50,-0.56,0.46,0.03,0.24,5.97,5.97,6.07
91.66,5.44,-0.45,5.44,-0.45,0.42,0.02,0.22,5.86,5.86,5.89
92.58,5.38,-0.31,5.38,-0.31,0.35,0.02,0.20,5.73,5.73,5.69
93.51,5.32,-0.18,5.32,-0.19,0.28,0.01,0.18,5.60,5.60,5.50
94.44,5.26,-0.11,5.26,-0.11,0.20,0.00,0.16,5.46,5.46,5.36
95.39,5.20,-0.07,5.20,-0.08,0.14,-0.00,0.14,5.34,5.34,5.27
96.34,5.14,-0.08,5.14,-0.08,0.10,-0.01,0.12,5.23,5.23,5.22
97.30,5.09,-0.11,5.09,-0.10,0.07,-0.01,0.10,5.16,5.16,5.20
98.28,5.05,-0.11,5.06,-0.11,0.06,-0.02,0.08,5.12,5.12,5.17
99.26,5.03,-0.10,5.03,-0.10,0.07,-0.02,0.07,5.09,5.10,5.13
100.25,5.00,-0.08,4.99,-0.08,0.08,-0.03,0.05,5.07,5.07,5.08
101.25,4.95,-0.06,4.94,-0.07,0.09,-0.04,0.03,5.03,5.03,5.01
102.27,4.87,-0.07,4.86,-0.07,0.10,-0.04,0.01,4.96,4.96,4.94
103.29,4.77,-0.09,4.77,-0.09,0.10,-0.05,-0.01,4.87,4.87,4.86
104.32,4.66,-0.11,4.67,-0.11,0.11,-0.05,-0.02,4.77,4.78,4.77
105.37,4.57,-0.13,4.57,-0.13,0.12,-0.06,-0.04,4.69,4.69,4.70
106.42,4.48,-0.14,4.48,-0.14,0.13,-0.06,-0.06,4.61,4.61,4.62
107.48,4.40,-0.15,4.41,-0.15,0.14,-0.07,-0.08,4.54,4.54,4.55
108.56,4.34,-0.14,4.34,-0.14,0.14,-0.08,-0.09,4.48,4.48,4.49
109.64,4.28,-0.13,4.28,-0.13,0.13,-0.08,-0.11,4.42,4.42,4.42
110.74,4.23,-0.11,4.23,-0.11,0.12,-0.09,-0.12,4.35,4.34,4.34
111.85,4.17,-0.09,4.17,-0.09,0.09,-0.09,-0.14,4.26,4.26,4.26
112.97,4.12,-0.06,4.12,-0.06,0.05,-0.10,-0.15,4.17,4.17,4.18
114.10,4.07,-0.02,4.07,-0.02,0.00,-0.11,-0.17,4.07,4.07,4.10
115.24,4.03,0.03,4.03,0.03,-0.06,-0.11,-0.18,3.97,3.98,4.00
116.39,4.01,0.10,4.00,0.10,-0.12,-0.12,-0.20,3.88,3.88,3.90
117.55,3.98,0.18,3.99,0.18,-0.19,-0.13,-0.21,3.80,3.80,3.81
118.73,3.98,0.25,3.98,0.25,-0.24,-0.13,-0.22,3.74,3.74,3.73
119.92,3.99,0.32,3.99,0.32,-0.29,-0.14,-0.23,3.70,3.70,3.67
121.12,3.99,0.37,3.99,0.36,-0.31,-0.15,-0.24,3.68,3.68,3.62
122.33,4.00,0.38,4.00,0.38,-0.33,-0.15,-0.25,3.67,3.67,3.61
123.55,3.99,0.36,3.99,0.36,-0.33,-0.16,-0.27,3.66,3.66,3.63
124.79,3.98,0.32,3.98,0.32,-0.33,-0.17,-0.27,3.65,3.65,3.66
126.03,3.95,0.28,3.95,0.28,-0.32,-0.18,-0.28,3.63,3.63,3.67
127.29,3.89,0.26,3.89,0.27,-0.31,-0.18,-0.29,3.58,3.58,3.64
128.57,3.82,0.27,3.82,0.27,-0.31,-0.19,-0.30,3.52,3.51,3.55
129.85,3.74,0.30,3.74,0.30,-0.31,-0.20,-0.31,3.43,3.43,3.44
131.15,3.66,0.34,3.67,0.33,-0.33,-0.21,-0.32,3.34,3.34,3.33
132.46,3.59,0.36,3.60,0.36,-0.35,-0.22,-0.32,3.25,3.25,3.23
133.79,3.53,0.38,3.53,0.38,-0.37,-0.22,-0.33,3.17,3.17,3.16
135.12,3.48,0.40,3.48,0.40,-0.38,-0.23,-0.34,3.10,3.10,3.09
136.48,3.43,0.41,3.43,0.41,-0.39,-0.24,-0.34,3.04,3.04,3.02
137.84,3.39,0.42,3.38,0.41,-0.40,-0.25,-0.35,2.99,2.99,2.97
139.22,3.33,0.41,3.33,0.41,-0.40,-0.26,-0.35,2.93,2.93,2.93
140.61,3.28,0.39,3.28,0.40,-0.41,-0.27,-0.36,2.87,2.87,2.88
142.02,3.22,0.39,3.22,0.39,-0.42,-0.28,-0.36,2.80,2.80,2.83
143.44,3.16,0.40,3.16,0.40,-0.43,-0.29,-0.37,2.73,2.72,2.76
144.87,3.10,0.43,3.10,0.43,-0.45,-0.30,-0.37,2.65,2.65,2.67
146.32,3.04,0.46,3.04,0.46,-0.46,-0.31,-0.38,2.58,2.58,2.58
147.78,2.98,0.49,2.98,0.49,-0.46,-0.32,-0.38,2.52,2.52,2.49
149.26,2.93,0.50,2.93,0.50,-0.46,-0.33,-0.39,2.47,2.47,2.43
150.75,2.88,0.49,2.88,0.49,-0.45,-0.34,-0.39,2.43,2.43,2.38
152.26,2.82,0.46,2.82,0.46,-0.43,-0.35,-0.40,2.39,2.39,2.36
153.78,2.76,0.41,2.76,0.41,-0.41,-0.36,-0.41,2.36,2.36,2.36
155.32,2.71,0.36,2.71,0.36,-0.38,-0.37,-0.41,2.33,2.33,2.35
156.88,2.66,0.33,2.66,0.33,-0.36,-0.39,-0.42,2.29,2.30,2.33
158.44,2.61,0.32,2.61,0.32,-0.36,-0.40,-0.42,2.26,2.26,2.29
160.03,2.56,0.33,2.56,0.33,-0.36,-0.41,-0.43,2.21,2.21,2.24
161.63,2.52,0.37,2.52,0.37,-0.38,-0.42,-0.44,2.14,2.14,2.15
163.24,2.47,0.41,2.47,0.41,-0.41,-0.43,-0.45,2.06,2.06,2.06
164.88,2.42,0.45,2.42,0.45,-0.44,-0.45,-0.45,1.98,1.98,1.97
166.53,2.37,0.49,2.37,0.49,-0.48,-0.46,-0.46,1.89,1.89,1.88
168.19,2.32,0.53,2.32,0.53,-0.51,-0.47,-0.47,1.81,1.81,1.79
169.87,2.27,0.56,2.27,0.56,-0.54,-0.48,-0.48,1.74,1.74,1.72
171.57,2.23,0.57,2.23,0.57,-0.55,-0.50,-0.49,1.68,1.68,1.66
173.29,2.19,0.57,2.19,0.57,-0.56,-0.51,-0.50,1.62,1.62,1.61
175.02,2.14,0.57,2.14,0.57,-0.56,-0.52,-0.51,1.58,1.58,1.57
176.77,2.10,0.56,2.10,0.56,-0.56,-0.53,-0.52,1.53,1.53,1.54
178.54,2.05,0.55,2.05,0.55,-0.57,-0.55,-0.53,1.48,1.48,1.50
180.32,2.00,0.55,2.00,0.56,-0.57,-0.56,-0.54,1.42,1.42,1.44
182.13,1.95,0.57,1.95,0.57,-0.59,-0.57,-0.56,1.36,1.36,1.38
183.95,1.89,0.59,1.89,0.59,-0.61,-0.59,-0.57,1.29,1.29,1.30
185.79,1.84,0.62,1.84,0.63,-0.63,-0.60,-0.58,1.21,1.21,1.22
187.65,1.79,0.66,1.79,0.66,-0.66,-0.61,-0.60,1.13,1.13,1.13
189.52,1.75,0.70,1.75,0.70,-0.68,-0.62,-0.61,1.06,1.06,1.05
191.42,1.70,0.73,1.70,0.73,-0.70,-0.63,-0.62,1.00,1.00,0.97
193.33,1.66,0.74,1.66,0.74,-0.72,-0.64,-0.64,0.94,0.94,0.92
195.27,1.62,0.74,1.62,0.74,-0.73,-0.65,-0.65,0.88,0.88,0.88
197.22,1.57,0.73,1.57,0.73,-0.74,-0.66,-0.67,0.83,0.83,0.84
199.19,1.52,0.73,1.52,0.73,-0.74,-0.67,-0.68,0.77,0.77,0.79
201.18,1.46,0.73,1.46,0.73,-0.75,-0.68,-0.70,0.72,0.72,0.73
203.19,1.41,0.74,1.41,0.74,-0.75,-0.69,-0.71,0.67,0.67,0.67
205.23,1.37,0.75,1.37,0.75,-0.75,-0.70,-0.73,0.62,0.62,0.62
207.28,1.33,0.76,1.33,0.75,-0.75,-0.70,-0.74,0.58,0.58,0.57
209.35,1.29,0.75,1.29,0.75,-0.75,-0.71,-0.76,0.53,0.53,0.53
211.44,1.25,0.75,1.25,0.75,-0.76,-0.71,-0.77,0.49,0.49,0.50
213.56,1.21,0.75,1.21,0.75,-0.76,-0.72,-0.79,0.46,0.46,0.46
215.69,1.18,0.76,1.18,0.76,-0.76,-0.72,-0.80,0.42,0.42,0.42
217.85,1.14,0.76,1.13,0.76,-0.75,-0.72,-0.81,0.38,0.38,0.38
220.03,1.09,0.75,1.09,0.75,-0.75,-0.72,-0.82,0.34,0.34,0.34
222.23,1.04,0.74,1.04,0.75,-0.74,-0.72,-0.83,0.30,0.30,0.30
224.45,1.00,0.74,1.00,0.74,-0.74,-0.72,-0.84,0.26,0.26,0.26
226.70,0.95,0.73,0.95,0.73,-0.73,-0.71,-0.85,0.22,0.22,0.22
228.96,0.91,0.72,0.91,0.72,-0.72,-0.71,-0.85,0.19,0.19,0.19
231.25,0.86,0.71,0.86,0.71,-0.71,-0.70,-0.86,0.15,0.15,0.15
233.57,0.82,0.70,0.82,0.70,-0.71,-0.70,-0.86,0.11,0.11,0.12
235.90,0.78,0.70,0.78,0.70,-0.70,-0.69,-0.86,0.08,0.08,0.08
238.26,0.73,0.69,0.73,0.69,-0.69,-0.68,-0.86,0.04,0.04,0.04
240.64,0.69,0.69,0.69,0.69,-0.68,-0.67,-0.86,0.01,0.01,0.01
243.05,0.65,0.68,0.65,0.68,-0.67,-0.65,-0.86,-0.02,-0.02,-0.03
245.48,0.61,0.67,0.61,0.67,-0.66,-0.64,-0.85,-0.06,-0.06,-0.06
247.93,0.57,0.66,0.57,0.66,-0.65,-0.63,-0.84,-0.09,-0.09,-0.09
250.41,0.52,0.64,0.52,0.64,-0.64,-0.61,-0.83,-0.12,-0.12,-0.12
252.92,0.48,0.62,0.48,0.62,-0.62,-0.59,-0.81,-0.14,-0.14,-0.14
255.45,0.44,0.61,0.44,0.61,-0.61,-0.58,-0.80,-0.17,-0.17,-0.17
258.00,0.41,0.59,0.41,0.59,-0.59,-0.56,-0.78,-0.19,-0.19,-0.19
260.58,0.37,0.57,0.37,0.57,-0.58,-0.54,-0.76,-0.20,-0.20,-0.20
263.19,0.34,0.56,0.34,0.56,-0.56,-0.52,-0.74,-0.22,-0.22,-0.22
265.82,0.30,0.54,0.30,0.54,-0.54,-0.50,-0.71,-0.24,-0.24,-0.24
268.48,0.26,0.53,0.27,0.53,-0.53,-0.47,-0.69,-0.27,-0.27,-0.26
271.16,0.23,0.52,0.23,0.52,-0.52,-0.45,-0.66,-0.29,-0.29,-0.29
273.87,0.19,0.50,0.19,0.50,-0.50,-0.43,-0.63,-0.31,-0.31,-0.31
276.61,0.16,0.49,0.16,0.49,-0.49,-0.40,-0.59,-0.33,-0.33,-0.33
279.38,0.12,0.47,0.12,0.47,-0.47,-0.38,-0.56,-0.35,-0.35,-0.35
282.17,0.09,0.45,0.09,0.45,-0.45,-0.35,-0.52,-0.36,-0.36,-0.36
284.99,0.06,0.43,0.05,0.43,-0.43,-0.32,-0.49,-0.37,-0.37,-0.38
287.84,0.02,0.41,0.02,0.41,-0.40,-0.30,-0.45,-0.38,-0.38,-0.39
290.72,-0.02,0.38,-0.02,0.38,-0.38,-0.27,-0.41,-0.39,-0.39,-0.39
293.63,-0.05,0.34,-0.05,0.34,-0.35,-0.24,-0.37,-0.40,-0.40,-0.40
296.57,-0.09,0.31,-0.09,0.31,-0.32,-0.21,-0.32,-0.41,-0.41,-0.40
299.53,-0.13,0.28,-0.13,0.28,-0.28,-0.19,-0.28,-0.41,-0.41,-0.41
302.53,-0.17,0.25,-0.17,0.25,-0.25,-0.16,-0.24,-0.42,-0.42,-0.41
305.55,-0.20,0.21,-0.20,0.21,-0.21,-0.13,-0.19,-0.42,-0.42,-0.42
308.61,-0.24,0.18,-0.24,0.18,-0.18,-0.10,-0.15,-0.42,-0.42,-0.42
311.69,-0.28,0.14,-0.28,0.14,-0.14,-0.07,-0.10,-0.42,-0.42,-0.42
314.81,-0.31,0.10,-0.31,0.10,-0.10,-0.03,-0.05,-0.42,-0.41,-0.41
317.96,-0.34,0.06,-0.34,0.06,-0.07,-0.00,-0.01,-0.41,-0.41,-0.41
321.14,-0.37,0.03,-0.37,0.03,-0.03,0.03,0.04,-0.40,-0.40,-0.40
324.35,-0.40,-0.01,-0.40,-0.01,0.01,0.06,0.09,-0.38,-0.39,-0.39
327.59,-0.43,-0.05,-0.43,-0.06,0.06,0.10,0.14,-0.37,-0.37,-0.38
330.87,-0.46,-0.10,-0.46,-0.10,0.10,0.13,0.19,-0.36,-0.36,-0.36
334.18,-0.50,-0.14,-0.50,-0.14,0.14,0.16,0.24,-0.35,-0.35,-0.35
337.52,-0.53,-0.19,-0.53,-0.19,0.19,0.20,0.29,-0.35,-0.35,-0.35
340.90,-0.57,-0.23,-0.57,-0.23,0.23,0.23,0.34,-0.34,-0.34,-0.34
344.30,-0.60,-0.27,-0.60,-0.27,0.27,0.27,0.39,-0.33,-0.33,-0.33
347.75,-0.63,-0.32,-0.63,-0.32,0.32,0.31,0.45,-0.32,-0.32,-0.32
351.23,-0.67,-0.36,-0.67,-0.36,0.36,0.34,0.50,-0.31,-0.31,-0.31
354.74,-0.70,-0.41,-0.70,-0.40,0.40,0.38,0.55,-0.30,-0.30,-0.30
358.28,-0.73,-0.45,-0.73,-0.45,0.44,0.42,0.60,-0.29,-0.29,-0.28
361.87,-0.76,-0.49,-0.76,-0.49,0.49,0.46,0.66,-0.27,-0.27,-0.27
365.49,-0.78,-0.53,-0.79,-0.53,0.53,0.50,0.71,-0.25,-0.25,-0.26
369.14,-0.82,-0.57,-0.82,-0.57,0.58,0.54,0.77,-0.24,-0.24,-0.24
372.83,-0.85,-0.62,-0.85,-0.62,0.62,0.58,0.82,-0.23,-0.23,-0.23
376.56,-0.88,-0.67,-0.88,-0.67,0.67,0.63,0.88,-0.21,-0.21,-0.21
380.33,-0.92,-0.72,-0.92,-0.72,0.72,0.67,0.93,-0.20,-0.20,-0.20
384.13,-0.95,-0.77,-0.95,-0.77,0.77,0.72,0.99,-0.18,-0.18,-0.18
387.97,-0.98,-0.82,-0.98,-0.82,0.82,0.76,1.04,-0.16,-0.16,-0.16
391.85,-1.01,-0.87,-1.01,-0.87,0.87,0.81,1.10,-0.14,-0.14,-0.14
395.77,-1.04,-0.92,-1.04,-0.91,0.91,0.85,1.16,-0.13,-0.13,-0.12
399.73,-1.06,-0.96,-1.06,-0.96,0.96,0.90,1.21,-0.11,-0.11,-0.10
403.72,-1.09,-1.00,-1.09,-1.00,1.00,0.95,1.27,-0.09,-0.09,-0.09
407.76,-1.11,-1.04,-1.11,-1.04,1.04,1.00,1.32,-0.07,-0.07,-0.07
411.84,-1.13,-1.08,-1.13,-1.08,1.08,1.04,1.38,-0.05,-0.05,-0.05
415.96,-1.15,-1.12,-1.15,-1.12,1.12,1.09,1.43,-0.03,-0.03,-0.04
420.12,-1.18,-1.16,-1.18,-1.16,1.16,1.14,1.49,-0.02,-0.02,-0.02
424.32,-1.20,-1.20,-1.20,-1.19,1.19,1.18,1.54,-0.01,-0.01,-0.00
428.56,-1.22,-1.23,-1.22,-1.23,1.23,1.23,1.59,0.01,0.01,0.01
432.85,-1.23,-1.26,-1.23,-1.26,1.26,1.27,1.64,0.02,0.03,0.03
437.18,-1.25,-1.30,-1.25,-1.29,1.29,1.31,1.69,0.04,0.04,0.05
441.55,-1.26,-1.33,-1.26,-1.33,1.33,1.35,1.74,0.07,0.07,0.06
445.96,-1.28,-1.36,-1.28,-1.36,1.37,1.39,1.78,0.09,0.09,0.08
450.42,-1.30,-1.39,-1.30,-1.39,1.40,1.42,1.83,0.10,0.10,0.10
454.93,-1.32,-1.43,-1.32,-1.44,1.44,1.46,1.87,0.12,0.12,0.11
459.48,-1.35,-1.48,-1.35,-1.48,1.48,1.49,1.90,0.13,0.13,0.13
464.07,-1.38,-1.52,-1.38,-1.52,1.52,1.52,1.94,0.14,0.14,0.15
468.71,-1.40,-1.56,-1.40,-1.56,1.56,1.54,1.97,0.16,0.16,0.16
473.40,-1.42,-1.60,-1.42,-1.60,1.59,1.57,2.00,0.17,0.17,0.18
478.13,-1.43,-1.63,-1.43,-1.63,1.63,1.59,2.02,0.19,0.19,0.20
482.91,-1.45,-1.66,-1.45,-1.66,1.66,1.61,2.05,0.21,0.21,0.21
487.74,-1.46,-1.68,-1.46,-1.68,1.68,1.63,2.06,0.22,0.22,0.22
492.62,-1.47,-1.70,-1.47,-1.70,1.71,1.65,2.08,0.24,0.24,0.23
497.55,-1.48,-1.72,-1.48,-1.73,1.73,1.67,2.09,0.25,0.25,0.24
502.52,-1.49,-1.75,-1.49,-1.75,1.75,1.69,2.09,0.26,0.26,0.25
