frequency,raw,error,smoothed,error_smoothed,equalization,parametric_eq,fixed_band_eq,equalized_raw,equalized_smoothed,target
20.00,6.56,-1.51,6.56,-1.51,1.53,-0.06,0.30,8.09,8.09,8.07
20.20,6.60,-1.47,6.60,-1.46,1.46,-0.06,0.31,8.06,8.06,8.06
20.40,6.64,-1.42,6.64,-1.41,1.39,-0.06,0.32,8.03,8.04,8.05
20.61,6.68,-1.36,6.68,-1.35,1.33,-0.06,0.33,8.02,8.02,8.04
20.81,6.72,-1.29,6.72,-1.29,1.28,-0.06,0.34,8.00,8.00,8.01
21.02,6.75,-1.23,6.75,-1.23,1.24,-0.06,0.35,7.99,7.99,7.98
21.23,6.78,-1.18,6.77,-1.18,1.20,-0.06,0.36,7.98,7.97,7.96
21.44,6.78,-1.15,6.78,-1.15,1.17,-0.07,0.37,7.95,7.95,7.93
21.66,6.77,-1.13,6.78,-1.13,1.15,-0.07,0.39,7.92,7.92,7.91
21.87,6.76,-1.12,6.76,-1.13,1.13,-0.07,0.40,7.89,7.89,7.89
22.09,6.74,-1.13,6.74,-1.13,1.12,-0.07,0.41,7.86,7.86,7.86
22.31,6.71,-1.13,6.72,-1.13,1.12,-0.07,0.42,7.84,7.84,7.84
22.54,6.69,-1.13,6.69,-1.13,1.12,-0.07,0.44,7.82,7.82,7.82
22.76,6.67,-1.13,6.67,-1.13,1.12,-0.07,0.45,7.80,7.80,7.81
22.99,6.66,-1.13,6.66,-1.12,1.12,-0.08,0.47,7.78,7.78,7.79
23.22,6.66,-1.11,6.66,-1.11,1.11,-0.08,0.48,7.77,7.77,7.77
23.45,6.66,-1.10,6.66,-1.10,1.09,-0.08,0.50,7.75,7.75,7.75
23.69,6.66,-1.07,6.66,-1.07,1.07,-0.08,0.51,7.74,7.74,7.74
23.92,6.67,-1.05,6.67,-1.05,1.05,-0.08,0.53,7.72,7.72,7.72
24.16,6.67,-1.03,6.67,-1.03,1.03,-0.08,0.54,7.70,7.70,7.70
24.40,6.67,-1.00,6.67,-1.00,1.00,-0.09,0.56,7.68,7.68,7.67
24.65,6.67,-0.98,6.67,-0.98,0.98,-0.09,0.57,7.65,7.65,7.65
24.89,6.67,-0.95,6.67,-0.95,0.95,-0.09,0.59,7.62,7.62,7.62
25.14,6.67,-0.92,6.67,-0.92,0.92,-0.09,0.60,7.59,7.59,7.59
25.39,6.66,-0.90,6.67,-0.90,0.89,-0.09,0.62,7.56,7.56,7.56
25.65,6.66,-0.87,6.66,-0.87,0.86,-0.10,0.64,7.53,7.53,7.53
25.91,6.66,-0.84,6.66,-0.84,0.83,-0.10,0.65,7.50,7.50,7.50
26.16,6.66,-0.81,6.66,-0.81,0.80,-0.10,0.67,7.47,7.47,7.47
26.43,6.67,-0.78,6.67,-0.78,0.77,-0.10,0.68,7.44,7.44,7.44
26.69,6.66,-0.75,6.67,-0.75,0.75,-0.10,0.70,7.41,7.42,7.41
26.96,6.66,-0.72,6.66,-0.72,0.73,-0.11,0.71,7.39,7.39,7.38
27.23,6.65,-0.71,6.65,-0.71,0.72,-0.11,0.72,7.37,7.37,7.35
27.50,6.62,-0.70,6.62,-0.70,0.72,-0.11,0.74,7.34,7.34,7.32
27.77,6.59,-0.70,6.59,-0.70,0.72,-0.11,0.75,7.31,7.31,7.29
28.05,6.54,-0.71,6.54,-0.72,0.73,-0.12,0.76,7.27,7.27,7.26
28.33,6.49,-0.73,6.49,-0.73,0.74,-0.12,0.77,7.23,7.23,7.23
28.62,6.45,-0.75,6.45,-0.75,0.74,-0.12,0.78,7.19,7.19,7.20
28.90,6.41,-0.76,6.41,-0.76,0.74,-0.12,0.79,7.14,7.14,7.17
29.19,6.38,-0.75,6.38,-0.75,0.72,-0.13,0.79,7.11,7.11,7.13
29.48,6.37,-0.73,6.38,-0.73,0.70,-0.13,0.80,7.07,7.08,7.11
29.78,6.39,-0.69,6.39,-0.69,0.67,-0.13,0.80,7.06,7.06,7.08
30.08,6.41,-0.63,6.42,-0.63,0.63,-0.13,0.80,7.04,7.04,7.05
30.38,6.45,-0.58,6.44,-0.58,0.59,-0.14,0.80,7.03,7.03,7.02
30.68,6.47,-0.52,6.47,-0.53,0.55,-0.14,0.80,7.02,7.02,6.99
30.99,6.47,-0.49,6.47,-0.49,0.52,-0.14,0.79,6.99,6.99,6.96
31.30,6.46,-0.48,6.46,-0.48,0.50,-0.15,0.79,6.96,6.96,6.94
31.61,6.43,-0.47,6.43,-0.48,0.49,-0.15,0.78,6.92,6.92,6.90
31.93,6.38,-0.49,6.38,-0.49,0.49,-0.15,0.77,6.87,6.87,6.87
32.24,6.33,-0.50,6.34,-0.50,0.49,-0.16,0.76,6.83,6.83,6.83
32.57,6.29,-0.51,6.29,-0.51,0.50,-0.16,0.74,6.79,6.79,6.80
32.89,6.25,-0.51,6.25,-0.51,0.50,-0.16,0.73,6.75,6.75,6.76
33.22,6.22,-0.50,6.22,-0.51,0.50,-0.17,0.71,6.72,6.72,6.72
33.55,6.19,-0.49,6.19,-0.49,0.48,-0.17,0.69,6.68,6.68,6.69
33.89,6.18,-0.47,6.18,-0.47,0.46,-0.17,0.67,6.63,6.63,6.65
34.23,6.17,-0.44,6.17,-0.44,0.42,-0.18,0.65,6.59,6.59,6.61
34.57,6.17,-0.39,6.18,-0.39,0.37,-0.18,0.63,6.55,6.55,6.57
34.92,6.19,-0.33,6.20,-0.33,0.32,-0.19,0.61,6.52,6.52,6.53
35.27,6.22,-0.26,6.22,-0.26,0.27,-0.19,0.58,6.49,6.49,6.48
35.62,6.24,-0.20,6.24,-0.20,0.22,-0.19,0.55,6.47,6.46,6.44
35.97,6.25,-0.14,6.25,-0.15,0.18,-0.20,0.53,6.43,6.43,6.40
36.33,6.24,-0.12,6.23,-0.12,0.14,-0.20,0.50,6.38,6.38,6.35
36.70,6.20,-0.10,6.20,-0.10,0.11,-0.21,0.47,6.32,6.32,6.31
37.06,6.16,-0.10,6.17,-0.10,0.09,-0.21,0.44,6.25,6.25,6.26
37.43,6.13,-0.09,6.13,-0.09,0.07,-0.22,0.41,6.19,6.20,6.22
37.81,6.11,-0.07,6.11,-0.07,0.05,-0.22,0.38,6.16,6.16,6.18
38.19,6.10,-0.04,6.10,-0.04,0.03,-0.23,0.35,6.13,6.13,6.14
38.57,6.09,-0.00,6.09,-0.01,0.02,-0.23,0.31,6.11,6.11,6.10
38.95,6.08,0.02,6.07,0.02,-0.01,-0.24,0.28,6.07,6.07,6.06
39.34,6.06,0.04,6.05,0.04,-0.03,-0.24,0.25,6.02,6.02,6.02
39.74,6.03,0.06,6.03,0.06,-0.06,-0.25,0.22,5.97,5.97,5.98
40.14,6.01,0.08,6.01,0.08,-0.09,-0.25,0.18,5.92,5.92,5.94
40.54,6.00,0.11,6.01,0.11,-0.12,-0.26,0.15,5.88,5.88,5.90
40.94,6.01,0.15,6.01,0.15,-0.16,-0.26,0.11,5.85,5.85,5.86
41.35,6.01,0.19,6.01,0.19,-0.19,-0.27,0.08,5.82,5.82,5.82
41.76,6.01,0.24,6.01,0.23,-0.22,-0.28,0.05,5.79,5.79,5.78
42.18,6.00,0.26,6.00,0.26,-0.25,-0.28,0.01,5.75,5.75,5.74
42.60,5.99,0.29,5.99,0.29,-0.28,-0.29,-0.02,5.71,5.71,5.70
43.03,5.96,0.30,5.96,0.30,-0.30,-0.30,-0.06,5.66,5.66,5.66
43.46,5.93,0.32,5.93,0.32,-0.31,-0.30,-0.09,5.62,5.62,5.61
43.90,5.90,0.33,5.90,0.33,-0.32,-0.31,-0.12,5.57,5.57,5.57
44.33,5.86,0.34,5.86,0.34,-0.33,-0.32,-0.16,5.53,5.52,5.52
44.78,5.81,0.34,5.81,0.34,-0.34,-0.32,-0.19,5.47,5.47,5.47
45.23,5.77,0.34,5.77,0.34,-0.35,-0.33,-0.23,5.42,5.42,5.43
45.68,5.74,0.35,5.74,0.35,-0.37,-0.34,-0.26,5.36,5.37,5.38
46.13,5.71,0.37,5.71,0.38,-0.39,-0.35,-0.30,5.32,5.32,5.34
46.60,5.70,0.41,5.70,0.41,-0.42,-0.36,-0.33,5.28,5.28,5.29
47.06,5.69,0.45,5.69,0.45,-0.45,-0.37,-0.37,5.24,5.24,5.25
47.53,5.69,0.49,5.69,0.49,-0.48,-0.37,-0.40,5.21,5.21,5.20
48.01,5.69,0.53,5.69,0.53,-0.51,-0.38,-0.44,5.18,5.17,5.16
48.49,5.67,0.56,5.67,0.56,-0.54,-0.39,-0.47,5.13,5.13,5.11
48.97,5.64,0.58,5.64,0.58,-0.57,-0.40,-0.51,5.07,5.07,5.06
49.46,5.60,0.59,5.60,0.59,-0.59,-0.41,-0.54,5.01,5.01,5.00
49.96,5.55,0.60,5.55,0.60,-0.60,-0.42,-0.58,4.94,4.94,4.95
50.46,5.50,0.61,5.50,0.61,-0.62,-0.43,-0.61,4.88,4.88,4.89
50.96,5.45,0.62,5.46,0.62,-0.63,-0.44,-0.65,4.83,4.83,4.84
51.47,5.42,0.63,5.42,0.63,-0.64,-0.45,-0.68,4.78,4.78,4.79
51.99,5.39,0.66,5.39,0.65,-0.66,-0.47,-0.72,4.74,4.74,4.74
52.51,5.36,0.68,5.36,0.68,-0.67,-0.48,-0.75,4.69,4.69,4.69
53.03,5.33,0.70,5.33,0.69,-0.69,-0.49,-0.78,4.65,4.65,4.64
53.56,5.30,0.71,5.30,0.71,-0.70,-0.50,-0.82,4.59,4.59,4.59
54.10,5.26,0.72,5.26,0.72,-0.72,-0.51,-0.85,4.54,4.54,4.54
54.64,5.23,0.74,5.23,0.74,-0.74,-0.53,-0.88,4.48,4.48,4.49
55.18,5.19,0.76,5.19,0.76,-0.76,-0.54,-0.91,4.43,4.43,4.44
55.74,5.16,0.78,5.16,0.78,-0.79,-0.55,-0.94,4.38,4.38,4.38
56.29,5.14,0.81,5.14,0.81,-0.81,-0.57,-0.97,4.33,4.33,4.33
56.86,5.11,0.83,5.11,0.83,-0.83,-0.58,-1.00,4.28,4.28,4.28
57.42,5.08,0.86,5.08,0.86,-0.86,-0.60,-1.03,4.22,4.22,4.22
58.00,5.05,0.88,5.05,0.88,-0.88,-0.61,-1.05,4.17,4.17,4.17
58.58,5.02,0.91,5.02,0.91,-0.91,-0.63,-1.08,4.11,4.11,4.11
59.16,4.99,0.93,4.99,0.93,-0.93,-0.65,-1.10,4.06,4.06,4.06
59.76,4.96,0.95,4.96,0.95,-0.95,-0.66,-1.12,4.01,4.01,4.01
60.35,4.93,0.97,4.93,0.97,-0.97,-0.68,-1.14,3.96,3.96,3.96
60.96,4.90,0.99,4.90,0.99,-0.98,-0.70,-1.16,3.91,3.91,3.91
61.57,4.87,1.00,4.86,1.00,-1.00,-0.72,-1.18,3.87,3.87,3.87
62.18,4.83,1.01,4.83,1.01,-1.00,-0.74,-1.19,3.83,3.83,3.82
62.80,4.79,1.02,4.79,1.02,-1.01,-0.76,-1.21,3.78,3.78,3.78
63.43,4.76,1.02,4.76,1.02,-1.02,-0.78,-1.22,3.74,3.74,3.73
64.07,4.72,1.02,4.72,1.02,-1.02,-0.80,-1.23,3.69,3.69,3.69
64.71,4.68,1.02,4.68,1.03,-1.03,-0.82,-1.24,3.65,3.65,3.65
65.35,4.64,1.03,4.64,1.03,-1.04,-0.84,-1.25,3.60,3.60,3.61
66.01,4.60,1.05,4.60,1.05,-1.05,-0.86,-1.26,3.55,3.55,3.55
66.67,4.57,1.06,4.57,1.06,-1.07,-0.89,-1.26,3.50,3.50,3.50
67.33,4.53,1.08,4.53,1.08,-1.09,-0.91,-1.27,3.45,3.45,3.45
68.01,4.50,1.11,4.50,1.11,-1.11,-0.93,-1.27,3.40,3.40,3.40
68.69,4.47,1.13,4.47,1.13,-1.13,-0.96,-1.27,3.34,3.34,3.34
69.37,4.44,1.16,4.44,1.15,-1.15,-0.98,-1.27,3.29,3.29,3.29
70.07,4.41,1.18,4.41,1.18,-1.17,-1.01,-1.28,3.24,3.24,3.24
70.77,4.38,1.20,4.38,1.20,-1.20,-1.04,-1.28,3.18,3.18,3.19
71.48,4.35,1.21,4.35,1.21,-1.22,-1.06,-1.28,3.13,3.13,3.13
72.19,4.31,1.23,4.31,1.24,-1.24,-1.09,-1.28,3.07,3.07,3.08
72.91,4.28,1.26,4.28,1.26,-1.26,-1.12,-1.27,3.02,3.02,3.02
73.64,4.24,1.28,4.24,1.28,-1.27,-1.15,-1.27,2.97,2.97,2.96
74.38,4.20,1.30,4.20,1.29,-1.28,-1.17,-1.27,2.92,2.92,2.90
75.12,4.16,1.30,4.16,1.30,-1.29,-1.20,-1.27,2.87,2.87,2.86
75.87,4.12,1.30,4.12,1.30,-1.29,-1.23,-1.27,2.82,2.83,2.81
76.63,4.08,1.30,4.08,1.30,-1.29,-1.26,-1.27,2.78,2.78,2.78
77.40,4.04,1.29,4.04,1.29,-1.29,-1.29,-1.27,2.75,2.75,2.75
78.17,4.00,1.28,4.00,1.28,-1.29,-1.32,-1.27,2.71,2.71,2.72
78.95,3.96,1.28,3.96,1.28,-1.29,-1.34,-1.28,2.67,2.67,2.68
79.74,3.92,1.29,3.92,1.29,-1.30,-1.37,-1.28,2.62,2.62,2.63
80.54,3.88,1.31,3.88,1.31,-1.31,-1.40,-1.28,2.57,2.57,2.58
81.35,3.85,1.32,3.85,1.32,-1.32,-1.43,-1.28,2.52,2.52,2.52
82.16,3.81,1.34,3.81,1.34,-1.34,-1.45,-1.29,2.47,2.47,2.47
82.98,3.78,1.36,3.78,1.36,-1.37,-1.48,-1.29,2.41,2.41,2.41
83.81,3.74,1.39,3.74,1.39,-1.39,-1.50,-1.30,2.35,2.35,2.35
84.65,3.70,1.41,3.70,1.41,-1.41,-1.52,-1.31,2.29,2.29,2.29
85.50,3.67,1.43,3.67,1.43,-1.43,-1.55,-1.32,2.24,2.24,2.24
86.35,3.63,1.45,3.63,1.45,-1.44,-1.57,-1.32,2.19,2.19,2.18
87.22,3.59,1.47,3.59,1.47,-1.45,-1.59,-1.34,2.14,2.14,2.12
88.09,3.55,1.47,3.55,1.47,-1.46,-1.60,-1.35,2.09,2.09,2.08
88.97,3.52,1.47,3.52,1.47,-1.47,-1.62,-1.36,2.05,2.05,2.04
89.86,3.48,1.46,3.47,1.47,-1.48,-1.63,-1.37,2.00,2.00,2.01
90.76,3.43,1.47,3.43,1.47,-1.48,-1.65,-1.39,1.95,1.95,1.96
91.66,3.39,1.48,3.39,1.48,-1.50,-1.66,-1.40,1.90,1.90,1.91
92.58,3.35,1.51,3.35,1.51,-1.51,-1.67,-1.42,1.84,1.84,1.84
93.51,3.31,1.53,3.31,1.53,-1.53,-1.68,-1.44,1.78,1.78,1.78
94.44,3.27,1.55,3.27,1.55,-1.55,-1.69,-1.45,1.71,1.71,1.71
95.39,3.23,1.58,3.23,1.58,-1.58,-1.69,-1.47,1.65,1.65,1.65
96.34,3.19,1.61,3.20,1.61,-1.61,-1.70,-1.49,1.58,1.58,1.59
97.30,3.16,1.64,3.16,1.64,-1.64,-1.70,-1.52,1.52,1.52,1.52
98.28,3.12,1.67,3.12,1.67,-1.67,-1.70,-1.54,1.46,1.46,1.45
99.26,3.09,1.70,3.09,1.70,-1.69,-1.70,-1.56,1.39,1.39,1.39
100.25,3.05,1.72,3.05,1.72,-1.71,-1.70,-1.58,1.33,1.33,1.33
101.25,3.01,1.74,3.01,1.74,-1.73,-1.70,-1.61,1.27,1.27,1.27
102.27,2.97,1.75,2.97,1.75,-1.75,-1.70,-1.63,1.22,1.22,1.21
103.29,2.92,1.76,2.92,1.76,-1.76,-1.70,-1.66,1.17,1.17,1.17
104.32,2.88,1.76,2.88,1.76,-1.76,-1.70,-1.68,1.12,1.12,1.12
105.37,2.84,1.76,2.84,1.76,-1.77,-1.70,-1.71,1.07,1.07,1.08
106.42,2.80,1.76,2.80,1.76,-1.77,-1.69,-1.73,1.03,1.03,1.03
107.48,2.76,1.76,2.76,1.76,-1.76,-1.69,-1.76,0.99,0.99,1.00
108.56,2.72,1.76,2.72,1.76,-1.76,-1.69,-1.78,0.96,0.96,0.96
109.64,2.69,1.75,2.69,1.75,-1.75,-1.69,-1.81,0.94,0.94,0.94
110.74,2.65,1.74,2.65,1.74,-1.73,-1.69,-1.83,0.92,0.92,0.91
111.85,2.62,1.73,2.62,1.73,-1.72,-1.68,-1.86,0.90,0.90,0.89
112.97,2.58,1.71,2.58,1.71,-1.69,-1.68,-1.88,0.88,0.88,0.87
114.10,2.53,1.68,2.53,1.68,-1.67,-1.68,-1.90,0.86,0.86,0.85
115.24,2.48,1.65,2.48,1.65,-1.65,-1.68,-1.92,0.83,0.83,0.83
116.39,2.43,1.62,2.43,1.62,-1.63,-1.68,-1.94,0.79,0.79,0.80
117.55,2.37,1.60,2.37,1.61,-1.62,-1.68,-1.96,0.75,0.75,0.76
118.73,2.32,1.60,2.32,1.60,-1.62,-1.68,-1.97,0.69,0.69,0.72
119.92,2.27,1.61,2.27,1.61,-1.63,-1.69,-1.99,0.64,0.64,0.66
121.12,2.23,1.64,2.23,1.64,-1.65,-1.69,-2.00,0.59,0.59,0.60
122.33,2.21,1.67,2.21,1.67,-1.67,-1.69,-2.01,0.54,0.54,0.53
123.55,2.18,1.71,2.18,1.71,-1.69,-1.69,-2.02,0.49,0.49,0.48
124.79,2.16,1.74,2.16,1.74,-1.72,-1.70,-2.03,0.44,0.44,0.42
126.03,2.13,1.76,2.13,1.76,-1.74,-1.70,-2.04,0.39,0.39,0.38
127.29,2.10,1.77,2.10,1.77,-1.76,-1.71,-2.04,0.34,0.34,0.33
128.57,2.06,1.78,2.06,1.78,-1.78,-1.72,-2.04,0.29,0.29,0.28
129.85,2.02,1.79,2.02,1.79,-1.79,-1.72,-2.04,0.23,0.23,0.23
131.15,1.98,1.79,1.98,1.79,-1.79,-1.73,-2.04,0.18,0.18,0.19
132.46,1.94,1.80,1.94,1.80,-1.80,-1.74,-2.04,0.14,0.14,0.14
133.79,1.90,1.80,1.90,1.80,-1.81,-1.75,-2.03,0.09,0.09,0.09
135.12,1.86,1.81,1.86,1.81,-1.82,-1.75,-2.02,0.04,0.04,0.04
136.48,1.82,1.83,1.82,1.83,-1.83,-1.76,-2.02,-0.01,-0.01,-0.01
137.84,1.78,1.85,1.78,1.85,-1.85,-1.77,-2.01,-0.07,-0.07,-0.06
139.22,1.75,1.87,1.75,1.87,-1.87,-1.78,-2.00,-0.12,-0.12,-0.12
140.61,1.71,1.89,1.71,1.89,-1.89,-1.79,-1.99,-0.17,-0.17,-0.18
142.02,1.68,1.91,1.68,1.91,-1.90,-1.80,-1.98,-0.22,-0.22,-0.23
143.44,1.65,1.93,1.65,1.93,-1.92,-1.82,-1.97,-0.27,-0.27,-0.28
144.87,1.62,1.94,1.62,1.94,-1.94,-1.83,-1.96,-0.32,-0.32,-0.33
146.32,1.58,1.96,1.58,1.96,-1.95,-1.84,-1.94,-0.37,-0.37,-0.37
147.78,1.55,1.97,1.55,1.97,-1.97,-1.85,-1.93,-0.42,-0.42,-0.41
149.26,1.52,1.98,1.52,1.98,-1.98,-1.86,-1.92,-0.46,-0.46,-0.46
150.75,1.50,1.99,1.50,1.99,-2.00,-1.88,-1.91,-0.50,-0.50,-0.50
152.26,1.47,2.01,1.47,2.01,-2.01,-1.89,-1.90,-0.54,-0.54,-0.54
153.78,1.44,2.02,1.44,2.02,-2.02,-1.90,-1.89,-0.58,-0.58,-0.58
155.32,1.42,2.03,1.42,2.03,-2.03,-1.92,-1.88,-0.61,-0.61,-0.61
156.88,1.40,2.04,1.40,2.04,-2.04,-1.93,-1.87,-0.64,-0.64,-0.64
158.44,1.37,2.05,1.38,2.05,-2.05,-1.94,-1.87,-0.67,-0.67,-0.68
160.03,1.35,2.06,1.35,2.06,-2.05,-1.96,-1.86,-0.70,-0.70,-0.70
161.63,1.33,2.06,1.33,2.06,-2.05,-1.97,-1.86,-0.72,-0.72,-0.73
163.24,1.31,2.05,1.31,2.05,-2.04,-1.98,-1.85,-0.74,-0.74,-0.75
164.88,1.28,2.04,1.28,2.04,-2.03,-2.00,-1.85,-0.75,-0.75,-0.76
166.53,1.25,2.03,1.25,2.03,-2.02,-2.01,-1.85,-0.77,-0.77,-0.77
168.19,1.22,2.01,1.22,2.01,-2.02,-2.02,-1.85,-0.79,-0.79,-0.79
169.87,1.20,2.01,1.20,2.01,-2.02,-2.04,-1.85,-0.82,-0.82,-0.81
171.57,1.17,2.01,1.17,2.01,-2.03,-2.05,-1.85,-0.86,-0.86,-0.84
173.29,1.14,2.03,1.14,2.03,-2.05,-2.06,-1.86,-0.91,-0.91,-0.89
175.02,1.11,2.06,1.11,2.06,-2.07,-2.08,-1.86,-0.96,-0.96,-0.95
176.77,1.08,2.10,1.08,2.10,-2.10,-2.09,-1.87,-1.02,-1.02,-1.02
178.54,1.04,2.14,1.04,2.14,-2.13,-2.10,-1.88,-1.09,-1.09,-1.09
180.32,1.01,2.18,1.01,2.18,-2.16,-2.11,-1.89,-1.15,-1.15,-1.16
182.13,0.98,2.21,0.98,2.21,-2.19,-2.12,-1.90,-1.21,-1.21,-1.23
183.95,0.95,2.23,0.95,2.23,-2.22,-2.13,-1.91,-1.27,-1.27,-1.28
185.79,0.92,2.24,0.92,2.24,-2.24,-2.14,-1.93,-1.32,-1.32,-1.33
187.65,0.89,2.25,0.89,2.25,-2.25,-2.15,-1.95,-1.36,-1.36,-1.37
189.52,0.85,2.26,0.85,2.26,-2.26,-2.16,-1.96,-1.41,-1.41,-1.40
191.42,0.82,2.26,0.82,2.26,-2.27,-2.17,-1.98,-1.44,-1.44,-1.44
193.33,0.79,2.26,0.79,2.26,-2.27,-2.18,-2.00,-1.48,-1.48,-1.47
195.27,0.76,2.27,0.76,2.27,-2.27,-2.19,-2.02,-1.51,-1.51,-1.51
197.22,0.73,2.28,0.73,2.28,-2.28,-2.20,-2.04,-1.55,-1.55,-1.54
199.19,0.70,2.28,0.70,2.28,-2.28,-2.20,-2.07,-1.58,-1.58,-1.58
201.18,0.67,2.29,0.67,2.29,-2.29,-2.21,-2.09,-1.61,-1.61,-1.61
203.19,0.65,2.29,0.65,2.29,-2.29,-2.21,-2.11,-1.64,-1.64,-1.64
205.23,0.62,2.29,0.62,2.29,-2.29,-2.22,-2.14,-1.67,-1.67,-1.67
207.28,0.59,2.29,0.59,2.29,-2.28,-2.22,-2.16,-1.69,-1.69,-1.70
209.35,0.56,2.28,0.56,2.28,-2.28,-2.23,-2.19,-1.71,-1.71,-1.72
211.44,0.53,2.27,0.53,2.27,-2.27,-2.23,-2.21,-1.73,-1.73,-1.73
213.56,0.51,2.26,0.51,2.26,-2.26,-2.23,-2.24,-1.75,-1.75,-1.75
215.69,0.48,2.24,0.48,2.24,-2.24,-2.23,-2.26,-1.77,-1.77,-1.76
217.85,0.45,2.23,0.45,2.23,-2.23,-2.23,-2.28,-1.78,-1.78,-1.78
220.03,0.42,2.21,0.42,2.21,-2.21,-2.23,-2.31,-1.79,-1.79,-1.79
222.23,0.39,2.19,0.39,2.19,-2.20,-2.23,-2.33,-1.81,-1.81,-1.81
224.45,0.36,2.18,0.36,2.18,-2.18,-2.23,-2.35,-1.82,-1.82,-1.82
226.70,0.33,2.17,0.33,2.17,-2.16,-2.22,-2.37,-1.84,-1.84,-1.84
228.96,0.30,2.15,0.30,2.15,-2.15,-2.22,-2.38,-1.85,-1.85,-1.85
231.25,0.27,2.13,0.27,2.13,-2.13,-2.21,-2.40,-1.86,-1.86,-1.86
233.57,0.24,2.12,0.24,2.12,-2.12,-2.21,-2.41,-1.88,-1.88,-1.88
235.90,0.21,2.10,0.21,2.10,-2.10,-2.20,-2.42,-1.89,-1.89,-1.89
238.26,0.19,2.09,0.19,2.09,-2.09,-2.19,-2.43,-1.90,-1.90,-1.90
240.64,0.16,2.07,0.16,2.07,-2.07,-2.18,-2.43,-1.91,-1.91,-1.91
243.05,0.13,2.06,0.13,2.06,-2.06,-2.18,-2.43,-1.93,-1.93,-1.93
245.48,0.11,2.05,0.11,2.05,-2.05,-2.17,-2.43,-1.94,-1.94,-1.94
247.93,0.08,2.04,0.08,2.04,-2.03,-2.15,-2.42,-1.96,-1.96,-1.96
250.41,0.05,2.02,0.05,2.02,-2.02,-2.14,-2.41,-1.97,-1.97,-1.97
252.92,0.03,2.01,0.02,2.01,-2.01,-2.13,-2.40,-1.99,-1.99,-1.99
255.45,-0.00,2.00,-0.00,2.00,-2.00,-2.12,-2.39,-2.00,-2.00,-2.00
258.00,-0.03,1.99,-0.03,1.99,-1.99,-2.10,-2.37,-2.02,-2.02,-2.01
260.58,-0.05,1.98,-0.05,1.98,-1.98,-2.09,-2.35,-2.03,-2.03,-2.03
263.19,-0.08,1.97,-0.08,1.97,-1.97,-2.07,-2.32,-2.05,-2.05,-2.05
265.82,-0.10,1.96,-0.10,1.96,-1.96,-2.05,-2.29,-2.07,-2.07,-2.07
268.48,-0.13,1.95,-0.13,1.95,-1.95,-2.04,-2.26,-2.08,-2.08,-2.08
271.16,-0.16,1.94,-0.16,1.94,-1.94,-2.02,-2.23,-2.10,-2.10,-2.10
273.87,-0.18,1.93,-0.18,1.93,-1.93,-2.00,-2.19,-2.11,-2.11,-2.11
276.61,-0.21,1.92,-0.21,1.92,-1.92,-1.98,-2.16,-2.12,-2.12,-2.12
279.38,-0.23,1.90,-0.23,1.90,-1.90,-1.96,-2.12,-2.13,-2.13,-2.13
282.17,-0.26,1.88,-0.26,1.88,-1.88,-1.94,-2.07,-2.14,-2.14,-2.14
284.99,-0.29,1.86,-0.29,1.86,-1.87,-1.92,-2.03,-2.15,-2.15,-2.15
287.84,-0.31,1.84,-0.31,1.84,-1.85,-1.90,-1.99,-2.16,-2.16,-2.16
290.72,-0.34,1.82,-0.34,1.82,-1.83,-1.87,-1.94,-2.17,-2.17,-2.16
293.63,-0.37,1.80,-0.37,1.80,-1.80,-1.85,-1.89,-2.17,-2.17,-2.17
296.57,-0.40,1.78,-0.39,1.78,-1.78,-1.83,-1.85,-2.17,-2.17,-2.17
299.53,-0.42,1.75,-0.42,1.75,-1.75,-1.80,-1.80,-2.17,-2.17,-2.18
302.53,-0.45,1.72,-0.45,1.72,-1.72,-1.78,-1.75,-2.17,-2.17,-2.18
305.55,-0.48,1.69,-0.48,1.69,-1.69,-1.75,-1.70,-2.17,-2.17,-2.17
308.61,-0.51,1.66,-0.51,1.66,-1.66,-1.73,-1.65,-2.17,-2.17,-2.17
311.69,-0.54,1.62,-0.54,1.62,-1.62,-1.70,-1.60,-2.16,-2.16,-2.16
314.81,-0.57,1.58,-0.57,1.58,-1.58,-1.67,-1.55,-2.15,-2.15,-2.15
317.96,-0.60,1.54,-0.60,1.54,-1.54,-1.64,-1.51,-2.14,-2.14,-2.14
321.14,-0.62,1.50,-0.62,1.50,-1.50,-1.62,-1.46,-2.13,-2.13,-2.13
324.35,-0.65,1.47,-0.65,1.47,-1.47,-1.59,-1.41,-2.12,-2.12,-2.11
327.59,-0.66,1.44,-0.66,1.43,-1.44,-1.56,-1.36,-2.10,-2.10,-2.10
330.87,-0.68,1.41,-0.68,1.41,-1.42,-1.53,-1.32,-2.09,-2.09,-2.09
334.18,-0.68,1.39,-0.68,1.39,-1.40,-1.50,-1.27,-2.08,-2.08,-2.07
337.52,-0.67,1.39,-0.67,1.39,-1.40,-1.47,-1.23,-2.07,-2.07,-2.06
340.90,-0.66,1.39,-0.66,1.39,-1.40,-1.44,-1.18,-2.06,-2.06,-2.05
344.30,-0.64,1.40,-0.64,1.40,-1.40,-1.41,-1.14,-2.04,-2.04,-2.04
347.75,-0.61,1.41,-0.61,1.41,-1.41,-1.38,-1.10,-2.02,-2.02,-2.02
351.23,-0.59,1.42,-0.59,1.42,-1.42,-1.35,-1.06,-2.01,-2.01,-2.01
354.74,-0.57,1.44,-0.57,1.43,-1.42,-1.32,-1.02,-1.99,-2.00,-2.01
358.28,-0.56,1.43,-0.56,1.43,-1.42,-1.29,-0.98,-1.99,-1.99,-2.00
361.87,-0.56,1.43,-0.56,1.43,-1.42,-1.26,-0.94,-1.98,-1.98,-1.99
365.49,-0.57,1.41,-0.57,1.41,-1.41,-1.23,-0.90,-1.97,-1.97,-1.98
369.14,-0.58,1.39,-0.58,1.39,-1.39,-1.20,-0.86,-1.97,-1.97,-1.97
372.83,-0.60,1.36,-0.60,1.36,-1.36,-1.16,-0.82,-1.96,-1.96,-1.96
376.56,-0.62,1.33,-0.62,1.33,-1.33,-1.13,-0.79,-1.95,-1.95,-1.95
380.33,-0.64,1.30,-0.64,1.30,-1.30,-1.10,-0.75,-1.94,-1.94,-1.94
384.13,-0.67,1.26,-0.67,1.26,-1.26,-1.07,-0.72,-1.93,-1.93,-1.93
387.97,-0.69,1.23,-0.69,1.23,-1.23,-1.03,-0.68,-1.92,-1.92,-1.92
391.85,-0.72,1.19,-0.72,1.19,-1.19,-1.00,-0.65,-1.91,-1.91,-1.91
395.77,-0.74,1.15,-0.74,1.15,-1.15,-0.97,-0.62,-1.90,-1.90,-1.89
399.73,-0.76,1.12,-0.76,1.12,-1.12,-0.93,-0.58,-1.88,-1.88,-1.88
403.72,-0.79,1.08,-0.79,1.08,-1.08,-0.90,-0.55,-1.87,-1.87,-1.87
407.76,-0.81,1.04,-0.81,1.04,-1.04,-0.87,-0.52,-1.85,-1.85,-1.85
411.84,-0.83,1.00,-0.83,1.00,-1.00,-0.83,-0.49,-1.83,-1.83,-1.83
415.96,-0.85,0.96,-0.85,0.96,-0.96,-0.80,-0.46,-1.82,-1.82,-1.82
420.12,-0.87,0.93,-0.87,0.93,-0.92,-0.77,-0.43,-1.80,-1.80,-1.80
424.32,-0.89,0.88,-0.89,0.88,-0.88,-0.73,-0.41,-1.78,-1.78,-1.78
428.56,-0.91,0.84,-0.91,0.84,-0.84,-0.70,-0.38,-1.75,-1.75,-1.75
432.85,-0.93,0.80,-0.93,0.80,-0.80,-0.66,-0.35,-1.73,-1.73,-1.73
437.18,-0.95,0.76,-0.95,0.76,-0.75,-0.63,-0.32,-1.70,-1.70,-1.71
441.55,-0.97,0.71,-0.97,0.71,-0.71,-0.59,-0.30,-1.68,-1.68,-1.68
445.96,-0.99,0.66,-0.99,0.66,-0.66,-0.56,-0.27,-1.65,-1.65,-1.65
450.42,-1.01,0.62,-1.01,0.62,-0.62,-0.52,-0.25,-1.62,-1.62,-1.62
454.93,-1.03,0.57,-1.03,0.57,-0.57,-0.49,-0.22,-1.59,-1.59,-1.59
459.48,-1.04,0.52,-1.04,0.52,-0.52,-0.45,-0.20,-1.56,-1.57,-1.57
464.07,-1.06,0.47,-1.06,0.47,-0.47,-0.41,-0.18,-1.54,-1.54,-1.54
468.71,-1.08,0.43,-1.08,0.43,-0.43,-0.38,-0.15,-1.51,-1.51,-1.51
473.40,-1.10,0.38,-1.10,0.38,-0.38,-0.34,-0.13,-1.48,-1.48,-1.47
478.13,-1.11,0.33,-1.11,0.33,-0.33,-0.30,-0.11,-1.44,-1.44,-1.44
482.91,-1.13,0.28,-1.13,0.28,-0.28,-0.27,-0.09,-1.41,-1.41,-1.41
487.74,-1.14,0.24,-1.14,0.24,-0.24,-0.23,-0.07,-1.38,-1.38,-1.38
492.62,-1.16,0.19,-1.16,0.19,-0.19,-0.19,-0.05,-1.35,-1.35,-1.35
497.55,-1.17,0.15,-1.17,0.15,-0.14,-0.15,-0.03,-1.32,-1.32,-1.32
502.52,-1.19,0.10,-1.19,0.10,-0.10,-0.11,-0.01,-1.29,-1.29,-1.29
