frequency,raw,error,smoothed,error_smoothed,equalization,parametric_eq,fixed_band_eq,equalized_raw,equalized_smoothed,target
20.00,7.29,2.18,7.29,2.18,-2.23,-1.74,-0.49,5.05,5.05,5.11
20.20,7.15,2.03,7.16,2.03,-2.04,-1.72,-0.51,5.11,5.11,5.12
20.40,7.02,1.88,7.02,1.88,-1.86,-1.70,-0.52,5.16,5.16,5.14
20.61,6.89,1.73,6.89,1.73,-1.69,-1.63,-0.54,5.20,5.20,5.16
20.81,6.76,1.58,6.76,1.58,-1.54,-1.56,-0.56,5.22,5.22,5.18
21.02,6.62,1.43,6.62,1.43,-1.39,-1.48,-0.58,5.23,5.23,5.19
21.23,6.49,1.28,6.48,1.28,-1.25,-1.39,-0.59,5.23,5.23,5.21
21.44,6.35,1.13,6.35,1.13,-1.13,-1.30,-0.61,5.22,5.22,5.22
21.66,6.21,0.99,6.21,0.99,-0.99,-1.22,-0.63,5.22,5.22,5.22
21.87,6.08,0.86,6.09,0.87,-0.88,-1.14,-0.65,5.21,5.21,5.22
22.09,5.98,0.76,5.98,0.76,-0.78,-1.07,-0.67,5.20,5.20,5.22
22.31,5.90,0.68,5.90,0.68,-0.71,-1.02,-0.69,5.19,5.19,5.22
22.54,5.85,0.63,5.85,0.63,-0.66,-0.96,-0.72,5.19,5.19,5.22
22.76,5.82,0.60,5.83,0.61,-0.63,-0.92,-0.74,5.20,5.20,5.22
22.99,5.83,0.60,5.84,0.61,-0.62,-0.88,-0.76,5.21,5.22,5.23
23.22,5.87,0.63,5.86,0.63,-0.62,-0.86,-0.78,5.24,5.24,5.24
23.45,5.90,0.65,5.90,0.65,-0.64,-0.83,-0.81,5.27,5.27,5.25
23.69,5.94,0.68,5.94,0.68,-0.65,-0.82,-0.83,5.29,5.29,5.26
23.92,5.97,0.69,5.97,0.69,-0.66,-0.80,-0.86,5.31,5.30,5.28
24.16,5.98,0.70,5.98,0.69,-0.67,-0.79,-0.88,5.31,5.31,5.29
24.40,5.98,0.69,5.98,0.69,-0.67,-0.79,-0.91,5.31,5.31,5.29
24.65,5.97,0.68,5.97,0.68,-0.67,-0.79,-0.93,5.30,5.30,5.29
24.89,5.95,0.66,5.95,0.66,-0.67,-0.79,-0.96,5.28,5.28,5.29
25.14,5.94,0.66,5.94,0.66,-0.68,-0.80,-0.98,5.27,5.27,5.28
25.39,5.94,0.66,5.94,0.67,-0.69,-0.81,-1.01,5.25,5.25,5.27
25.65,5.96,0.70,5.96,0.70,-0.72,-0.82,-1.04,5.25,5.25,5.26
25.91,6.00,0.74,6.00,0.74,-0.75,-0.83,-1.06,5.25,5.25,5.26
26.16,6.06,0.79,6.06,0.80,-0.80,-0.85,-1.09,5.25,5.26,5.26
26.43,6.13,0.86,6.13,0.86,-0.86,-0.87,-1.11,5.27,5.27,5.27
26.69,6.22,0.93,6.22,0.93,-0.92,-0.89,-1.13,5.30,5.29,5.29
26.96,6.31,1.00,6.31,1.00,-0.99,-0.91,-1.16,5.32,5.32,5.31
27.23,6.39,1.06,6.39,1.06,-1.05,-0.93,-1.18,5.34,5.34,5.33
27.50,6.47,1.11,6.47,1.11,-1.11,-0.95,-1.20,5.36,5.36,5.35
27.77,6.53,1.16,6.53,1.16,-1.16,-0.97,-1.22,5.37,5.37,5.37
28.05,6.59,1.21,6.59,1.21,-1.21,-0.99,-1.24,5.38,5.38,5.38
28.33,6.63,1.25,6.63,1.25,-1.25,-1.00,-1.26,5.39,5.39,5.39
28.62,6.67,1.28,6.67,1.28,-1.28,-1.02,-1.27,5.39,5.39,5.39
28.90,6.69,1.30,6.69,1.30,-1.29,-1.04,-1.29,5.40,5.40,5.39
29.19,6.70,1.30,6.70,1.31,-1.30,-1.05,-1.30,5.40,5.40,5.40
29.48,6.71,1.30,6.71,1.30,-1.30,-1.06,-1.31,5.42,5.41,5.41
29.78,6.71,1.28,6.71,1.29,-1.28,-1.07,-1.31,5.43,5.43,5.42
30.08,6.69,1.26,6.69,1.26,-1.25,-1.07,-1.32,5.44,5.44,5.43
30.38,6.67,1.22,6.67,1.22,-1.22,-1.08,-1.32,5.45,5.45,5.45
30.68,6.64,1.17,6.64,1.17,-1.17,-1.07,-1.32,5.46,5.46,5.46
30.99,6.59,1.12,6.59,1.12,-1.12,-1.07,-1.32,5.47,5.47,5.48
31.30,6.54,1.06,6.54,1.06,-1.07,-1.05,-1.31,5.47,5.47,5.48
31.61,6.49,1.00,6.49,1.01,-1.01,-1.04,-1.30,5.48,5.48,5.49
31.93,6.43,0.95,6.43,0.95,-0.96,-1.02,-1.29,5.48,5.48,5.49
32.24,6.38,0.90,6.38,0.90,-0.89,-1.00,-1.28,5.48,5.48,5.48
32.57,6.32,0.84,6.32,0.84,-0.83,-0.97,-1.26,5.49,5.49,5.48
32.89,6.25,0.78,6.25,0.78,-0.76,-0.94,-1.24,5.49,5.49,5.47
33.22,6.19,0.71,6.19,0.71,-0.70,-0.91,-1.22,5.50,5.50,5.48
33.55,6.13,0.64,6.13,0.64,-0.63,-0.88,-1.19,5.49,5.49,5.49
33.89,6.07,0.57,6.07,0.57,-0.58,-0.84,-1.16,5.49,5.49,5.50
34.23,6.01,0.51,6.01,0.51,-0.54,-0.80,-1.14,5.47,5.47,5.50
34.57,5.96,0.47,5.96,0.48,-0.51,-0.76,-1.11,5.45,5.45,5.49
34.92,5.92,0.46,5.92,0.46,-0.49,-0.72,-1.07,5.43,5.43,5.46
35.27,5.89,0.47,5.89,0.47,-0.48,-0.68,-1.04,5.41,5.41,5.42
35.62,5.88,0.49,5.88,0.49,-0.48,-0.64,-1.00,5.40,5.40,5.38
35.97,5.87,0.51,5.87,0.51,-0.48,-0.59,-0.97,5.39,5.39,5.35
36.33,5.87,0.51,5.87,0.51,-0.48,-0.55,-0.93,5.39,5.39,5.36
36.70,5.88,0.50,5.88,0.50,-0.48,-0.51,-0.89,5.40,5.40,5.38
37.06,5.88,0.48,5.88,0.48,-0.47,-0.46,-0.85,5.41,5.41,5.41
37.43,5.88,0.45,5.88,0.45,-0.46,-0.42,-0.81,5.43,5.42,5.44
37.81,5.88,0.42,5.88,0.42,-0.44,-0.38,-0.76,5.44,5.44,5.46
38.19,5.87,0.40,5.87,0.40,-0.41,-0.34,-0.72,5.46,5.46,5.47
38.57,5.86,0.39,5.86,0.38,-0.39,-0.30,-0.68,5.48,5.48,5.48
38.95,5.85,0.36,5.85,0.36,-0.36,-0.26,-0.64,5.49,5.49,5.49
39.34,5.83,0.34,5.83,0.34,-0.34,-0.22,-0.59,5.50,5.50,5.50
39.74,5.82,0.31,5.82,0.31,-0.31,-0.19,-0.55,5.50,5.50,5.50
40.14,5.79,0.28,5.79,0.28,-0.29,-0.15,-0.50,5.51,5.51,5.51
40.54,5.76,0.25,5.76,0.25,-0.25,-0.11,-0.46,5.51,5.51,5.51
40.94,5.73,0.22,5.73,0.22,-0.22,-0.08,-0.42,5.51,5.51,5.51
41.35,5.69,0.19,5.69,0.19,-0.18,-0.05,-0.37,5.51,5.51,5.50
41.76,5.65,0.14,5.64,0.14,-0.13,-0.01,-0.33,5.51,5.51,5.50
42.18,5.59,0.09,5.59,0.09,-0.08,0.02,-0.28,5.51,5.51,5.50
42.60,5.54,0.04,5.54,0.04,-0.04,0.05,-0.24,5.51,5.51,5.51
43.03,5.49,-0.02,5.49,-0.02,0.01,0.08,-0.20,5.50,5.51,5.51
43.46,5.44,-0.07,5.44,-0.07,0.06,0.11,-0.15,5.50,5.50,5.51
43.90,5.40,-0.11,5.40,-0.11,0.11,0.14,-0.11,5.51,5.51,5.51
44.33,5.36,-0.16,5.36,-0.15,0.15,0.17,-0.06,5.51,5.51,5.52
44.78,5.33,-0.19,5.33,-0.19,0.18,0.20,-0.02,5.51,5.51,5.52
45.23,5.31,-0.21,5.31,-0.21,0.20,0.22,0.02,5.51,5.51,5.52
45.68,5.29,-0.23,5.29,-0.23,0.22,0.25,0.07,5.52,5.52,5.52
46.13,5.28,-0.24,5.28,-0.24,0.24,0.28,0.11,5.52,5.52,5.52
46.60,5.27,-0.25,5.27,-0.25,0.26,0.30,0.15,5.52,5.52,5.51
47.06,5.25,-0.26,5.25,-0.26,0.27,0.33,0.20,5.52,5.52,5.51
47.53,5.23,-0.27,5.23,-0.27,0.28,0.35,0.24,5.51,5.51,5.51
48.01,5.21,-0.29,5.21,-0.29,0.29,0.38,0.28,5.50,5.50,5.50
48.49,5.19,-0.31,5.19,-0.31,0.30,0.40,0.32,5.49,5.49,5.50
48.97,5.17,-0.32,5.17,-0.32,0.32,0.42,0.37,5.49,5.49,5.50
49.46,5.16,-0.34,5.16,-0.34,0.33,0.45,0.41,5.49,5.49,5.49
49.96,5.14,-0.35,5.14,-0.35,0.35,0.47,0.45,5.49,5.49,5.49
50.46,5.12,-0.37,5.12,-0.37,0.38,0.49,0.49,5.50,5.50,5.49
50.96,5.10,-0.39,5.09,-0.39,0.40,0.52,0.53,5.50,5.50,5.48
51.47,5.06,-0.42,5.06,-0.42,0.44,0.54,0.57,5.50,5.49,5.48
51.99,5.01,-0.47,5.01,-0.46,0.47,0.56,0.62,5.48,5.48,5.48
52.51,4.97,-0.51,4.97,-0.51,0.51,0.58,0.66,5.47,5.47,5.48
53.03,4.92,-0.55,4.92,-0.55,0.54,0.61,0.70,5.46,5.46,5.47
53.56,4.88,-0.59,4.88,-0.59,0.57,0.63,0.73,5.46,5.46,5.47
54.10,4.85,-0.61,4.85,-0.61,0.60,0.65,0.77,5.45,5.45,5.47
54.64,4.83,-0.63,4.83,-0.63,0.62,0.67,0.81,5.46,5.46,5.47
55.18,4.82,-0.65,4.82,-0.64,0.64,0.70,0.85,5.46,5.47,5.47
55.74,4.81,-0.65,4.81,-0.66,0.66,0.72,0.88,5.48,5.48,5.47
56.29,4.80,-0.67,4.80,-0.67,0.68,0.74,0.92,5.48,5.48,5.47
56.86,4.78,-0.69,4.78,-0.69,0.70,0.76,0.95,5.49,5.48,5.47
57.42,4.75,-0.72,4.75,-0.72,0.72,0.78,0.99,5.48,5.48,5.47
58.00,4.72,-0.75,4.72,-0.75,0.75,0.81,1.02,5.47,5.47,5.47
58.58,4.68,-0.78,4.68,-0.78,0.77,0.83,1.05,5.46,5.46,5.47
59.16,4.65,-0.81,4.65,-0.81,0.80,0.85,1.08,5.45,5.45,5.46
59.76,4.63,-0.83,4.63,-0.83,0.83,0.87,1.11,5.45,5.45,5.46
60.35,4.60,-0.86,4.60,-0.86,0.86,0.90,1.14,5.46,5.46,5.46
60.96,4.57,-0.88,4.57,-0.88,0.89,0.92,1.16,5.46,5.46,5.45
61.57,4.54,-0.91,4.54,-0.91,0.92,0.94,1.18,5.46,5.46,5.45
62.18,4.50,-0.94,4.50,-0.94,0.95,0.97,1.21,5.45,5.45,5.44
62.80,4.45,-0.98,4.45,-0.98,0.98,0.99,1.23,5.43,5.44,5.44
63.43,4.41,-1.02,4.41,-1.02,1.02,1.01,1.25,5.42,5.42,5.43
64.07,4.36,-1.06,4.37,-1.06,1.05,1.04,1.27,5.41,5.42,5.42
64.71,4.33,-1.09,4.33,-1.09,1.08,1.06,1.28,5.41,5.41,5.42
65.35,4.30,-1.12,4.30,-1.12,1.12,1.09,1.30,5.42,5.42,5.42
66.01,4.27,-1.15,4.27,-1.15,1.15,1.11,1.31,5.42,5.42,5.42
66.67,4.23,-1.18,4.23,-1.18,1.19,1.14,1.33,5.42,5.42,5.41
67.33,4.19,-1.21,4.19,-1.22,1.22,1.16,1.34,5.41,5.41,5.41
68.01,4.15,-1.25,4.15,-1.25,1.26,1.19,1.35,5.41,5.41,5.40
68.69,4.11,-1.29,4.11,-1.29,1.29,1.21,1.36,5.40,5.40,5.40
69.37,4.06,-1.33,4.06,-1.33,1.33,1.24,1.37,5.39,5.39,5.40
70.07,4.02,-1.37,4.02,-1.37,1.37,1.27,1.38,5.39,5.39,5.39
70.77,3.98,-1.41,3.98,-1.41,1.40,1.30,1.39,5.38,5.38,5.38
71.48,3.94,-1.44,3.94,-1.44,1.44,1.33,1.40,5.38,5.38,5.38
72.19,3.90,-1.47,3.90,-1.47,1.47,1.36,1.41,5.37,5.37,5.37
72.91,3.87,-1.50,3.87,-1.50,1.50,1.39,1.41,5.36,5.36,5.37
73.64,3.83,-1.53,3.83,-1.53,1.53,1.43,1.42,5.36,5.36,5.36
74.38,3.80,-1.56,3.80,-1.56,1.56,1.46,1.43,5.36,5.36,5.36
75.12,3.77,-1.59,3.77,-1.59,1.59,1.50,1.44,5.36,5.36,5.35
75.87,3.73,-1.62,3.73,-1.62,1.63,1.54,1.45,5.36,5.35,5.35
76.63,3.69,-1.65,3.69,-1.65,1.66,1.58,1.46,5.35,5.35,5.34
77.40,3.64,-1.69,3.64,-1.69,1.70,1.62,1.47,5.34,5.34,5.34
78.17,3.60,-1.74,3.59,-1.74,1.74,1.67,1.48,5.33,5.33,5.33
78.95,3.55,-1.78,3.55,-1.78,1.77,1.72,1.49,5.32,5.32,5.33
79.74,3.50,-1.82,3.50,-1.82,1.81,1.77,1.51,5.30,5.30,5.32
80.54,3.45,-1.85,3.45,-1.85,1.84,1.83,1.52,5.29,5.29,5.31
81.35,3.41,-1.89,3.42,-1.88,1.86,1.89,1.54,5.28,5.28,5.30
82.16,3.38,-1.91,3.38,-1.91,1.89,1.96,1.55,5.28,5.28,5.29
82.98,3.34,-1.94,3.35,-1.94,1.93,2.03,1.57,5.28,5.28,5.28
83.81,3.30,-1.97,3.30,-1.97,1.99,2.11,1.59,5.30,5.30,5.28
84.65,3.24,-2.03,3.24,-2.03,2.07,2.19,1.61,5.32,5.32,5.27
85.50,3.16,-2.11,3.16,-2.11,2.18,2.27,1.63,5.34,5.34,5.27
86.35,3.05,-2.22,3.04,-2.23,2.30,2.35,1.65,5.35,5.34,5.26
87.22,2.89,-2.37,2.88,-2.38,2.43,2.41,1.67,5.32,5.31,5.26
88.09,2.70,-2.55,2.70,-2.56,2.55,2.46,1.70,5.25,5.25,5.25
88.97,2.53,-2.72,2.52,-2.72,2.64,2.49,1.72,5.17,5.17,5.25
89.86,2.38,-2.86,2.41,-2.83,2.71,2.51,1.75,5.09,5.12,5.24
90.76,2.37,-2.86,2.38,-2.85,2.74,2.50,1.78,5.11,5.12,5.23
91.66,2.43,-2.79,2.43,-2.79,2.75,2.48,1.81,5.18,5.18,5.22
92.58,2.54,-2.67,2.53,-2.68,2.72,2.45,1.84,5.26,5.25,5.21
93.51,2.65,-2.55,2.64,-2.57,2.65,2.42,1.87,5.30,5.28,5.20
94.44,2.73,-2.47,2.72,-2.48,2.54,2.40,1.90,5.26,5.26,5.20
95.39,2.78,-2.41,2.77,-2.41,2.40,2.37,1.94,5.18,5.18,5.19
96.34,2.83,-2.35,2.83,-2.34,2.25,2.35,1.98,5.08,5.09,5.18
97.30,2.91,-2.26,2.94,-2.23,2.12,2.33,2.01,5.03,5.05,5.17
98.28,3.07,-2.09,3.09,-2.07,2.01,2.32,2.05,5.09,5.10,5.16
99.26,3.27,-1.89,3.27,-1.88,1.94,2.32,2.09,5.21,5.22,5.15
100.25,3.43,-1.72,3.40,-1.75,1.91,2.32,2.13,5.34,5.31,5.14
101.25,3.45,-1.69,3.41,-1.72,1.91,2.32,2.17,5.36,5.33,5.14
102.27,3.30,-1.83,3.29,-1.83,1.94,2.32,2.21,5.24,5.24,5.13
103.29,3.09,-2.03,3.10,-2.02,2.00,2.33,2.25,5.09,5.10,5.12
104.32,2.87,-2.23,2.91,-2.20,2.09,2.34,2.29,4.96,4.99,5.11
105.37,2.77,-2.33,2.77,-2.32,2.18,2.36,2.33,4.95,4.96,5.10
106.42,2.70,-2.38,2.71,-2.38,2.28,2.37,2.38,4.98,4.99,5.08
107.48,2.69,-2.39,2.69,-2.39,2.36,2.39,2.42,5.05,5.05,5.07
108.56,2.68,-2.38,2.67,-2.39,2.42,2.40,2.46,5.10,5.09,5.06
109.64,2.65,-2.40,2.65,-2.40,2.46,2.42,2.50,5.11,5.10,5.05
110.74,2.61,-2.43,2.61,-2.43,2.47,2.44,2.54,5.08,5.08,5.04
111.85,2.56,-2.47,2.56,-2.47,2.48,2.46,2.58,5.04,5.04,5.03
112.97,2.51,-2.51,2.51,-2.51,2.50,2.48,2.61,5.01,5.01,5.02
114.10,2.46,-2.55,2.47,-2.54,2.52,2.50,2.65,4.98,4.99,5.01
115.24,2.44,-2.56,2.44,-2.56,2.54,2.52,2.68,4.98,4.98,5.00
116.39,2.42,-2.57,2.42,-2.57,2.56,2.55,2.71,4.98,4.98,4.99
117.55,2.40,-2.57,2.40,-2.58,2.58,2.57,2.74,4.99,4.98,4.98
118.73,2.38,-2.59,2.38,-2.59,2.60,2.59,2.77,4.98,4.98,4.97
119.92,2.36,-2.60,2.36,-2.60,2.61,2.61,2.80,4.97,4.97,4.96
121.12,2.33,-2.62,2.33,-2.62,2.63,2.64,2.82,4.95,4.95,4.95
122.33,2.29,-2.64,2.29,-2.64,2.65,2.66,2.84,4.94,4.94,4.93
123.55,2.25,-2.67,2.25,-2.67,2.67,2.68,2.86,4.92,4.92,4.92
124.79,2.21,-2.70,2.21,-2.70,2.70,2.71,2.87,4.91,4.91,4.91
126.03,2.16,-2.73,2.16,-2.73,2.73,2.73,2.88,4.89,4.89,4.89
127.29,2.12,-2.76,2.12,-2.76,2.76,2.75,2.89,4.88,4.88,4.88
128.57,2.07,-2.79,2.07,-2.79,2.79,2.78,2.90,4.86,4.86,4.86
129.85,2.03,-2.83,2.02,-2.83,2.82,2.80,2.90,4.85,4.85,4.85
131.15,1.98,-2.86,1.98,-2.86,2.86,2.83,2.90,4.84,4.84,4.84
132.46,1.94,-2.89,1.94,-2.89,2.89,2.85,2.90,4.82,4.82,4.83
133.79,1.89,-2.92,1.89,-2.92,2.92,2.87,2.90,4.81,4.81,4.81
135.12,1.85,-2.95,1.85,-2.95,2.95,2.90,2.89,4.80,4.80,4.80
136.48,1.81,-2.98,1.81,-2.98,2.98,2.92,2.89,4.79,4.79,4.79
137.84,1.77,-3.00,1.77,-3.00,3.00,2.94,2.88,4.77,4.77,4.77
139.22,1.73,-3.03,1.73,-3.03,3.03,2.96,2.87,4.76,4.76,4.76
140.61,1.69,-3.05,1.69,-3.05,3.06,2.99,2.86,4.75,4.75,4.74
142.02,1.65,-3.08,1.65,-3.08,3.08,3.01,2.85,4.73,4.73,4.73
143.44,1.61,-3.11,1.61,-3.11,3.11,3.03,2.83,4.72,4.72,4.72
144.87,1.57,-3.13,1.57,-3.13,3.13,3.05,2.82,4.70,4.70,4.70
146.32,1.54,-3.15,1.54,-3.15,3.14,3.07,2.81,4.68,4.68,4.69
147.78,1.50,-3.17,1.51,-3.17,3.16,3.10,2.79,4.66,4.67,4.67
149.26,1.48,-3.18,1.48,-3.18,3.17,3.12,2.78,4.65,4.65,4.66
150.75,1.45,-3.19,1.45,-3.19,3.19,3.14,2.77,4.64,4.64,4.64
152.26,1.43,-3.20,1.43,-3.20,3.20,3.16,2.76,4.63,4.63,4.63
153.78,1.40,-3.20,1.40,-3.21,3.21,3.18,2.75,4.62,4.62,4.61
155.32,1.38,-3.22,1.37,-3.22,3.22,3.20,2.74,4.60,4.60,4.59
156.88,1.34,-3.24,1.34,-3.24,3.24,3.22,2.73,4.58,4.58,4.58
158.44,1.30,-3.26,1.30,-3.26,3.26,3.24,2.72,4.56,4.56,4.56
160.03,1.27,-3.28,1.27,-3.28,3.27,3.25,2.72,4.54,4.54,4.54
161.63,1.23,-3.30,1.23,-3.30,3.29,3.27,2.72,4.52,4.52,4.53
163.24,1.19,-3.32,1.19,-3.32,3.31,3.29,2.71,4.51,4.51,4.51
164.88,1.16,-3.33,1.16,-3.33,3.33,3.31,2.71,4.49,4.49,4.49
166.53,1.12,-3.35,1.12,-3.35,3.35,3.32,2.71,4.48,4.48,4.48
168.19,1.09,-3.37,1.09,-3.37,3.37,3.34,2.72,4.46,4.46,4.46
169.87,1.05,-3.39,1.05,-3.39,3.39,3.36,2.72,4.44,4.44,4.44
171.57,1.02,-3.41,1.02,-3.41,3.41,3.37,2.73,4.43,4.43,4.43
173.29,0.98,-3.43,0.98,-3.43,3.43,3.39,2.74,4.41,4.41,4.41
175.02,0.95,-3.44,0.95,-3.44,3.44,3.40,2.76,4.39,4.39,4.39
176.77,0.91,-3.46,0.91,-3.46,3.46,3.42,2.77,4.37,4.37,4.37
178.54,0.88,-3.47,0.88,-3.47,3.47,3.43,2.79,4.35,4.35,4.35
180.32,0.85,-3.48,0.85,-3.48,3.48,3.44,2.80,4.33,4.33,4.33
182.13,0.82,-3.49,0.82,-3.49,3.49,3.45,2.82,4.31,4.31,4.31
183.95,0.79,-3.50,0.79,-3.50,3.51,3.47,2.85,4.30,4.30,4.29
185.79,0.76,-3.51,0.76,-3.52,3.52,3.48,2.87,4.28,4.28,4.28
187.65,0.73,-3.53,0.73,-3.53,3.53,3.49,2.90,4.26,4.26,4.26
189.52,0.70,-3.54,0.70,-3.54,3.54,3.50,2.93,4.23,4.24,4.24
191.42,0.67,-3.55,0.67,-3.55,3.55,3.51,2.96,4.21,4.22,4.22
193.33,0.64,-3.56,0.64,-3.56,3.56,3.52,2.99,4.20,4.20,4.20
195.27,0.61,-3.57,0.61,-3.57,3.57,3.52,3.02,4.18,4.18,4.18
197.22,0.58,-3.58,0.58,-3.58,3.58,3.53,3.06,4.16,4.16,4.16
199.19,0.54,-3.59,0.54,-3.59,3.60,3.54,3.10,4.14,4.14,4.14
201.18,0.51,-3.61,0.51,-3.61,3.61,3.54,3.14,4.12,4.12,4.12
203.19,0.47,-3.63,0.47,-3.63,3.63,3.55,3.17,4.09,4.09,4.09
205.23,0.42,-3.65,0.42,-3.65,3.65,3.56,3.21,4.07,4.07,4.07
207.28,0.38,-3.67,0.38,-3.67,3.68,3.56,3.26,4.05,4.05,4.05
209.35,0.33,-3.70,0.33,-3.70,3.70,3.56,3.30,4.04,4.04,4.03
211.44,0.28,-3.73,0.28,-3.73,3.74,3.57,3.34,4.02,4.02,4.01
213.56,0.23,-3.76,0.23,-3.76,3.77,3.57,3.38,4.00,4.00,3.99
215.69,0.17,-3.79,0.17,-3.79,3.80,3.57,3.42,3.98,3.97,3.97
217.85,0.11,-3.83,0.11,-3.83,3.84,3.57,3.46,3.95,3.95,3.94
220.03,0.06,-3.86,0.06,-3.86,3.86,3.57,3.50,3.92,3.92,3.92
222.23,0.02,-3.88,0.02,-3.88,3.87,3.57,3.54,3.89,3.89,3.90
224.45,-0.01,-3.89,-0.01,-3.88,3.87,3.57,3.57,3.85,3.85,3.87
226.70,-0.02,-3.87,-0.02,-3.87,3.84,3.57,3.61,3.82,3.82,3.85
228.96,-0.00,-3.83,-0.00,-3.83,3.79,3.57,3.64,3.79,3.79,3.82
231.25,0.04,-3.76,0.04,-3.76,3.73,3.57,3.67,3.77,3.77,3.80
233.57,0.10,-3.67,0.11,-3.67,3.66,3.56,3.69,3.76,3.76,3.78
235.90,0.19,-3.56,0.18,-3.57,3.57,3.56,3.71,3.76,3.76,3.75
238.26,0.26,-3.46,0.26,-3.46,3.49,3.56,3.73,3.75,3.75,3.73
240.64,0.33,-3.37,0.33,-3.38,3.41,3.55,3.75,3.74,3.73,3.70
243.05,0.37,-3.31,0.37,-3.31,3.34,3.55,3.76,3.71,3.71,3.68
245.48,0.39,-3.27,0.39,-3.27,3.29,3.54,3.77,3.67,3.67,3.66
247.93,0.39,-3.24,0.39,-3.24,3.25,3.53,3.77,3.64,3.64,3.63
250.41,0.38,-3.22,0.38,-3.22,3.23,3.52,3.77,3.61,3.61,3.60
252.92,0.36,-3.22,0.36,-3.22,3.22,3.52,3.76,3.58,3.58,3.58
255.45,0.33,-3.22,0.33,-3.22,3.22,3.51,3.75,3.55,3.55,3.55
258.00,0.30,-3.23,0.30,-3.23,3.22,3.50,3.74,3.52,3.52,3.53
260.58,0.26,-3.24,0.26,-3.24,3.23,3.49,3.72,3.49,3.49,3.50
263.19,0.23,-3.24,0.23,-3.24,3.24,3.48,3.70,3.47,3.47,3.47
265.82,0.20,-3.25,0.20,-3.25,3.24,3.47,3.67,3.44,3.44,3.45
268.48,0.17,-3.25,0.17,-3.25,3.25,3.45,3.65,3.42,3.42,3.42
271.16,0.14,-3.25,0.14,-3.25,3.25,3.44,3.61,3.39,3.39,3.39
273.87,0.11,-3.25,0.11,-3.25,3.25,3.43,3.58,3.36,3.36,3.36
276.61,0.09,-3.25,0.09,-3.25,3.25,3.42,3.54,3.33,3.33,3.33
279.38,0.06,-3.24,0.06,-3.24,3.24,3.40,3.50,3.31,3.30,3.30
282.17,0.04,-3.24,0.04,-3.24,3.24,3.39,3.46,3.28,3.28,3.28
284.99,0.01,-3.23,0.01,-3.23,3.23,3.37,3.41,3.25,3.25,3.25
287.84,-0.01,-3.23,-0.01,-3.23,3.23,3.36,3.37,3.22,3.22,3.22
290.72,-0.03,-3.22,-0.03,-3.22,3.22,3.34,3.32,3.19,3.19,3.19
293.63,-0.06,-3.21,-0.06,-3.21,3.21,3.32,3.27,3.16,3.16,3.16
296.57,-0.08,-3.20,-0.08,-3.20,3.20,3.31,3.23,3.13,3.13,3.13
299.53,-0.10,-3.19,-0.10,-3.19,3.19,3.29,3.18,3.10,3.10,3.10
302.53,-0.12,-3.18,-0.12,-3.18,3.18,3.27,3.13,3.06,3.06,3.07
305.55,-0.14,-3.17,-0.14,-3.17,3.17,3.25,3.08,3.03,3.03,3.03
308.61,-0.15,-3.16,-0.15,-3.16,3.16,3.23,3.04,3.00,3.00,3.00
311.69,-0.17,-3.14,-0.17,-3.14,3.15,3.22,2.99,2.97,2.97,2.97
314.81,-0.19,-3.13,-0.19,-3.13,3.13,3.20,2.95,2.94,2.94,2.94
317.96,-0.21,-3.12,-0.21,-3.12,3.12,3.18,2.90,2.91,2.91,2.91
321.14,-0.23,-3.11,-0.23,-3.11,3.11,3.16,2.86,2.88,2.88,2.88
324.35,-0.25,-3.09,-0.25,-3.09,3.09,3.13,2.82,2.84,2.84,2.85
327.59,-0.27,-3.08,-0.27,-3.08,3.08,3.11,2.78,2.81,2.81,2.81
330.87,-0.28,-3.07,-0.28,-3.07,3.07,3.09,2.74,2.78,2.78,2.78
334.18,-0.30,-3.05,-0.30,-3.05,3.05,3.07,2.71,2.75,2.75,2.75
337.52,-0.32,-3.04,-0.32,-3.04,3.04,3.05,2.67,2.72,2.72,2.72
340.90,-0.34,-3.02,-0.34,-3.02,3.02,3.03,2.64,2.68,2.68,2.68
344.30,-0.35,-3.01,-0.35,-3.01,3.01,3.00,2.61,2.65,2.65,2.65
347.75,-0.37,-2.99,-0.37,-2.99,2.99,2.98,2.58,2.62,2.62,2.62
351.23,-0.38,-2.97,-0.38,-2.97,2.97,2.96,2.55,2.59,2.59,2.59
354.74,-0.40,-2.96,-0.40,-2.96,2.96,2.93,2.53,2.56,2.56,2.56
358.28,-0.41,-2.94,-0.41,-2.94,2.94,2.91,2.51,2.53,2.53,2.53
361.87,-0.43,-2.93,-0.43,-2.93,2.93,2.88,2.48,2.50,2.50,2.50
365.49,-0.45,-2.91,-0.45,-2.91,2.91,2.86,2.47,2.46,2.46,2.46
369.14,-0.46,-2.89,-0.46,-2.89,2.89,2.83,2.45,2.43,2.43,2.43
372.83,-0.48,-2.87,-0.48,-2.87,2.87,2.81,2.43,2.40,2.40,2.40
376.56,-0.49,-2.86,-0.49,-2.86,2.86,2.78,2.42,2.36,2.36,2.36
380.33,-0.51,-2.84,-0.51,-2.84,2.84,2.76,2.41,2.33,2.33,2.33
384.13,-0.52,-2.82,-0.52,-2.82,2.82,2.73,2.40,2.29,2.29,2.29
387.97,-0.54,-2.79,-0.54,-2.80,2.79,2.71,2.39,2.26,2.26,2.26
391.85,-0.55,-2.77,-0.55,-2.77,2.77,2.68,2.38,2.22,2.22,2.22
395.77,-0.57,-2.75,-0.57,-2.75,2.75,2.66,2.38,2.18,2.18,2.18
399.73,-0.58,-2.72,-0.58,-2.72,2.72,2.63,2.38,2.14,2.14,2.14
403.72,-0.59,-2.70,-0.59,-2.70,2.70,2.60,2.37,2.11,2.11,2.11
407.76,-0.61,-2.67,-0.61,-2.67,2.67,2.58,2.37,2.07,2.07,2.07
411.84,-0.62,-2.65,-0.62,-2.64,2.65,2.55,2.37,2.03,2.03,2.03
415.96,-0.63,-2.62,-0.63,-2.62,2.62,2.52,2.37,1.99,1.99,1.99
420.12,-0.64,-2.59,-0.64,-2.59,2.59,2.50,2.37,1.95,1.95,1.95
424.32,-0.66,-2.56,-0.66,-2.56,2.56,2.47,2.38,1.90,1.90,1.91
428.56,-0.67,-2.53,-0.67,-2.53,2.53,2.44,2.38,1.86,1.86,1.86
432.85,-0.68,-2.50,-0.68,-2.50,2.50,2.41,2.38,1.82,1.82,1.82
437.18,-0.69,-2.47,-0.69,-2.47,2.47,2.39,2.39,1.78,1.78,1.78
441.55,-0.70,-2.44,-0.70,-2.44,2.44,2.36,2.39,1.74,1.74,1.74
445.96,-0.71,-2.41,-0.71,-2.41,2.41,2.33,2.39,1.70,1.70,1.70
450.42,-0.73,-2.38,-0.73,-2.38,2.38,2.30,2.39,1.65,1.65,1.65
454.93,-0.74,-2.35,-0.74,-2.35,2.35,2.28,2.40,1.61,1.61,1.61
459.48,-0.75,-2.32,-0.75,-2.32,2.32,2.25,2.40,1.57,1.57,1.57
464.07,-0.76,-2.28,-0.76,-2.28,2.28,2.22,2.40,1.52,1.52,1.52
468.71,-0.77,-2.25,-0.77,-2.25,2.25,2.19,2.40,1.48,1.48,1.48
473.40,-0.78,-2.22,-0.78,-2.21,2.21,2.16,2.40,1.43,1.43,1.43
478.13,-0.79,-2.18,-0.79,-2.18,2.18,2.13,2.39,1.39,1.39,1.39
482.91,-0.80,-2.14,-0.80,-2.14,2.14,2.11,2.39,1.35,1.35,1.34
487.74,-0.80,-2.10,-0.80,-2.10,2.10,2.08,2.38,1.30,1.30,1.30
492.62,-0.81,-2.07,-0.81,-2.07,2.07,2.05,2.37,1.26,1.26,1.25
497.55,-0.82,-2.03,-0.82,-2.03,2.03,2.02,2.36,1.21,1.21,1.21
502.52,-0.83,-1.99,-0.83,-1.99,1.99,1.99,2.35,1.16,1.16,1.16
507.55,-0.84,-1.96,-0.84,-1.96,1.96,1.96,2.34,1.12,1.12,1.12
512.62,-0.85,-1.92,-0.85,-1.92,1.92,1.93,2.32,1.07,1.07,1.07
517.75,-0.86,-1.89,-0.86,-1.89,1.89,1.90,2.31,1.02,1.02,1.02
522.93,-0.88,-1.85,-0.88,-1.85,1.85,1.87,2.29,0.97,0.97,0.98
528.16,-0.89,-1.81,-0.89,-1.81,1.81,1.84,2.27,0.93,0.93,0.93
533.44,-0.90,-1.78,-0.90,-1.78,1.78,1.81,2.25,0.88,0.88,0.88
538.77,-0.91,-1.74,-0.91,-1.74,1.74,1.77,2.22,0.83,0.83,0.83
544.16,-0.92,-1.70,-0.92,-1.70,1.70,1.74,2.20,0.79,0.79,0.78
549.60,-0.93,-1.66,-0.93,-1.66,1.66,1.71,2.17,0.74,0.74,0.74
555.10,-0.94,-1.63,-0.94,-1.63,1.63,1.68,2.15,0.69,0.69,0.69
