frequency,raw,error,smoothed,error_smoothed,equalization,parametric_eq,fixed_band_eq,equalized_raw,equalized_smoothed,target
20.00,10.40,-1.93,10.40,-1.93,1.92,-0.02,0.49,12.32,12.32,12.33
20.20,10.42,-1.90,10.42,-1.90,1.90,-0.02,0.50,12.32,12.32,12.33
20.40,10.44,-1.88,10.44,-1.88,1.88,-0.02,0.52,12.33,12.33,12.33
20.61,10.46,-1.86,10.46,-1.86,1.87,-0.02,0.53,12.33,12.33,12.32
20.81,10.48,-1.84,10.48,-1.84,1.85,-0.02,0.55,12.33,12.33,12.32
21.02,10.49,-1.83,10.49,-1.83,1.83,-0.02,0.56,12.33,12.33,12.32
21.23,10.51,-1.81,10.51,-1.81,1.81,-0.02,0.58,12.32,12.32,12.32
21.44,10.52,-1.80,10.52,-1.80,1.80,-0.02,0.60,12.31,12.31,12.31
21.66,10.53,-1.78,10.53,-1.78,1.78,-0.02,0.62,12.31,12.31,12.31
21.87,10.54,-1.77,10.54,-1.76,1.76,-0.02,0.64,12.30,12.30,12.30
22.09,10.55,-1.75,10.55,-1.75,1.74,-0.02,0.66,12.29,12.29,12.30
22.31,10.56,-1.72,10.56,-1.72,1.72,-0.02,0.67,12.29,12.29,12.29
22.54,10.58,-1.70,10.58,-1.70,1.70,-0.02,0.69,12.28,12.28,12.28
22.76,10.59,-1.67,10.59,-1.67,1.67,-0.02,0.72,12.27,12.27,12.27
22.99,10.61,-1.65,10.61,-1.65,1.65,-0.02,0.74,12.26,12.26,12.26
23.22,10.62,-1.62,10.62,-1.62,1.62,-0.02,0.76,12.25,12.25,12.25
23.45,10.64,-1.60,10.64,-1.60,1.60,-0.02,0.78,12.24,12.24,12.23
23.69,10.65,-1.57,10.65,-1.57,1.57,-0.02,0.80,12.22,12.22,12.22
23.92,10.66,-1.55,10.66,-1.55,1.55,-0.02,0.83,12.21,12.21,12.21
24.16,10.67,-1.52,10.67,-1.52,1.52,-0.02,0.85,12.20,12.20,12.20
24.40,10.68,-1.50,10.68,-1.50,1.50,-0.02,0.87,12.19,12.19,12.18
24.65,10.69,-1.48,10.69,-1.48,1.48,-0.02,0.90,12.17,12.17,12.17
24.89,10.70,-1.46,10.70,-1.46,1.46,-0.03,0.92,12.16,12.16,12.16
25.14,10.71,-1.44,10.71,-1.44,1.44,-0.03,0.95,12.15,12.15,12.15
25.39,10.72,-1.42,10.72,-1.42,1.42,-0.03,0.97,12.15,12.15,12.15
25.65,10.73,-1.41,10.73,-1.41,1.41,-0.03,0.99,12.14,12.14,12.14
25.91,10.74,-1.39,10.74,-1.39,1.39,-0.03,1.02,12.13,12.13,12.13
26.16,10.74,-1.38,10.74,-1.38,1.38,-0.03,1.04,12.12,12.12,12.12
26.43,10.75,-1.36,10.75,-1.36,1.36,-0.03,1.07,12.11,12.11,12.11
26.69,10.76,-1.35,10.76,-1.35,1.35,-0.03,1.09,12.10,12.10,12.10
26.96,10.76,-1.33,10.76,-1.33,1.33,-0.03,1.12,12.09,12.09,12.09
27.23,10.76,-1.32,10.76,-1.32,1.32,-0.03,1.14,12.08,12.08,12.08
27.50,10.77,-1.30,10.77,-1.30,1.30,-0.03,1.16,12.07,12.07,12.07
27.77,10.77,-1.29,10.77,-1.29,1.29,-0.03,1.18,12.06,12.06,12.06
28.05,10.78,-1.27,10.78,-1.27,1.27,-0.03,1.20,12.05,12.05,12.05
28.33,10.78,-1.25,10.78,-1.25,1.25,-0.03,1.22,12.04,12.04,12.04
28.62,10.79,-1.24,10.79,-1.24,1.24,-0.03,1.24,12.02,12.02,12.02
28.90,10.79,-1.22,10.79,-1.22,1.22,-0.03,1.26,12.01,12.01,12.01
29.19,10.79,-1.20,10.79,-1.20,1.20,-0.04,1.27,12.00,12.00,12.00
29.48,10.80,-1.19,10.80,-1.19,1.19,-0.04,1.29,11.99,11.99,11.98
29.78,10.80,-1.17,10.80,-1.17,1.17,-0.04,1.30,11.97,11.97,11.97
30.08,10.80,-1.16,10.80,-1.16,1.16,-0.04,1.31,11.96,11.96,11.96
30.38,10.81,-1.15,10.81,-1.15,1.15,-0.04,1.32,11.95,11.95,11.95
30.68,10.81,-1.13,10.81,-1.13,1.13,-0.04,1.33,11.94,11.94,11.94
30.99,10.81,-1.12,10.81,-1.12,1.12,-0.04,1.33,11.93,11.93,11.93
31.30,10.82,-1.11,10.82,-1.11,1.11,-0.04,1.34,11.92,11.92,11.92
31.61,10.82,-1.10,10.82,-1.10,1.10,-0.04,1.34,11.92,11.92,11.92
31.93,10.82,-1.08,10.82,-1.08,1.08,-0.04,1.34,11.91,11.91,11.91
32.24,10.83,-1.07,10.83,-1.07,1.07,-0.04,1.34,11.90,11.90,11.90
32.57,10.83,-1.06,10.83,-1.06,1.06,-0.04,1.33,11.89,11.89,11.89
32.89,10.83,-1.05,10.83,-1.05,1.05,-0.05,1.33,11.88,11.88,11.88
33.22,10.83,-1.04,10.83,-1.04,1.04,-0.05,1.32,11.87,11.87,11.87
33.55,10.83,-1.03,10.83,-1.03,1.03,-0.05,1.31,11.85,11.85,11.86
33.89,10.83,-1.02,10.83,-1.02,1.02,-0.05,1.30,11.84,11.84,11.84
34.23,10.82,-1.01,10.82,-1.01,1.01,-0.05,1.29,11.83,11.83,11.83
34.57,10.82,-1.00,10.82,-1.00,1.00,-0.05,1.28,11.82,11.82,11.82
34.92,10.82,-0.99,10.82,-0.99,0.99,-0.05,1.27,11.81,11.81,11.81
35.27,10.82,-0.98,10.82,-0.98,0.98,-0.05,1.25,11.80,11.80,11.80
35.62,10.81,-0.97,10.81,-0.97,0.97,-0.05,1.24,11.79,11.78,11.78
35.97,10.81,-0.96,10.81,-0.96,0.96,-0.05,1.22,11.77,11.77,11.77
36.33,10.80,-0.96,10.80,-0.96,0.96,-0.06,1.20,11.76,11.76,11.76
36.70,10.80,-0.95,10.80,-0.95,0.95,-0.06,1.19,11.75,11.75,11.75
37.06,10.79,-0.94,10.79,-0.94,0.94,-0.06,1.17,11.74,11.74,11.74
37.43,10.79,-0.94,10.79,-0.94,0.94,-0.06,1.15,11.72,11.72,11.72
37.81,10.78,-0.93,10.78,-0.93,0.93,-0.06,1.14,11.71,11.71,11.71
38.19,10.77,-0.92,10.77,-0.92,0.92,-0.06,1.12,11.70,11.70,11.70
38.57,10.77,-0.91,10.77,-0.91,0.91,-0.06,1.10,11.68,11.68,11.68
38.95,10.76,-0.90,10.76,-0.90,0.90,-0.06,1.09,11.66,11.66,11.66
39.34,10.75,-0.89,10.75,-0.89,0.89,-0.07,1.07,11.64,11.64,11.64
39.74,10.75,-0.88,10.75,-0.88,0.88,-0.07,1.05,11.62,11.62,11.62
40.14,10.74,-0.86,10.74,-0.86,0.86,-0.07,1.04,11.60,11.60,11.60
40.54,10.73,-0.85,10.73,-0.85,0.84,-0.07,1.02,11.58,11.58,11.58
40.94,10.73,-0.83,10.73,-0.83,0.83,-0.07,1.01,11.55,11.55,11.56
41.35,10.72,-0.81,10.72,-0.81,0.80,-0.07,1.00,11.53,11.53,11.53
41.76,10.72,-0.78,10.72,-0.78,0.78,-0.07,0.98,11.50,11.50,11.51
42.18,10.72,-0.76,10.72,-0.76,0.76,-0.08,0.97,11.48,11.48,11.48
42.60,10.72,-0.74,10.71,-0.74,0.74,-0.08,0.96,11.46,11.46,11.45
43.03,10.71,-0.72,10.71,-0.72,0.72,-0.08,0.95,11.43,11.43,11.43
43.46,10.70,-0.71,10.70,-0.71,0.71,-0.08,0.94,11.41,11.41,11.41
43.90,10.69,-0.69,10.69,-0.69,0.69,-0.08,0.93,11.38,11.38,11.38
44.33,10.68,-0.68,10.68,-0.68,0.68,-0.08,0.92,11.36,11.36,11.36
44.78,10.67,-0.68,10.67,-0.68,0.68,-0.09,0.91,11.35,11.35,11.34
45.23,10.66,-0.67,10.66,-0.67,0.67,-0.09,0.91,11.33,11.33,11.33
45.68,10.65,-0.67,10.65,-0.67,0.67,-0.09,0.90,11.32,11.32,11.32
46.13,10.63,-0.67,10.63,-0.67,0.67,-0.09,0.89,11.31,11.31,11.30
46.60,10.62,-0.68,10.62,-0.68,0.68,-0.09,0.89,11.30,11.30,11.30
47.06,10.61,-0.68,10.61,-0.68,0.68,-0.10,0.89,11.29,11.29,11.29
47.53,10.59,-0.69,10.59,-0.69,0.68,-0.10,0.88,11.28,11.28,11.28
48.01,10.58,-0.69,10.58,-0.69,0.69,-0.10,0.88,11.27,11.27,11.27
48.49,10.57,-0.69,10.57,-0.69,0.69,-0.10,0.88,11.26,11.26,11.26
48.97,10.56,-0.69,10.56,-0.69,0.69,-0.10,0.88,11.25,11.25,11.25
49.46,10.55,-0.69,10.55,-0.69,0.69,-0.11,0.87,11.24,11.24,11.24
49.96,10.54,-0.68,10.54,-0.69,0.69,-0.11,0.87,11.22,11.22,11.22
50.46,10.52,-0.68,10.52,-0.68,0.68,-0.11,0.87,11.20,11.20,11.20
50.96,10.51,-0.67,10.51,-0.67,0.67,-0.11,0.87,11.18,11.18,11.18
51.47,10.50,-0.66,10.50,-0.66,0.66,-0.12,0.87,11.15,11.15,11.16
51.99,10.49,-0.65,10.48,-0.65,0.64,-0.12,0.87,11.13,11.13,11.13
52.51,10.47,-0.63,10.47,-0.63,0.62,-0.12,0.87,11.10,11.10,11.10
53.03,10.47,-0.61,10.47,-0.61,0.60,-0.12,0.87,11.07,11.07,11.08
53.56,10.46,-0.59,10.46,-0.59,0.58,-0.13,0.88,11.04,11.04,11.05
54.10,10.46,-0.56,10.46,-0.56,0.56,-0.13,0.88,11.02,11.02,11.02
54.64,10.45,-0.54,10.45,-0.54,0.55,-0.13,0.88,11.00,10.99,10.99
55.18,10.44,-0.52,10.43,-0.52,0.53,-0.14,0.87,10.97,10.97,10.95
55.74,10.41,-0.51,10.41,-0.51,0.52,-0.14,0.87,10.93,10.93,10.92
56.29,10.38,-0.51,10.38,-0.51,0.51,-0.14,0.87,10.89,10.89,10.89
56.86,10.35,-0.51,10.35,-0.51,0.50,-0.15,0.87,10.85,10.86,10.86
57.42,10.32,-0.50,10.32,-0.50,0.50,-0.15,0.87,10.82,10.82,10.83
58.00,10.29,-0.50,10.29,-0.50,0.50,-0.15,0.86,10.79,10.79,10.79
58.58,10.27,-0.49,10.26,-0.49,0.49,-0.16,0.86,10.76,10.76,10.76
59.16,10.24,-0.49,10.24,-0.49,0.49,-0.16,0.85,10.73,10.73,10.73
59.76,10.22,-0.48,10.22,-0.48,0.48,-0.16,0.84,10.69,10.69,10.69
60.35,10.19,-0.47,10.19,-0.47,0.47,-0.17,0.84,10.66,10.66,10.66
60.96,10.17,-0.46,10.17,-0.46,0.46,-0.17,0.83,10.63,10.63,10.63
61.57,10.15,-0.45,10.15,-0.45,0.45,-0.17,0.82,10.60,10.60,10.60
62.18,10.13,-0.44,10.13,-0.44,0.44,-0.18,0.80,10.56,10.56,10.56
62.80,10.10,-0.43,10.10,-0.43,0.43,-0.18,0.79,10.53,10.53,10.53
63.43,10.08,-0.41,10.08,-0.41,0.41,-0.19,0.77,10.50,10.50,10.50
64.07,10.06,-0.40,10.06,-0.40,0.40,-0.19,0.76,10.46,10.46,10.46
64.71,10.04,-0.39,10.04,-0.39,0.39,-0.19,0.74,10.42,10.43,10.43
65.35,10.02,-0.37,10.02,-0.37,0.37,-0.20,0.72,10.39,10.39,10.39
66.01,9.99,-0.36,9.99,-0.36,0.36,-0.20,0.70,10.35,10.35,10.35
66.67,9.97,-0.34,9.97,-0.34,0.34,-0.21,0.68,10.31,10.31,10.31
67.33,9.94,-0.33,9.94,-0.33,0.33,-0.21,0.65,10.27,10.27,10.27
68.01,9.91,-0.31,9.91,-0.31,0.31,-0.22,0.63,10.23,10.23,10.23
68.69,9.88,-0.30,9.88,-0.30,0.30,-0.22,0.60,10.18,10.18,10.18
69.37,9.85,-0.29,9.85,-0.29,0.29,-0.23,0.58,10.14,10.14,10.14
70.07,9.82,-0.27,9.82,-0.27,0.27,-0.23,0.55,10.09,10.09,10.09
70.77,9.79,-0.26,9.79,-0.26,0.26,-0.24,0.52,10.05,10.05,10.05
71.48,9.76,-0.24,9.76,-0.24,0.24,-0.25,0.49,10.00,10.00,10.00
72.19,9.73,-0.22,9.73,-0.23,0.23,-0.25,0.46,9.96,9.96,9.96
72.91,9.71,-0.21,9.71,-0.21,0.21,-0.26,0.43,9.91,9.91,9.91
73.64,9.68,-0.19,9.68,-0.19,0.19,-0.26,0.40,9.87,9.87,9.87
74.38,9.65,-0.18,9.65,-0.18,0.17,-0.27,0.37,9.82,9.82,9.82
75.12,9.62,-0.16,9.62,-0.16,0.16,-0.28,0.33,9.78,9.78,9.78
75.87,9.59,-0.14,9.59,-0.14,0.14,-0.28,0.30,9.73,9.73,9.73
76.63,9.57,-0.12,9.57,-0.12,0.12,-0.29,0.27,9.68,9.68,9.69
77.40,9.54,-0.10,9.54,-0.10,0.10,-0.30,0.23,9.64,9.64,9.64
78.17,9.51,-0.08,9.51,-0.08,0.08,-0.30,0.20,9.59,9.59,9.59
78.95,9.48,-0.06,9.48,-0.06,0.06,-0.31,0.16,9.54,9.54,9.54
79.74,9.45,-0.04,9.45,-0.04,0.05,-0.32,0.13,9.49,9.49,9.49
80.54,9.42,-0.03,9.42,-0.03,0.03,-0.33,0.09,9.44,9.44,9.44
81.35,9.38,-0.01,9.38,-0.01,0.01,-0.34,0.06,9.39,9.39,9.39
82.16,9.34,-0.00,9.34,-0.00,0.00,-0.34,0.02,9.34,9.34,9.34
82.98,9.30,0.01,9.30,0.01,-0.01,-0.35,-0.01,9.29,9.29,9.29
83.81,9.26,0.02,9.26,0.02,-0.02,-0.36,-0.05,9.24,9.24,9.23
84.65,9.21,0.03,9.21,0.03,-0.03,-0.37,-0.09,9.18,9.18,9.18
85.50,9.17,0.04,9.17,0.04,-0.04,-0.38,-0.12,9.13,9.13,9.13
86.35,9.12,0.05,9.12,0.05,-0.05,-0.39,-0.16,9.07,9.07,9.07
87.22,9.07,0.06,9.07,0.06,-0.07,-0.40,-0.20,9.01,9.01,9.01
88.09,9.03,0.07,9.03,0.07,-0.08,-0.41,-0.23,8.95,8.95,8.95
88.97,8.98,0.09,8.98,0.09,-0.09,-0.42,-0.27,8.89,8.89,8.90
89.86,8.94,0.11,8.94,0.11,-0.11,-0.43,-0.31,8.83,8.83,8.84
90.76,8.90,0.12,8.90,0.12,-0.12,-0.44,-0.34,8.78,8.78,8.78
91.66,8.85,0.14,8.85,0.14,-0.13,-0.45,-0.38,8.72,8.72,8.71
92.58,8.80,0.15,8.80,0.15,-0.14,-0.47,-0.42,8.66,8.66,8.65
93.51,8.75,0.16,8.75,0.16,-0.15,-0.48,-0.46,8.60,8.60,8.59
94.44,8.69,0.16,8.69,0.16,-0.15,-0.49,-0.49,8.54,8.54,8.53
95.39,8.63,0.16,8.63,0.16,-0.16,-0.50,-0.53,8.47,8.47,8.47
96.34,8.57,0.17,8.57,0.17,-0.17,-0.52,-0.57,8.40,8.40,8.40
97.30,8.51,0.17,8.51,0.17,-0.18,-0.53,-0.61,8.33,8.33,8.34
98.28,8.46,0.18,8.46,0.19,-0.20,-0.54,-0.65,8.25,8.25,8.27
99.26,8.42,0.21,8.42,0.22,-0.23,-0.56,-0.69,8.19,8.19,8.21
100.25,8.40,0.26,8.40,0.26,-0.27,-0.57,-0.72,8.13,8.13,8.14
101.25,8.39,0.32,8.39,0.32,-0.31,-0.59,-0.76,8.07,8.07,8.07
102.27,8.38,0.38,8.38,0.37,-0.37,-0.61,-0.80,8.01,8.01,8.00
103.29,8.36,0.43,8.36,0.43,-0.42,-0.62,-0.84,7.94,7.94,7.93
104.32,8.34,0.48,8.35,0.49,-0.48,-0.64,-0.88,7.86,7.86,7.86
105.37,8.33,0.54,8.33,0.54,-0.54,-0.66,-0.92,7.79,7.79,7.79
106.42,8.32,0.60,8.32,0.60,-0.60,-0.68,-0.95,7.72,7.72,7.72
107.48,8.30,0.66,8.30,0.66,-0.65,-0.70,-0.99,7.65,7.65,7.64
108.56,8.28,0.71,8.28,0.71,-0.70,-0.72,-1.03,7.58,7.58,7.57
109.64,8.25,0.75,8.25,0.75,-0.75,-0.74,-1.06,7.50,7.50,7.49
110.74,8.22,0.80,8.21,0.80,-0.80,-0.76,-1.10,7.42,7.42,7.42
111.85,8.18,0.84,8.18,0.84,-0.85,-0.78,-1.14,7.33,7.33,7.34
112.97,8.15,0.89,8.15,0.89,-0.91,-0.80,-1.17,7.25,7.25,7.26
114.10,8.13,0.95,8.13,0.95,-0.96,-0.82,-1.20,7.17,7.17,7.18
115.24,8.12,1.01,8.12,1.01,-1.02,-0.85,-1.24,7.10,7.10,7.10
116.39,8.10,1.08,8.10,1.08,-1.08,-0.87,-1.27,7.03,7.03,7.02
117.55,8.09,1.14,8.08,1.14,-1.13,-0.90,-1.30,6.95,6.95,6.94
118.73,8.06,1.20,8.06,1.20,-1.19,-0.92,-1.33,6.87,6.87,6.86
119.92,8.02,1.25,8.02,1.25,-1.24,-0.95,-1.36,6.78,6.78,6.78
121.12,7.98,1.29,7.98,1.29,-1.28,-0.98,-1.39,6.70,6.69,6.69
122.33,7.93,1.33,7.93,1.33,-1.33,-1.01,-1.41,6.61,6.61,6.61
123.55,7.88,1.36,7.88,1.36,-1.36,-1.04,-1.44,6.52,6.52,6.52
124.79,7.83,1.40,7.83,1.40,-1.40,-1.07,-1.46,6.43,6.43,6.43
126.03,7.78,1.43,7.78,1.43,-1.43,-1.10,-1.49,6.34,6.34,6.34
127.29,7.72,1.47,7.72,1.47,-1.47,-1.14,-1.51,6.25,6.25,6.25
128.57,7.67,1.50,7.67,1.50,-1.51,-1.17,-1.53,6.16,6.16,6.16
129.85,7.62,1.54,7.62,1.54,-1.54,-1.21,-1.55,6.07,6.07,6.07
131.15,7.56,1.58,7.56,1.58,-1.58,-1.24,-1.57,5.98,5.98,5.98
132.46,7.51,1.62,7.51,1.62,-1.62,-1.28,-1.58,5.89,5.89,5.89
133.79,7.46,1.67,7.46,1.67,-1.67,-1.32,-1.60,5.79,5.79,5.79
135.12,7.41,1.71,7.41,1.71,-1.71,-1.37,-1.62,5.70,5.70,5.70
136.48,7.36,1.75,7.36,1.75,-1.75,-1.41,-1.63,5.60,5.60,5.60
137.84,7.30,1.80,7.30,1.80,-1.80,-1.45,-1.65,5.51,5.51,5.51
139.22,7.25,1.84,7.25,1.84,-1.84,-1.50,-1.66,5.41,5.41,5.41
140.61,7.20,1.89,7.20,1.89,-1.89,-1.54,-1.68,5.31,5.31,5.31
142.02,7.15,1.93,7.15,1.93,-1.93,-1.59,-1.69,5.22,5.22,5.21
143.44,7.09,1.98,7.09,1.98,-1.97,-1.64,-1.71,5.12,5.12,5.12
144.87,7.04,2.02,7.04,2.02,-2.02,-1.69,-1.72,5.02,5.02,5.02
146.32,6.98,2.06,6.98,2.06,-2.06,-1.75,-1.74,4.92,4.92,4.92
147.78,6.92,2.10,6.92,2.10,-2.10,-1.80,-1.75,4.82,4.82,4.82
149.26,6.86,2.14,6.86,2.14,-2.14,-1.86,-1.77,4.72,4.72,4.72
150.75,6.79,2.18,6.79,2.18,-2.18,-1.92,-1.79,4.61,4.61,4.62
152.26,6.73,2.22,6.73,2.22,-2.22,-1.98,-1.81,4.51,4.51,4.51
153.78,6.68,2.26,6.68,2.26,-2.27,-2.04,-1.82,4.41,4.41,4.41
155.32,6.62,2.31,6.62,2.31,-2.31,-2.10,-1.84,4.31,4.31,4.31
156.88,6.56,2.36,6.56,2.36,-2.36,-2.17,-1.87,4.20,4.20,4.20
158.44,6.51,2.41,6.51,2.41,-2.41,-2.23,-1.89,4.10,4.10,4.10
160.03,6.45,2.46,6.45,2.46,-2.46,-2.30,-1.91,3.99,3.99,3.99
161.63,6.40,2.51,6.40,2.51,-2.51,-2.37,-1.94,3.89,3.89,3.88
163.24,6.34,2.56,6.34,2.56,-2.56,-2.44,-1.96,3.78,3.78,3.77
164.88,6.28,2.61,6.28,2.61,-2.61,-2.51,-1.99,3.67,3.67,3.66
166.53,6.21,2.66,6.21,2.66,-2.66,-2.58,-2.02,3.55,3.55,3.55
168.19,6.15,2.71,6.15,2.71,-2.71,-2.66,-2.05,3.44,3.44,3.44
169.87,6.09,2.76,6.09,2.76,-2.76,-2.73,-2.09,3.32,3.32,3.32
171.57,6.03,2.82,6.02,2.82,-2.82,-2.81,-2.12,3.21,3.21,3.21
173.29,5.97,2.87,5.97,2.87,-2.88,-2.88,-2.16,3.09,3.09,3.09
175.02,5.91,2.94,5.91,2.94,-2.94,-2.95,-2.20,2.97,2.97,2.98
176.77,5.86,3.00,5.86,3.00,-3.00,-3.03,-2.24,2.86,2.86,2.86
178.54,5.81,3.07,5.81,3.07,-3.07,-3.10,-2.28,2.74,2.74,2.74
180.32,5.76,3.14,5.76,3.14,-3.14,-3.17,-2.32,2.63,2.63,2.63
182.13,5.72,3.21,5.72,3.21,-3.21,-3.24,-2.37,2.51,2.51,2.51
183.95,5.68,3.28,5.68,3.28,-3.28,-3.31,-2.41,2.40,2.40,2.40
185.79,5.65,3.35,5.65,3.35,-3.35,-3.38,-2.46,2.30,2.30,2.30
187.65,5.61,3.42,5.61,3.42,-3.42,-3.44,-2.51,2.19,2.19,2.19
189.52,5.58,3.48,5.58,3.48,-3.48,-3.50,-2.57,2.09,2.09,2.10
191.42,5.54,3.54,5.54,3.54,-3.54,-3.56,-2.62,2.00,2.00,2.00
193.33,5.51,3.60,5.51,3.60,-3.60,-3.61,-2.67,1.91,1.91,1.91
195.27,5.48,3.65,5.48,3.65,-3.64,-3.66,-2.73,1.84,1.84,1.83
197.22,5.44,3.68,5.44,3.68,-3.67,-3.70,-2.79,1.77,1.77,1.76
199.19,5.40,3.71,5.40,3.71,-3.70,-3.74,-2.84,1.70,1.70,1.69
201.18,5.34,3.72,5.34,3.72,-3.71,-3.77,-2.90,1.64,1.64,1.63
203.19,5.28,3.71,5.28,3.71,-3.71,-3.80,-2.96,1.58,1.58,1.57
205.23,5.22,3.70,5.22,3.70,-3.69,-3.81,-3.02,1.52,1.52,1.52
207.28,5.15,3.67,5.15,3.67,-3.67,-3.83,-3.08,1.48,1.48,1.48
209.35,5.09,3.64,5.09,3.64,-3.65,-3.83,-3.14,1.44,1.44,1.44
211.44,5.02,3.61,5.02,3.61,-3.62,-3.84,-3.20,1.41,1.41,1.41
213.56,4.96,3.58,4.96,3.58,-3.58,-3.83,-3.26,1.38,1.38,1.38
215.69,4.90,3.54,4.90,3.54,-3.55,-3.82,-3.32,1.35,1.35,1.35
217.85,4.84,3.51,4.84,3.51,-3.51,-3.80,-3.37,1.32,1.32,1.33
220.03,4.78,3.48,4.78,3.48,-3.48,-3.78,-3.42,1.30,1.30,1.30
222.23,4.72,3.45,4.72,3.45,-3.45,-3.75,-3.47,1.27,1.27,1.27
224.45,4.66,3.42,4.66,3.42,-3.42,-3.72,-3.52,1.24,1.24,1.24
226.70,4.61,3.39,4.61,3.39,-3.39,-3.68,-3.57,1.21,1.21,1.21
228.96,4.55,3.37,4.55,3.37,-3.37,-3.64,-3.61,1.18,1.18,1.18
231.25,4.49,3.35,4.49,3.35,-3.35,-3.59,-3.64,1.14,1.14,1.14
233.57,4.43,3.33,4.43,3.32,-3.33,-3.54,-3.68,1.10,1.10,1.10
235.90,4.37,3.30,4.37,3.30,-3.31,-3.49,-3.71,1.06,1.06,1.06
238.26,4.31,3.29,4.31,3.29,-3.29,-3.44,-3.73,1.02,1.02,1.02
240.64,4.25,3.27,4.25,3.27,-3.27,-3.38,-3.75,0.98,0.98,0.98
243.05,4.19,3.25,4.19,3.25,-3.25,-3.33,-3.76,0.94,0.94,0.94
245.48,4.12,3.23,4.12,3.23,-3.23,-3.27,-3.76,0.89,0.89,0.89
247.93,4.06,3.21,4.06,3.21,-3.21,-3.22,-3.76,0.85,0.85,0.85
250.41,4.00,3.19,4.00,3.19,-3.19,-3.16,-3.76,0.81,0.81,0.81
252.92,3.94,3.17,3.94,3.17,-3.17,-3.11,-3.74,0.77,0.77,0.77
255.45,3.88,3.15,3.88,3.15,-3.15,-3.05,-3.72,0.73,0.73,0.73
258.00,3.81,3.13,3.81,3.13,-3.13,-3.00,-3.70,0.69,0.69,0.69
260.58,3.75,3.10,3.75,3.10,-3.10,-2.94,-3.67,0.65,0.65,0.65
263.19,3.69,3.07,3.69,3.07,-3.07,-2.89,-3.63,0.62,0.62,0.62
265.82,3.63,3.04,3.63,3.04,-3.04,-2.84,-3.59,0.59,0.59,0.59
268.48,3.57,3.01,3.57,3.01,-3.01,-2.79,-3.55,0.56,0.56,0.56
271.16,3.51,2.98,3.51,2.98,-2.98,-2.75,-3.49,0.53,0.53,0.53
273.87,3.45,2.94,3.45,2.94,-2.94,-2.70,-3.44,0.51,0.51,0.51
276.61,3.39,2.90,3.39,2.90,-2.90,-2.66,-3.38,0.49,0.49,0.49
279.38,3.33,2.86,3.33,2.86,-2.86,-2.62,-3.31,0.47,0.47,0.47
282.17,3.27,2.82,3.27,2.82,-2.82,-2.58,-3.24,0.45,0.45,0.45
284.99,3.21,2.78,3.21,2.77,-2.77,-2.54,-3.17,0.43,0.43,0.43
287.84,3.15,2.73,3.15,2.73,-2.73,-2.50,-3.10,0.42,0.42,0.42
290.72,3.09,2.68,3.09,2.68,-2.68,-2.47,-3.03,0.41,0.41,0.41
293.63,3.03,2.63,3.03,2.63,-2.63,-2.43,-2.95,0.40,0.40,0.40
296.57,2.97,2.58,2.97,2.58,-2.58,-2.39,-2.87,0.39,0.39,0.39
299.53,2.91,2.53,2.91,2.53,-2.53,-2.36,-2.79,0.38,0.38,0.38
302.53,2.85,2.48,2.85,2.48,-2.48,-2.32,-2.71,0.38,0.38,0.38
305.55,2.80,2.43,2.80,2.43,-2.43,-2.28,-2.63,0.37,0.37,0.37
308.61,2.74,2.37,2.74,2.37,-2.37,-2.24,-2.55,0.37,0.37,0.37
311.69,2.68,2.32,2.68,2.32,-2.32,-2.20,-2.47,0.37,0.37,0.36
314.81,2.62,2.26,2.62,2.26,-2.26,-2.16,-2.39,0.36,0.36,0.36
317.96,2.57,2.20,2.57,2.20,-2.20,-2.12,-2.31,0.36,0.36,0.36
321.14,2.51,2.15,2.51,2.15,-2.15,-2.07,-2.23,0.36,0.36,0.36
324.35,2.45,2.09,2.45,2.09,-2.09,-2.02,-2.15,0.36,0.36,0.36
327.59,2.40,2.03,2.40,2.03,-2.03,-1.97,-2.07,0.36,0.36,0.36
330.87,2.34,1.97,2.34,1.97,-1.97,-1.92,-2.00,0.37,0.37,0.37
334.18,2.28,1.91,2.28,1.91,-1.91,-1.86,-1.92,0.37,0.37,0.37
337.52,2.22,1.85,2.22,1.85,-1.85,-1.81,-1.84,0.37,0.37,0.37
340.90,2.17,1.79,2.17,1.79,-1.79,-1.75,-1.77,0.38,0.38,0.37
344.30,2.11,1.73,2.11,1.73,-1.73,-1.69,-1.70,0.38,0.38,0.38
347.75,2.05,1.67,2.05,1.67,-1.67,-1.63,-1.62,0.38,0.38,0.38
351.23,1.99,1.61,1.99,1.61,-1.61,-1.57,-1.55,0.38,0.38,0.38
354.74,1.94,1.55,1.94,1.55,-1.55,-1.51,-1.48,0.39,0.39,0.39
358.28,1.88,1.49,1.88,1.49,-1.49,-1.45,-1.41,0.39,0.39,0.39
361.87,1.82,1.43,1.82,1.43,-1.43,-1.39,-1.35,0.39,0.39,0.39
365.49,1.77,1.37,1.77,1.37,-1.37,-1.33,-1.28,0.39,0.39,0.39
369.14,1.71,1.32,1.71,1.32,-1.32,-1.27,-1.21,0.40,0.40,0.40
372.83,1.66,1.26,1.66,1.26,-1.26,-1.21,-1.15,0.40,0.40,0.40
376.56,1.60,1.21,1.60,1.21,-1.21,-1.15,-1.09,0.40,0.40,0.40
380.33,1.55,1.15,1.55,1.15,-1.15,-1.09,-1.03,0.40,0.40,0.40
384.13,1.50,1.10,1.50,1.10,-1.10,-1.04,-0.96,0.40,0.40,0.40
387.97,1.44,1.05,1.44,1.05,-1.05,-0.98,-0.90,0.39,0.39,0.39
391.85,1.39,1.00,1.39,0.99,-0.99,-0.93,-0.85,0.39,0.39,0.39
395.77,1.33,0.94,1.33,0.94,-0.94,-0.88,-0.79,0.39,0.39,0.39
399.73,1.28,0.89,1.28,0.89,-0.89,-0.82,-0.73,0.39,0.39,0.39
403.72,1.23,0.84,1.23,0.84,-0.84,-0.77,-0.68,0.38,0.38,0.39
407.76,1.17,0.79,1.17,0.79,-0.79,-0.73,-0.62,0.38,0.38,0.38
411.84,1.12,0.74,1.12,0.74,-0.74,-0.68,-0.57,0.38,0.38,0.38
415.96,1.07,0.69,1.07,0.69,-0.69,-0.63,-0.52,0.38,0.38,0.38
420.12,1.02,0.65,1.02,0.65,-0.65,-0.59,-0.47,0.38,0.38,0.37
424.32,0.97,0.60,0.97,0.60,-0.60,-0.54,-0.42,0.37,0.37,0.37
428.56,0.92,0.55,0.92,0.55,-0.55,-0.50,-0.37,0.37,0.37,0.37
432.85,0.87,0.50,0.87,0.50,-0.50,-0.45,-0.32,0.37,0.37,0.37
437.18,0.82,0.46,0.82,0.46,-0.46,-0.41,-0.27,0.36,0.36,0.36
441.55,0.77,0.41,0.77,0.41,-0.41,-0.37,-0.23,0.36,0.36,0.36
445.96,0.72,0.36,0.72,0.36,-0.36,-0.33,-0.18,0.36,0.36,0.36
450.42,0.67,0.32,0.67,0.32,-0.32,-0.29,-0.14,0.35,0.35,0.35
454.93,0.62,0.27,0.62,0.27,-0.27,-0.25,-0.10,0.35,0.35,0.35
459.48,0.57,0.23,0.57,0.23,-0.23,-0.21,-0.06,0.34,0.34,0.35
464.07,0.53,0.18,0.53,0.18,-0.18,-0.17,-0.02,0.34,0.34,0.34
468.71,0.48,0.14,0.48,0.14,-0.14,-0.14,0.02,0.34,0.34,0.34
473.40,0.43,0.10,0.43,0.10,-0.10,-0.10,0.06,0.33,0.33,0.33
478.13,0.39,0.06,0.39,0.06,-0.06,-0.06,0.09,0.33,0.33,0.33
482.91,0.34,0.02,0.34,0.02,-0.02,-0.02,0.13,0.33,0.33,0.33
487.74,0.30,-0.02,0.30,-0.02,0.02,0.01,0.16,0.32,0.32,0.32
492.62,0.25,-0.06,0.25,-0.06,0.06,0.05,0.19,0.32,0.32,0.32
