frequency,raw,error,smoothed,error_smoothed,equalization,parametric_eq,fixed_band_eq,equalized_raw,equalized_smoothed,target
20.00,-0.24,-13.21,-0.24,-13.22,6.00,5.44,2.65,5.76,5.76,12.98
20.20,-0.18,-13.14,-0.18,-13.14,6.00,5.61,2.73,5.82,5.82,12.96
20.40,-0.13,-13.07,-0.13,-13.07,6.00,5.77,2.81,5.87,5.87,12.94
20.61,-0.08,-13.00,-0.08,-13.00,6.00,5.93,2.89,5.92,5.92,12.92
20.81,-0.03,-12.93,-0.03,-12.93,6.00,6.08,2.97,5.97,5.97,12.90
21.02,0.01,-12.87,0.01,-12.87,6.00,6.18,3.05,6.01,6.01,12.88
21.23,0.05,-12.82,0.05,-12.82,6.00,6.28,3.14,6.05,6.05,12.87
21.44,0.08,-12.77,0.08,-12.77,6.00,6.31,3.23,6.08,6.08,12.85
21.66,0.12,-12.72,0.12,-12.72,6.00,6.33,3.32,6.12,6.12,12.84
21.87,0.15,-12.67,0.15,-12.67,6.00,6.29,3.42,6.15,6.15,12.82
22.09,0.19,-12.62,0.19,-12.62,6.00,6.25,3.51,6.19,6.19,12.81
22.31,0.23,-12.56,0.23,-12.56,6.00,6.17,3.61,6.23,6.23,12.79
22.54,0.27,-12.50,0.27,-12.50,6.00,6.09,3.71,6.27,6.27,12.77
22.76,0.31,-12.43,0.31,-12.43,6.00,6.01,3.82,6.31,6.31,12.74
22.99,0.35,-12.37,0.35,-12.37,6.00,5.93,3.93,6.35,6.35,12.72
23.22,0.39,-12.30,0.39,-12.30,6.00,5.87,4.04,6.39,6.39,12.69
23.45,0.43,-12.24,0.43,-12.24,6.00,5.80,4.15,6.43,6.43,12.67
23.69,0.46,-12.18,0.46,-12.18,6.00,5.76,4.26,6.46,6.46,12.64
23.92,0.49,-12.13,0.49,-12.13,6.00,5.71,4.38,6.49,6.49,12.62
24.16,0.53,-12.07,0.53,-12.07,6.00,5.68,4.50,6.53,6.53,12.60
24.40,0.56,-12.02,0.56,-12.02,6.00,5.65,4.62,6.56,6.56,12.58
24.65,0.59,-11.97,0.59,-11.97,6.00,5.64,4.75,6.59,6.59,12.56
24.89,0.62,-11.92,0.62,-11.92,6.00,5.62,4.87,6.62,6.62,12.54
25.14,0.65,-11.87,0.65,-11.87,6.00,5.62,5.00,6.65,6.65,12.51
25.39,0.68,-11.81,0.68,-11.81,6.00,5.62,5.12,6.68,6.68,12.49
25.65,0.70,-11.76,0.70,-11.76,6.00,5.62,5.25,6.70,6.70,12.47
25.91,0.73,-11.71,0.73,-11.71,6.00,5.63,5.38,6.73,6.73,12.44
26.16,0.75,-11.67,0.75,-11.67,6.00,5.64,5.51,6.75,6.75,12.42
26.43,0.77,-11.62,0.77,-11.62,6.00,5.65,5.64,6.77,6.77,12.39
26.69,0.80,-11.57,0.80,-11.57,6.00,5.66,5.77,6.80,6.80,12.37
26.96,0.82,-11.52,0.82,-11.52,6.00,5.68,5.89,6.82,6.82,12.35
27.23,0.85,-11.47,0.85,-11.47,6.00,5.70,6.02,6.85,6.85,12.32
27.50,0.88,-11.42,0.88,-11.42,6.00,5.72,6.14,6.88,6.88,12.29
27.77,0.91,-11.36,0.91,-11.36,6.00,5.74,6.26,6.91,6.91,12.27
28.05,0.94,-11.30,0.94,-11.30,6.00,5.76,6.37,6.94,6.94,12.24
28.33,0.97,-11.24,0.97,-11.24,6.00,5.78,6.48,6.97,6.97,12.21
28.62,0.99,-11.18,0.99,-11.18,6.00,5.80,6.58,6.99,6.99,12.18
28.90,1.02,-11.13,1.02,-11.13,6.00,5.83,6.68,7.02,7.02,12.14
29.19,1.04,-11.07,1.04,-11.07,6.00,5.85,6.77,7.04,7.04,12.11
29.48,1.06,-11.02,1.06,-11.02,6.00,5.88,6.85,7.06,7.06,12.08
29.78,1.09,-10.96,1.09,-10.96,6.00,5.90,6.93,7.09,7.09,12.05
30.08,1.12,-10.91,1.12,-10.91,6.00,5.92,7.00,7.12,7.12,12.02
30.38,1.15,-10.85,1.15,-10.85,6.00,5.95,7.06,7.15,7.15,12.00
30.68,1.18,-10.79,1.18,-10.79,6.00,5.97,7.10,7.18,7.18,11.97
30.99,1.21,-10.73,1.21,-10.73,6.00,5.99,7.14,7.21,7.21,11.94
31.30,1.24,-10.67,1.24,-10.67,6.00,6.02,7.17,7.24,7.24,11.91
31.61,1.27,-10.60,1.27,-10.60,6.00,6.04,7.19,7.27,7.27,11.87
31.93,1.29,-10.54,1.29,-10.54,6.00,6.06,7.19,7.29,7.29,11.84
32.24,1.31,-10.48,1.31,-10.48,6.00,6.08,7.20,7.31,7.31,11.80
32.57,1.33,-10.42,1.33,-10.42,6.00,6.10,7.18,7.33,7.33,11.76
32.89,1.36,-10.37,1.36,-10.37,6.00,6.12,7.17,7.36,7.36,11.72
33.22,1.38,-10.31,1.38,-10.31,6.00,6.15,7.14,7.38,7.38,11.69
33.55,1.40,-10.25,1.40,-10.25,6.00,6.16,7.10,7.40,7.40,11.65
33.89,1.43,-10.19,1.43,-10.19,6.00,6.18,7.06,7.43,7.43,11.61
34.23,1.45,-10.12,1.45,-10.12,6.00,6.20,7.01,7.45,7.45,11.57
34.57,1.47,-10.06,1.47,-10.06,6.00,6.22,6.96,7.47,7.47,11.53
34.92,1.49,-10.00,1.49,-10.00,6.00,6.24,6.90,7.49,7.49,11.49
35.27,1.51,-9.94,1.51,-9.94,6.00,6.25,6.84,7.51,7.51,11.45
35.62,1.53,-9.89,1.53,-9.89,6.00,6.27,6.77,7.53,7.53,11.42
35.97,1.55,-9.85,1.55,-9.85,6.00,6.28,6.71,7.55,7.55,11.39
36.33,1.57,-9.81,1.57,-9.80,6.00,6.30,6.64,7.57,7.57,11.37
36.70,1.58,-9.76,1.58,-9.76,6.00,6.31,6.57,7.58,7.58,11.35
37.06,1.60,-9.71,1.60,-9.71,6.00,6.32,6.50,7.60,7.60,11.32
37.43,1.62,-9.66,1.62,-9.66,6.00,6.33,6.42,7.62,7.62,11.28
37.81,1.63,-9.59,1.63,-9.59,6.00,6.35,6.35,7.63,7.63,11.23
38.19,1.65,-9.53,1.65,-9.53,6.00,6.35,6.29,7.65,7.65,11.18
38.57,1.67,-9.46,1.67,-9.46,6.00,6.36,6.22,7.67,7.67,11.13
38.95,1.68,-9.41,1.68,-9.41,6.00,6.37,6.15,7.68,7.68,11.09
39.34,1.70,-9.36,1.70,-9.36,6.00,6.38,6.09,7.70,7.70,11.05
39.74,1.71,-9.31,1.71,-9.31,6.00,6.38,6.03,7.71,7.71,11.02
40.14,1.73,-9.26,1.73,-9.25,6.00,6.39,5.97,7.73,7.73,10.98
40.54,1.74,-9.20,1.74,-9.20,6.00,6.39,5.92,7.74,7.74,10.95
40.94,1.76,-9.15,1.76,-9.15,6.00,6.40,5.87,7.76,7.76,10.91
41.35,1.77,-9.10,1.77,-9.10,6.00,6.40,5.82,7.77,7.77,10.88
41.76,1.79,-9.05,1.79,-9.05,6.00,6.40,5.78,7.79,7.79,10.84
42.18,1.80,-8.99,1.80,-8.99,6.00,6.40,5.74,7.80,7.80,10.80
42.60,1.82,-8.93,1.82,-8.93,6.00,6.40,5.71,7.82,7.82,10.75
43.03,1.83,-8.86,1.83,-8.86,6.00,6.40,5.68,7.83,7.83,10.69
43.46,1.85,-8.78,1.85,-8.78,6.00,6.40,5.65,7.85,7.85,10.63
43.90,1.86,-8.71,1.86,-8.71,6.00,6.39,5.63,7.86,7.86,10.58
44.33,1.88,-8.65,1.88,-8.65,6.00,6.39,5.61,7.88,7.88,10.53
44.78,1.90,-8.59,1.90,-8.59,6.00,6.38,5.60,7.90,7.90,10.49
45.23,1.91,-8.53,1.91,-8.53,6.00,6.37,5.59,7.91,7.91,10.45
45.68,1.93,-8.47,1.93,-8.47,6.00,6.37,5.58,7.93,7.93,10.40
46.13,1.94,-8.41,1.94,-8.41,6.00,6.36,5.58,7.94,7.94,10.35
46.60,1.96,-8.34,1.96,-8.34,6.00,6.35,5.59,7.96,7.96,10.30
47.06,1.97,-8.28,1.97,-8.28,6.00,6.34,5.59,7.97,7.97,10.25
47.53,1.98,-8.22,1.98,-8.23,6.00,6.33,5.60,7.98,7.98,10.20
48.01,1.99,-8.18,1.99,-8.18,6.00,6.31,5.62,7.99,7.99,10.17
48.49,2.00,-8.14,2.00,-8.14,6.00,6.30,5.64,8.00,8.00,10.14
48.97,2.00,-8.10,2.00,-8.10,6.00,6.29,5.66,8.00,8.00,10.10
49.46,2.01,-8.06,2.01,-8.05,6.00,6.27,5.68,8.01,8.01,10.07
49.96,2.02,-8.00,2.02,-7.99,6.00,6.25,5.71,8.02,8.02,10.02
50.46,2.03,-7.92,2.03,-7.92,6.00,6.24,5.74,8.03,8.03,9.96
50.96,2.05,-7.85,2.05,-7.85,6.00,6.22,5.77,8.05,8.05,9.90
51.47,2.08,-7.77,2.08,-7.77,6.00,6.20,5.81,8.08,8.08,9.84
51.99,2.11,-7.69,2.11,-7.69,6.00,6.18,5.85,8.11,8.11,9.79
52.51,2.14,-7.60,2.14,-7.60,6.00,6.16,5.88,8.14,8.14,9.74
53.03,2.18,-7.52,2.18,-7.52,6.00,6.14,5.92,8.18,8.18,9.70
53.56,2.21,-7.44,2.21,-7.44,6.00,6.12,5.96,8.21,8.21,9.64
54.10,2.22,-7.37,2.22,-7.37,6.00,6.09,6.00,8.22,8.22,9.59
54.64,2.22,-7.32,2.22,-7.32,6.00,6.07,6.04,8.22,8.22,9.54
55.18,2.20,-7.29,2.20,-7.29,6.00,6.04,6.08,8.20,8.20,9.49
55.74,2.18,-7.27,2.19,-7.26,6.00,6.02,6.11,8.18,8.19,9.45
56.29,2.18,-7.23,2.18,-7.23,6.00,5.99,6.15,8.18,8.18,9.41
56.86,2.18,-7.18,2.19,-7.18,6.00,5.97,6.18,8.18,8.19,9.36
57.42,2.20,-7.12,2.20,-7.12,6.00,5.94,6.21,8.20,8.20,9.32
58.00,2.22,-7.05,2.22,-7.06,6.00,5.91,6.23,8.22,8.22,9.27
58.58,2.23,-6.99,2.23,-6.99,6.00,5.88,6.25,8.23,8.23,9.23
59.16,2.24,-6.93,2.24,-6.94,6.00,5.85,6.27,8.24,8.24,9.18
59.76,2.25,-6.88,2.25,-6.88,6.00,5.82,6.28,8.25,8.25,9.13
60.35,2.26,-6.82,2.26,-6.82,6.00,5.79,6.28,8.26,8.26,9.08
60.96,2.26,-6.77,2.27,-6.77,6.00,5.76,6.28,8.26,8.27,9.03
61.57,2.27,-6.71,2.27,-6.71,6.00,5.72,6.27,8.27,8.27,8.98
62.18,2.28,-6.65,2.28,-6.65,6.00,5.69,6.26,8.28,8.28,8.92
62.80,2.28,-6.59,2.28,-6.59,6.00,5.66,6.24,8.28,8.28,8.87
63.43,2.29,-6.53,2.29,-6.53,6.00,5.62,6.21,8.29,8.29,8.81
64.07,2.29,-6.47,2.29,-6.47,6.00,5.59,6.18,8.29,8.29,8.76
64.71,2.30,-6.40,2.30,-6.40,6.00,5.55,6.14,8.30,8.30,8.70
65.35,2.31,-6.34,2.31,-6.34,6.01,5.52,6.09,8.32,8.32,8.65
66.01,2.32,-6.27,2.32,-6.27,6.01,5.48,6.04,8.33,8.33,8.59
66.67,2.33,-6.21,2.33,-6.21,6.01,5.44,5.98,8.34,8.34,8.55
67.33,2.34,-6.15,2.34,-6.15,6.01,5.41,5.92,8.35,8.35,8.50
68.01,2.35,-6.10,2.35,-6.10,6.00,5.37,5.85,8.35,8.35,8.45
68.69,2.36,-6.04,2.36,-6.04,5.98,5.33,5.78,8.34,8.34,8.40
69.37,2.37,-5.98,2.37,-5.98,5.95,5.29,5.71,8.32,8.32,8.35
70.07,2.38,-5.92,2.37,-5.92,5.91,5.25,5.63,8.29,8.29,8.29
70.77,2.38,-5.86,2.38,-5.86,5.87,5.21,5.55,8.25,8.25,8.24
71.48,2.39,-5.80,2.39,-5.80,5.81,5.18,5.47,8.20,8.20,8.19
72.19,2.39,-5.74,2.39,-5.74,5.75,5.14,5.38,8.14,8.14,8.13
72.91,2.40,-5.68,2.40,-5.68,5.69,5.10,5.30,8.09,8.09,8.08
73.64,2.40,-5.62,2.40,-5.62,5.62,5.05,5.21,8.03,8.03,8.03
74.38,2.41,-5.56,2.41,-5.56,5.56,5.01,5.12,7.97,7.97,7.97
75.12,2.42,-5.50,2.42,-5.50,5.50,4.97,5.04,7.92,7.92,7.92
75.87,2.43,-5.43,2.43,-5.43,5.44,4.93,4.95,7.86,7.86,7.86
76.63,2.43,-5.37,2.43,-5.37,5.37,4.89,4.87,7.81,7.81,7.81
77.40,2.44,-5.31,2.44,-5.31,5.31,4.85,4.78,7.75,7.75,7.75
78.17,2.45,-5.25,2.45,-5.25,5.25,4.81,4.70,7.70,7.70,7.70
78.95,2.45,-5.19,2.45,-5.19,5.19,4.76,4.62,7.64,7.64,7.65
79.74,2.46,-5.14,2.46,-5.13,5.13,4.72,4.54,7.59,7.59,7.59
80.54,2.46,-5.08,2.46,-5.08,5.08,4.68,4.47,7.54,7.54,7.54
81.35,2.46,-5.02,2.46,-5.02,5.02,4.64,4.39,7.48,7.48,7.48
82.16,2.47,-4.96,2.47,-4.96,4.96,4.59,4.32,7.43,7.43,7.43
82.98,2.47,-4.91,2.47,-4.91,4.91,4.55,4.25,7.38,7.38,7.38
83.81,2.48,-4.85,2.48,-4.85,4.85,4.51,4.19,7.33,7.33,7.33
84.65,2.49,-4.80,2.49,-4.80,4.80,4.47,4.12,7.28,7.28,7.28
85.50,2.49,-4.74,2.49,-4.74,4.74,4.42,4.06,7.23,7.23,7.23
86.35,2.50,-4.68,2.50,-4.68,4.68,4.38,4.01,7.18,7.18,7.18
87.22,2.50,-4.63,2.50,-4.63,4.63,4.34,3.95,7.13,7.13,7.13
88.09,2.51,-4.57,2.51,-4.57,4.57,4.29,3.90,7.07,7.07,7.07
88.97,2.51,-4.51,2.51,-4.51,4.51,4.25,3.85,7.02,7.02,7.02
89.86,2.51,-4.45,2.52,-4.45,4.45,4.21,3.80,6.96,6.96,6.96
90.76,2.52,-4.39,2.52,-4.39,4.39,4.17,3.76,6.91,6.91,6.91
91.66,2.52,-4.33,2.52,-4.33,4.33,4.12,3.72,6.86,6.86,6.85
92.58,2.53,-4.27,2.53,-4.27,4.28,4.08,3.68,6.81,6.81,6.80
93.51,2.53,-4.22,2.53,-4.22,4.23,4.04,3.65,6.75,6.75,6.75
94.44,2.53,-4.17,2.53,-4.17,4.17,3.99,3.62,6.70,6.70,6.70
95.39,2.53,-4.12,2.53,-4.12,4.12,3.95,3.59,6.65,6.65,6.66
96.34,2.53,-4.08,2.53,-4.08,4.07,3.91,3.56,6.60,6.60,6.61
97.30,2.53,-4.02,2.53,-4.02,4.02,3.86,3.54,6.55,6.55,6.56
98.28,2.53,-3.97,2.53,-3.97,3.97,3.82,3.51,6.50,6.50,6.50
99.26,2.53,-3.92,2.53,-3.92,3.92,3.78,3.49,6.45,6.45,6.45
100.25,2.54,-3.87,2.54,-3.87,3.87,3.74,3.48,6.40,6.40,6.40
101.25,2.54,-3.81,2.54,-3.81,3.81,3.70,3.46,6.35,6.35,6.36
102.27,2.55,-3.76,2.55,-3.76,3.76,3.65,3.45,6.31,6.31,6.31
103.29,2.56,-3.70,2.56,-3.70,3.70,3.61,3.43,6.26,6.26,6.26
104.32,2.56,-3.64,2.56,-3.64,3.65,3.57,3.42,6.21,6.21,6.21
105.37,2.57,-3.59,2.57,-3.59,3.59,3.53,3.41,6.16,6.16,6.16
106.42,2.57,-3.54,2.57,-3.54,3.54,3.49,3.40,6.10,6.10,6.10
107.48,2.57,-3.48,2.57,-3.48,3.48,3.45,3.39,6.05,6.05,6.05
108.56,2.57,-3.43,2.57,-3.43,3.43,3.40,3.38,6.00,6.00,6.00
109.64,2.57,-3.38,2.57,-3.38,3.38,3.36,3.37,5.95,5.95,5.95
110.74,2.57,-3.32,2.57,-3.32,3.33,3.32,3.37,5.90,5.90,5.90
111.85,2.58,-3.27,2.58,-3.27,3.28,3.28,3.36,5.85,5.85,5.85
112.97,2.58,-3.22,2.58,-3.22,3.23,3.24,3.35,5.81,5.81,5.80
114.10,2.58,-3.17,2.58,-3.17,3.18,3.20,3.34,5.76,5.76,5.76
115.24,2.59,-3.13,2.59,-3.13,3.13,3.16,3.33,5.72,5.72,5.72
116.39,2.59,-3.08,2.59,-3.08,3.08,3.12,3.32,5.67,5.67,5.67
117.55,2.59,-3.04,2.59,-3.04,3.03,3.08,3.30,5.62,5.62,5.63
118.73,2.59,-2.99,2.59,-2.99,2.98,3.04,3.29,5.58,5.58,5.58
119.92,2.59,-2.94,2.59,-2.94,2.94,3.01,3.27,5.53,5.53,5.53
121.12,2.59,-2.89,2.59,-2.89,2.89,2.97,3.25,5.48,5.48,5.48
122.33,2.59,-2.84,2.59,-2.84,2.84,2.93,3.23,5.43,5.43,5.43
123.55,2.59,-2.79,2.59,-2.79,2.79,2.89,3.21,5.38,5.38,5.38
124.79,2.59,-2.74,2.59,-2.74,2.75,2.85,3.18,5.33,5.33,5.33
126.03,2.58,-2.70,2.58,-2.70,2.70,2.82,3.15,5.28,5.28,5.28
127.29,2.58,-2.66,2.58,-2.66,2.66,2.78,3.12,5.24,5.24,5.23
128.57,2.57,-2.62,2.57,-2.62,2.62,2.74,3.09,5.19,5.19,5.19
129.85,2.56,-2.59,2.56,-2.59,2.59,2.70,3.05,5.15,5.15,5.15
131.15,2.55,-2.55,2.55,-2.55,2.55,2.67,3.01,5.11,5.11,5.11
132.46,2.54,-2.52,2.54,-2.52,2.52,2.63,2.97,5.07,5.07,5.06
133.79,2.53,-2.49,2.53,-2.49,2.49,2.60,2.93,5.02,5.02,5.02
135.12,2.52,-2.46,2.52,-2.46,2.46,2.56,2.89,4.98,4.98,4.98
136.48,2.51,-2.42,2.51,-2.42,2.42,2.53,2.84,4.93,4.93,4.94
137.84,2.51,-2.39,2.51,-2.39,2.38,2.49,2.79,4.89,4.89,4.90
139.22,2.50,-2.35,2.50,-2.35,2.34,2.46,2.75,4.84,4.84,4.86
140.61,2.51,-2.30,2.51,-2.30,2.30,2.42,2.69,4.80,4.80,4.81
142.02,2.51,-2.25,2.51,-2.25,2.25,2.39,2.64,4.76,4.76,4.76
143.44,2.52,-2.19,2.52,-2.20,2.20,2.36,2.59,4.72,4.72,4.72
144.87,2.53,-2.14,2.53,-2.15,2.15,2.32,2.54,4.68,4.68,4.67
146.32,2.54,-2.10,2.54,-2.10,2.10,2.29,2.49,4.64,4.64,4.64
147.78,2.54,-2.06,2.54,-2.06,2.06,2.26,2.43,4.60,4.60,4.60
149.26,2.55,-2.01,2.55,-2.01,2.01,2.23,2.38,4.56,4.56,4.56
150.75,2.55,-1.97,2.55,-1.97,1.97,2.19,2.33,4.51,4.51,4.52
152.26,2.55,-1.92,2.55,-1.92,1.92,2.16,2.27,4.47,4.47,4.47
153.78,2.55,-1.88,2.55,-1.88,1.88,2.13,2.22,4.43,4.43,4.43
155.32,2.55,-1.84,2.55,-1.84,1.84,2.10,2.17,4.38,4.38,4.39
156.88,2.54,-1.80,2.54,-1.80,1.80,2.07,2.11,4.34,4.34,4.34
158.44,2.54,-1.76,2.54,-1.76,1.76,2.04,2.06,4.30,4.30,4.30
160.03,2.54,-1.72,2.54,-1.72,1.72,2.01,2.01,4.26,4.26,4.26
161.63,2.54,-1.68,2.54,-1.68,1.68,1.98,1.96,4.22,4.22,4.22
163.24,2.53,-1.65,2.53,-1.65,1.65,1.95,1.91,4.18,4.18,4.18
164.88,2.53,-1.61,2.53,-1.61,1.62,1.92,1.87,4.14,4.14,4.14
166.53,2.51,-1.58,2.51,-1.58,1.59,1.89,1.82,4.10,4.10,4.10
168.19,2.50,-1.56,2.50,-1.56,1.56,1.87,1.77,4.06,4.06,4.06
169.87,2.49,-1.54,2.49,-1.54,1.54,1.84,1.73,4.03,4.03,4.02
171.57,2.47,-1.52,2.48,-1.52,1.51,1.81,1.68,3.99,3.99,3.99
173.29,2.46,-1.50,2.46,-1.49,1.49,1.78,1.64,3.95,3.95,3.96
175.02,2.45,-1.47,2.45,-1.47,1.47,1.76,1.60,3.92,3.92,3.92
176.77,2.44,-1.44,2.44,-1.44,1.44,1.73,1.56,3.89,3.88,3.89
178.54,2.44,-1.41,2.44,-1.42,1.41,1.71,1.52,3.85,3.85,3.85
180.32,2.43,-1.39,2.43,-1.39,1.38,1.68,1.48,3.82,3.82,3.82
182.13,2.43,-1.35,2.43,-1.35,1.35,1.65,1.44,3.78,3.78,3.79
183.95,2.44,-1.31,2.43,-1.31,1.31,1.63,1.41,3.75,3.75,3.75
185.79,2.44,-1.27,2.44,-1.27,1.27,1.60,1.37,3.71,3.71,3.71
187.65,2.44,-1.23,2.44,-1.23,1.23,1.58,1.34,3.67,3.67,3.67
189.52,2.44,-1.19,2.44,-1.19,1.19,1.56,1.31,3.64,3.64,3.64
191.42,2.45,-1.15,2.45,-1.15,1.16,1.53,1.27,3.60,3.60,3.60
193.33,2.45,-1.12,2.45,-1.12,1.12,1.51,1.24,3.57,3.57,3.57
195.27,2.45,-1.08,2.45,-1.08,1.08,1.49,1.21,3.53,3.53,3.53
197.22,2.45,-1.04,2.45,-1.04,1.05,1.46,1.19,3.50,3.50,3.49
199.19,2.45,-1.01,2.45,-1.01,1.01,1.44,1.16,3.46,3.46,3.46
201.18,2.45,-0.98,2.45,-0.98,0.98,1.42,1.13,3.43,3.43,3.43
203.19,2.44,-0.95,2.44,-0.95,0.95,1.40,1.10,3.40,3.40,3.40
205.23,2.44,-0.93,2.44,-0.93,0.93,1.38,1.08,3.36,3.36,3.36
207.28,2.43,-0.90,2.43,-0.90,0.90,1.36,1.05,3.33,3.33,3.33
209.35,2.43,-0.87,2.42,-0.88,0.88,1.34,1.03,3.30,3.30,3.30
211.44,2.42,-0.85,2.42,-0.85,0.85,1.32,1.01,3.27,3.27,3.27
213.56,2.41,-0.84,2.41,-0.83,0.83,1.30,0.99,3.24,3.24,3.24
215.69,2.40,-0.81,2.40,-0.81,0.81,1.28,0.97,3.21,3.20,3.21
217.85,2.38,-0.79,2.38,-0.79,0.79,1.26,0.95,3.17,3.17,3.17
220.03,2.37,-0.76,2.37,-0.76,0.76,1.24,0.93,3.14,3.14,3.14
222.23,2.37,-0.74,2.37,-0.74,0.74,1.22,0.91,3.11,3.11,3.11
224.45,2.36,-0.72,2.36,-0.72,0.72,1.20,0.89,3.08,3.08,3.08
226.70,2.35,-0.70,2.35,-0.70,0.69,1.18,0.87,3.04,3.04,3.05
228.96,2.34,-0.67,2.34,-0.67,0.67,1.17,0.86,3.01,3.01,3.01
231.25,2.34,-0.65,2.34,-0.65,0.64,1.15,0.84,2.98,2.98,2.98
233.57,2.33,-0.62,2.33,-0.62,0.62,1.13,0.82,2.95,2.95,2.95
235.90,2.32,-0.60,2.32,-0.60,0.60,1.11,0.81,2.93,2.93,2.93
238.26,2.32,-0.58,2.32,-0.58,0.58,1.10,0.80,2.90,2.90,2.90
240.64,2.31,-0.57,2.31,-0.57,0.57,1.08,0.78,2.88,2.88,2.88
243.05,2.30,-0.56,2.30,-0.56,0.56,1.07,0.77,2.86,2.86,2.86
245.48,2.29,-0.56,2.29,-0.56,0.57,1.05,0.76,2.85,2.85,2.85
247.93,2.27,-0.57,2.27,-0.57,0.58,1.04,0.75,2.85,2.85,2.84
250.41,2.26,-0.58,2.26,-0.58,0.59,1.02,0.74,2.85,2.85,2.84
252.92,2.24,-0.61,2.24,-0.61,0.62,1.01,0.73,2.86,2.86,2.85
255.45,2.23,-0.64,2.23,-0.64,0.65,0.99,0.72,2.88,2.88,2.87
258.00,2.21,-0.68,2.21,-0.68,0.68,0.98,0.71,2.89,2.89,2.89
260.58,2.19,-0.72,2.19,-0.72,0.71,0.97,0.70,2.90,2.90,2.91
263.19,2.17,-0.76,2.17,-0.76,0.74,0.95,0.69,2.92,2.92,2.93
265.82,2.15,-0.78,2.15,-0.78,0.77,0.94,0.69,2.92,2.92,2.94
268.48,2.14,-0.80,2.14,-0.79,0.78,0.93,0.68,2.92,2.92,2.93
271.16,2.12,-0.80,2.12,-0.80,0.79,0.91,0.67,2.91,2.91,2.91
273.87,2.10,-0.79,2.09,-0.79,0.79,0.90,0.67,2.89,2.89,2.89
276.61,2.07,-0.79,2.07,-0.79,0.79,0.89,0.66,2.86,2.86,2.86
279.38,2.05,-0.78,2.05,-0.77,0.78,0.88,0.66,2.83,2.83,2.82
282.17,2.02,-0.76,2.02,-0.76,0.77,0.87,0.66,2.79,2.79,2.78
284.99,2.00,-0.75,2.00,-0.75,0.75,0.86,0.65,2.75,2.75,2.75
287.84,1.97,-0.74,1.97,-0.74,0.74,0.85,0.65,2.71,2.71,2.71
290.72,1.95,-0.73,1.95,-0.73,0.73,0.84,0.65,2.67,2.67,2.68
293.63,1.92,-0.71,1.92,-0.71,0.71,0.83,0.65,2.64,2.64,2.64
296.57,1.90,-0.70,1.90,-0.70,0.70,0.82,0.64,2.60,2.60,2.60
299.53,1.88,-0.69,1.88,-0.69,0.69,0.81,0.64,2.57,2.57,2.57
302.53,1.86,-0.68,1.86,-0.68,0.68,0.80,0.64,2.54,2.54,2.54
305.55,1.84,-0.67,1.84,-0.67,0.68,0.80,0.64,2.51,2.51,2.51
308.61,1.82,-0.67,1.82,-0.67,0.67,0.79,0.64,2.49,2.49,2.49
311.69,1.80,-0.67,1.80,-0.67,0.67,0.78,0.64,2.46,2.46,2.46
314.81,1.77,-0.66,1.77,-0.66,0.66,0.77,0.65,2.44,2.44,2.44
317.96,1.75,-0.66,1.75,-0.66,0.66,0.77,0.65,2.41,2.41,2.41
321.14,1.72,-0.66,1.72,-0.66,0.66,0.76,0.65,2.38,2.38,2.38
324.35,1.70,-0.66,1.70,-0.66,0.66,0.75,0.65,2.36,2.36,2.36
327.59,1.67,-0.66,1.67,-0.66,0.66,0.75,0.66,2.33,2.33,2.33
330.87,1.64,-0.66,1.64,-0.66,0.66,0.74,0.66,2.30,2.30,2.30
334.18,1.61,-0.66,1.61,-0.66,0.66,0.74,0.67,2.27,2.27,2.27
337.52,1.58,-0.66,1.58,-0.66,0.66,0.74,0.67,2.24,2.24,2.24
340.90,1.55,-0.66,1.55,-0.66,0.66,0.73,0.68,2.21,2.21,2.21
344.30,1.52,-0.67,1.52,-0.67,0.67,0.73,0.68,2.18,2.18,2.18
347.75,1.48,-0.67,1.48,-0.67,0.67,0.73,0.69,2.16,2.16,2.16
351.23,1.45,-0.68,1.45,-0.68,0.68,0.72,0.70,2.13,2.13,2.13
354.74,1.42,-0.69,1.42,-0.69,0.70,0.72,0.70,2.11,2.11,2.11
358.28,1.38,-0.71,1.38,-0.71,0.71,0.72,0.71,2.09,2.09,2.09
361.87,1.35,-0.73,1.35,-0.73,0.73,0.72,0.72,2.07,2.07,2.07
365.49,1.31,-0.75,1.31,-0.75,0.74,0.72,0.73,2.06,2.06,2.06
369.14,1.28,-0.77,1.28,-0.77,0.77,0.72,0.74,2.04,2.04,2.04
372.83,1.24,-0.79,1.24,-0.79,0.79,0.72,0.75,2.03,2.03,2.03
376.56,1.20,-0.81,1.20,-0.81,0.81,0.73,0.76,2.01,2.01,2.01
380.33,1.17,-0.83,1.17,-0.83,0.83,0.73,0.77,2.00,2.00,2.00
384.13,1.13,-0.86,1.13,-0.86,0.86,0.73,0.78,1.98,1.98,1.98
387.97,1.09,-0.88,1.09,-0.88,0.88,0.74,0.79,1.97,1.97,1.97
391.85,1.05,-0.90,1.05,-0.90,0.90,0.74,0.80,1.95,1.95,1.95
395.77,1.01,-0.93,1.01,-0.93,0.93,0.75,0.81,1.94,1.94,1.94
399.73,0.97,-0.95,0.97,-0.95,0.96,0.75,0.82,1.93,1.93,1.92
403.72,0.93,-0.97,0.93,-0.97,0.98,0.76,0.84,1.92,1.92,1.90
407.76,0.90,-1.00,0.90,-1.00,1.00,0.77,0.85,1.90,1.90,1.89
411.84,0.86,-1.02,0.86,-1.02,1.02,0.78,0.86,1.88,1.88,1.88
415.96,0.82,-1.05,0.82,-1.04,1.03,0.79,0.87,1.84,1.84,1.86
420.12,0.78,-1.05,0.78,-1.05,1.03,0.80,0.89,1.81,1.81,1.83
424.32,0.74,-1.05,0.74,-1.05,1.02,0.81,0.90,1.76,1.76,1.79
428.56,0.70,-1.03,0.70,-1.02,1.01,0.83,0.91,1.71,1.71,1.72
432.85,0.66,-0.99,0.66,-0.99,1.00,0.84,0.93,1.66,1.66,1.66
437.18,0.63,-0.96,0.62,-0.97,0.99,0.86,0.94,1.61,1.61,1.59
441.55,0.59,-0.96,0.59,-0.96,0.98,0.88,0.95,1.57,1.57,1.54
445.96,0.55,-0.96,0.55,-0.96,0.97,0.90,0.96,1.53,1.53,1.51
450.42,0.52,-0.97,0.52,-0.97,0.98,0.92,0.97,1.49,1.49,1.48
454.93,0.48,-0.98,0.48,-0.98,0.99,0.94,0.99,1.47,1.47,1.47
459.48,0.45,-1.01,0.45,-1.01,1.00,0.96,1.00,1.45,1.45,1.45
464.07,0.41,-1.03,0.41,-1.03,1.02,0.98,1.01,1.43,1.43,1.44
468.71,0.38,-1.05,0.38,-1.05,1.04,1.01,1.02,1.42,1.42,1.43
473.40,0.35,-1.07,0.35,-1.07,1.06,1.03,1.02,1.40,1.40,1.41
478.13,0.31,-1.08,0.31,-1.08,1.07,1.06,1.03,1.39,1.39,1.39
482.91,0.28,-1.08,0.28,-1.08,1.08,1.08,1.04,1.36,1.36,1.37
487.74,0.25,-1.09,0.25,-1.09,1.09,1.10,1.05,1.34,1.34,1.34
492.62,0.22,-1.09,0.22,-1.09,1.09,1.13,1.05,1.32,1.32,1.32
497.55,0.20,-1.10,0.20,-1.10,1.10,1.15,1.06,1.30,1.30,1.29
502.52,0.17,-1.10,0.17,-1.10,1.10,1.17,1.06,1.27,1.27,1.27
507.55,0.15,-1.10,0.15,-1.10,1.11,1.18,1.06,1.25,1.25,1.25
512.62,0.12,-1.11,0.12,-1.11,1.11,1.20,1.06,1.23,1.23,1.23
517.75,0.10,-1.11,0.10,-1.11,1.11,1.20,1.07,1.21,1.21,1.21
522.93,0.08,-1.12,0.08,-1.11,1.11,1.21,1.07,1.19,1.19,1.19
528.16,0.06,-1.12,0.06,-1.11,1.11,1.20,1.07,1.17,1.17,1.17
533.44,0.04,-1.11,0.04,-1.11,1.11,1.19,1.07,1.15,1.15,1.15
538.77,0.02,-1.10,0.02,-1.10,1.10,1.18,1.06,1.13,1.13,1.13
544.16,0.01,-1.10,0.01,-1.10,1.10,1.16,1.06,1.11,1.11,1.10
549.60,-0.01,-1.09,-0.01,-1.09,1.09,1.13,1.06,1.09,1.09,1.08
555.10,-0.02,-1.08,-0.02,-1.08,1.08,1.11,1.06,1.06,1.06,1.06
