frequency,raw,error,smoothed,error_smoothed,equalization,parametric_eq,fixed_band_eq,equalized_raw,equalized_smoothed,target
20.00,13.11,1.49,13.11,1.49,-1.48,0.03,-0.40,11.63,11.62,11.61
20.20,13.10,1.47,13.10,1.48,-1.48,0.03,-0.41,11.63,11.63,11.63
20.40,13.10,1.46,13.10,1.46,-1.47,0.04,-0.42,11.63,11.63,11.64
20.61,13.09,1.45,13.09,1.45,-1.46,0.04,-0.44,11.63,11.63,11.64
20.81,13.08,1.44,13.08,1.44,-1.45,0.04,-0.45,11.63,11.63,11.64
21.02,13.07,1.43,13.07,1.43,-1.43,0.04,-0.47,11.63,11.64,11.63
21.23,13.05,1.42,13.05,1.42,-1.42,0.04,-0.48,11.64,11.64,11.63
21.44,13.04,1.40,13.04,1.40,-1.40,0.04,-0.50,11.64,11.64,11.64
21.66,13.03,1.38,13.03,1.38,-1.38,0.04,-0.51,11.65,11.65,11.65
21.87,13.02,1.36,13.02,1.36,-1.35,0.04,-0.53,11.67,11.67,11.66
22.09,13.00,1.33,13.00,1.33,-1.32,0.04,-0.54,11.68,11.68,11.68
22.31,12.99,1.29,12.99,1.29,-1.30,0.04,-0.56,11.70,11.70,11.70
22.54,12.98,1.26,12.98,1.26,-1.27,0.04,-0.58,11.71,11.71,11.71
22.76,12.96,1.23,12.96,1.23,-1.24,0.04,-0.60,11.72,11.72,11.73
22.99,12.94,1.21,12.94,1.21,-1.21,0.05,-0.62,11.73,11.73,11.74
23.22,12.92,1.18,12.92,1.18,-1.19,0.05,-0.63,11.74,11.74,11.74
23.45,12.90,1.16,12.90,1.16,-1.16,0.05,-0.65,11.74,11.74,11.74
23.69,12.88,1.14,12.88,1.14,-1.14,0.05,-0.67,11.74,11.74,11.74
23.92,12.86,1.12,12.86,1.12,-1.12,0.05,-0.69,11.74,11.74,11.74
24.16,12.84,1.11,12.84,1.11,-1.10,0.05,-0.71,11.74,11.74,11.74
24.40,12.82,1.09,12.82,1.09,-1.08,0.05,-0.73,11.74,11.74,11.73
24.65,12.80,1.07,12.80,1.07,-1.06,0.05,-0.75,11.74,11.74,11.73
24.89,12.78,1.05,12.78,1.05,-1.05,0.05,-0.77,11.74,11.74,11.73
25.14,12.76,1.03,12.76,1.03,-1.03,0.06,-0.80,11.73,11.73,11.73
25.39,12.74,1.01,12.74,1.01,-1.01,0.06,-0.82,11.73,11.73,11.73
25.65,12.73,1.00,12.73,1.00,-1.00,0.06,-0.84,11.72,11.72,11.73
25.91,12.71,0.99,12.71,0.99,-0.99,0.06,-0.86,11.72,11.72,11.72
26.16,12.69,0.98,12.69,0.98,-0.98,0.06,-0.88,11.71,11.71,11.72
26.43,12.68,0.97,12.68,0.97,-0.97,0.06,-0.90,11.71,11.71,11.71
26.69,12.67,0.97,12.67,0.97,-0.97,0.06,-0.92,11.70,11.70,11.70
26.96,12.65,0.97,12.65,0.96,-0.96,0.06,-0.94,11.69,11.69,11.69
27.23,12.64,0.96,12.64,0.96,-0.95,0.07,-0.95,11.69,11.69,11.68
27.50,12.62,0.94,12.62,0.94,-0.94,0.07,-0.97,11.68,11.68,11.67
27.77,12.59,0.93,12.59,0.93,-0.92,0.07,-0.99,11.67,11.67,11.67
28.05,12.57,0.91,12.57,0.91,-0.91,0.07,-1.00,11.66,11.66,11.66
28.33,12.54,0.89,12.54,0.89,-0.89,0.07,-1.02,11.65,11.65,11.65
28.62,12.51,0.87,12.51,0.87,-0.88,0.07,-1.03,11.64,11.64,11.64
28.90,12.49,0.85,12.49,0.85,-0.86,0.07,-1.04,11.63,11.63,11.63
29.19,12.46,0.84,12.46,0.84,-0.84,0.08,-1.05,11.62,11.62,11.62
29.48,12.44,0.83,12.44,0.83,-0.83,0.08,-1.06,11.61,11.61,11.61
29.78,12.42,0.81,12.42,0.81,-0.81,0.08,-1.06,11.61,11.61,11.61
30.08,12.39,0.79,12.39,0.79,-0.79,0.08,-1.06,11.60,11.60,11.60
30.38,12.37,0.77,12.37,0.77,-0.77,0.08,-1.07,11.60,11.60,11.59
30.68,12.34,0.75,12.34,0.75,-0.75,0.08,-1.07,11.59,11.59,11.59
30.99,12.30,0.72,12.31,0.72,-0.72,0.09,-1.06,11.58,11.58,11.58
31.30,12.27,0.70,12.27,0.70,-0.70,0.09,-1.06,11.57,11.57,11.57
31.61,12.24,0.67,12.24,0.67,-0.67,0.09,-1.05,11.57,11.57,11.57
31.93,12.21,0.64,12.21,0.64,-0.65,0.09,-1.04,11.56,11.56,11.56
32.24,12.18,0.62,12.18,0.62,-0.62,0.09,-1.03,11.56,11.56,11.56
32.57,12.15,0.59,12.15,0.59,-0.60,0.10,-1.02,11.55,11.56,11.56
32.89,12.13,0.57,12.12,0.57,-0.57,0.10,-1.00,11.55,11.55,11.55
33.22,12.10,0.55,12.10,0.55,-0.55,0.10,-0.99,11.55,11.55,11.55
33.55,12.07,0.53,12.07,0.53,-0.53,0.10,-0.97,11.54,11.54,11.54
33.89,12.04,0.51,12.04,0.51,-0.51,0.11,-0.95,11.54,11.54,11.53
34.23,12.01,0.49,12.01,0.49,-0.49,0.11,-0.92,11.53,11.53,11.52
34.57,11.98,0.47,11.98,0.47,-0.47,0.11,-0.90,11.51,11.51,11.52
34.92,11.95,0.44,11.95,0.44,-0.45,0.11,-0.87,11.50,11.50,11.50
35.27,11.91,0.43,11.91,0.43,-0.43,0.12,-0.85,11.49,11.49,11.49
35.62,11.88,0.41,11.88,0.41,-0.41,0.12,-0.82,11.47,11.47,11.47
35.97,11.85,0.39,11.85,0.39,-0.39,0.12,-0.79,11.45,11.45,11.45
36.33,11.81,0.38,11.81,0.38,-0.38,0.12,-0.76,11.44,11.44,11.44
36.70,11.78,0.36,11.78,0.36,-0.36,0.13,-0.73,11.42,11.42,11.42
37.06,11.75,0.34,11.75,0.34,-0.34,0.13,-0.69,11.40,11.40,11.40
37.43,11.71,0.33,11.71,0.33,-0.33,0.13,-0.66,11.39,11.39,11.39
37.81,11.68,0.31,11.68,0.31,-0.31,0.14,-0.63,11.37,11.37,11.37
38.19,11.64,0.29,11.64,0.29,-0.29,0.14,-0.59,11.36,11.36,11.36
38.57,11.61,0.27,11.61,0.27,-0.27,0.14,-0.56,11.34,11.34,11.34
38.95,11.57,0.25,11.57,0.25,-0.24,0.15,-0.53,11.33,11.33,11.32
39.34,11.53,0.22,11.53,0.22,-0.22,0.15,-0.49,11.31,11.31,11.31
39.74,11.49,0.20,11.49,0.20,-0.20,0.15,-0.46,11.30,11.30,11.30
40.14,11.45,0.17,11.45,0.17,-0.17,0.16,-0.42,11.28,11.28,11.28
40.54,11.41,0.14,11.41,0.14,-0.15,0.16,-0.39,11.27,11.27,11.27
40.94,11.38,0.12,11.38,0.12,-0.12,0.16,-0.35,11.26,11.26,11.26
41.35,11.34,0.09,11.34,0.09,-0.09,0.17,-0.32,11.24,11.24,11.24
41.76,11.30,0.07,11.30,0.07,-0.07,0.17,-0.28,11.23,11.23,11.23
42.18,11.26,0.05,11.26,0.05,-0.05,0.17,-0.25,11.21,11.21,11.21
42.60,11.22,0.02,11.22,0.02,-0.02,0.18,-0.21,11.19,11.19,11.20
43.03,11.18,-0.00,11.18,-0.00,0.00,0.18,-0.18,11.18,11.18,11.18
43.46,11.13,-0.02,11.13,-0.02,0.02,0.19,-0.14,11.16,11.16,11.16
43.90,11.09,-0.05,11.09,-0.05,0.05,0.19,-0.11,11.14,11.14,11.14
44.33,11.05,-0.07,11.05,-0.07,0.07,0.20,-0.07,11.12,11.12,11.12
44.78,11.01,-0.09,11.01,-0.09,0.09,0.20,-0.04,11.10,11.10,11.10
45.23,10.97,-0.11,10.97,-0.11,0.11,0.21,-0.00,11.08,11.08,11.08
45.68,10.92,-0.13,10.92,-0.13,0.13,0.21,0.03,11.05,11.05,11.05
46.13,10.88,-0.15,10.88,-0.15,0.15,0.22,0.07,11.03,11.03,11.03
46.60,10.83,-0.17,10.83,-0.17,0.17,0.22,0.10,11.00,11.01,11.01
47.06,10.79,-0.19,10.79,-0.19,0.19,0.23,0.14,10.98,10.98,10.98
47.53,10.75,-0.21,10.75,-0.21,0.21,0.23,0.17,10.96,10.96,10.96
48.01,10.71,-0.23,10.71,-0.23,0.23,0.24,0.20,10.93,10.93,10.93
48.49,10.66,-0.24,10.66,-0.24,0.24,0.25,0.24,10.91,10.91,10.91
48.97,10.62,-0.26,10.62,-0.26,0.26,0.25,0.27,10.88,10.88,10.88
49.46,10.58,-0.28,10.58,-0.28,0.28,0.26,0.30,10.86,10.86,10.86
49.96,10.54,-0.30,10.54,-0.30,0.30,0.27,0.34,10.84,10.84,10.84
50.46,10.50,-0.32,10.50,-0.32,0.32,0.27,0.37,10.82,10.82,10.82
50.96,10.46,-0.34,10.46,-0.34,0.34,0.28,0.40,10.80,10.80,10.80
51.47,10.42,-0.36,10.42,-0.36,0.36,0.29,0.44,10.78,10.78,10.78
51.99,10.37,-0.38,10.37,-0.38,0.38,0.30,0.47,10.76,10.76,10.75
52.51,10.33,-0.41,10.33,-0.40,0.41,0.30,0.50,10.74,10.74,10.73
53.03,10.28,-0.43,10.28,-0.43,0.43,0.31,0.53,10.72,10.72,10.71
53.56,10.23,-0.46,10.23,-0.46,0.46,0.32,0.56,10.69,10.69,10.69
54.10,10.19,-0.48,10.19,-0.49,0.48,0.33,0.59,10.67,10.67,10.67
54.64,10.14,-0.51,10.14,-0.51,0.51,0.34,0.62,10.65,10.65,10.65
55.18,10.09,-0.54,10.09,-0.54,0.53,0.35,0.65,10.62,10.62,10.63
55.74,10.04,-0.55,10.04,-0.55,0.55,0.36,0.68,10.59,10.59,10.60
56.29,9.99,-0.57,9.99,-0.57,0.56,0.37,0.71,10.55,10.55,10.56
56.86,9.95,-0.57,9.95,-0.57,0.57,0.38,0.73,10.52,10.52,10.52
57.42,9.90,-0.58,9.90,-0.58,0.58,0.39,0.76,10.48,10.48,10.48
58.00,9.85,-0.59,9.85,-0.59,0.59,0.40,0.78,10.44,10.44,10.44
58.58,9.80,-0.60,9.80,-0.60,0.60,0.41,0.81,10.40,10.40,10.40
59.16,9.76,-0.61,9.76,-0.61,0.61,0.42,0.83,10.37,10.37,10.37
59.76,9.71,-0.62,9.71,-0.62,0.62,0.44,0.85,10.33,10.33,10.33
60.35,9.67,-0.63,9.67,-0.63,0.64,0.45,0.87,10.30,10.30,10.30
60.96,9.62,-0.65,9.62,-0.65,0.65,0.46,0.89,10.27,10.27,10.27
61.57,9.57,-0.67,9.57,-0.67,0.67,0.48,0.90,10.24,10.24,10.24
62.18,9.52,-0.69,9.52,-0.69,0.69,0.49,0.92,10.21,10.21,10.21
62.80,9.47,-0.71,9.47,-0.71,0.71,0.51,0.94,10.18,10.18,10.18
63.43,9.42,-0.74,9.42,-0.74,0.73,0.52,0.95,10.15,10.15,10.16
64.07,9.37,-0.76,9.37,-0.76,0.76,0.54,0.96,10.12,10.13,10.13
64.71,9.32,-0.78,9.32,-0.78,0.78,0.55,0.97,10.10,10.10,10.10
65.35,9.26,-0.81,9.26,-0.81,0.81,0.57,0.98,10.07,10.07,10.07
66.01,9.21,-0.83,9.21,-0.83,0.83,0.59,0.99,10.04,10.04,10.04
66.67,9.16,-0.85,9.16,-0.85,0.85,0.61,1.00,10.01,10.01,10.01
67.33,9.11,-0.87,9.11,-0.87,0.87,0.63,1.01,9.98,9.98,9.98
68.01,9.05,-0.89,9.05,-0.89,0.89,0.65,1.01,9.94,9.94,9.95
68.69,9.00,-0.91,9.00,-0.91,0.91,0.67,1.02,9.91,9.91,9.91
69.37,8.94,-0.92,8.94,-0.93,0.93,0.69,1.02,9.87,9.87,9.87
70.07,8.89,-0.94,8.89,-0.94,0.95,0.72,1.03,9.84,9.84,9.83
70.77,8.83,-0.97,8.83,-0.97,0.97,0.74,1.03,9.80,9.80,9.80
71.48,8.77,-0.99,8.77,-0.99,0.99,0.77,1.03,9.77,9.77,9.76
72.19,8.72,-1.01,8.72,-1.01,1.01,0.79,1.04,9.73,9.73,9.73
72.91,8.66,-1.04,8.66,-1.04,1.03,0.82,1.04,9.69,9.69,9.69
73.64,8.60,-1.06,8.60,-1.06,1.06,0.85,1.04,9.66,9.66,9.66
74.38,8.54,-1.08,8.54,-1.08,1.08,0.88,1.04,9.62,9.62,9.62
75.12,8.48,-1.10,8.48,-1.10,1.10,0.91,1.05,9.58,9.58,9.58
75.87,8.42,-1.12,8.42,-1.12,1.12,0.94,1.05,9.54,9.54,9.54
76.63,8.36,-1.14,8.36,-1.14,1.14,0.97,1.05,9.50,9.50,9.50
77.40,8.30,-1.16,8.30,-1.16,1.16,1.01,1.06,9.46,9.46,9.46
78.17,8.24,-1.18,8.24,-1.18,1.18,1.04,1.06,9.42,9.42,9.42
78.95,8.18,-1.20,8.18,-1.20,1.20,1.08,1.07,9.38,9.38,9.38
79.74,8.12,-1.22,8.12,-1.22,1.22,1.12,1.07,9.34,9.34,9.34
80.54,8.05,-1.24,8.05,-1.24,1.25,1.16,1.08,9.30,9.30,9.30
81.35,7.99,-1.27,7.99,-1.27,1.27,1.19,1.09,9.26,9.26,9.26
82.16,7.93,-1.29,7.93,-1.29,1.29,1.23,1.09,9.21,9.21,9.21
82.98,7.86,-1.31,7.86,-1.31,1.31,1.27,1.10,9.17,9.17,9.17
83.81,7.80,-1.33,7.80,-1.33,1.33,1.31,1.11,9.13,9.13,9.13
84.65,7.73,-1.35,7.73,-1.35,1.35,1.35,1.12,9.08,9.08,9.08
85.50,7.66,-1.38,7.66,-1.38,1.38,1.39,1.13,9.04,9.04,9.04
86.35,7.59,-1.40,7.60,-1.40,1.40,1.43,1.14,8.99,8.99,8.99
87.22,7.53,-1.42,7.53,-1.42,1.42,1.47,1.16,8.95,8.95,8.95
88.09,7.46,-1.44,7.46,-1.44,1.44,1.51,1.17,8.91,8.90,8.90
88.97,7.39,-1.47,7.39,-1.47,1.47,1.54,1.19,8.86,8.86,8.86
89.86,7.33,-1.49,7.33,-1.49,1.49,1.58,1.20,8.82,8.82,8.82
90.76,7.26,-1.51,7.26,-1.51,1.51,1.61,1.22,8.77,8.77,8.77
91.66,7.20,-1.53,7.20,-1.53,1.53,1.64,1.24,8.73,8.73,8.73
92.58,7.14,-1.54,7.14,-1.54,1.54,1.67,1.25,8.68,8.68,8.68
93.51,7.08,-1.56,7.08,-1.56,1.56,1.69,1.27,8.64,8.64,8.64
94.44,7.02,-1.57,7.02,-1.57,1.57,1.71,1.29,8.59,8.59,8.59
95.39,6.96,-1.58,6.96,-1.58,1.57,1.73,1.31,8.53,8.53,8.54
96.34,6.91,-1.58,6.91,-1.58,1.57,1.74,1.34,8.48,8.48,8.49
97.30,6.86,-1.58,6.86,-1.58,1.58,1.75,1.36,8.43,8.43,8.43
98.28,6.80,-1.57,6.80,-1.57,1.57,1.76,1.38,8.38,8.38,8.38
99.26,6.75,-1.57,6.75,-1.57,1.57,1.76,1.40,8.33,8.33,8.32
100.25,6.70,-1.57,6.70,-1.57,1.58,1.76,1.43,8.28,8.28,8.27
101.25,6.65,-1.57,6.66,-1.57,1.58,1.76,1.45,8.23,8.23,8.22
102.27,6.61,-1.58,6.61,-1.58,1.59,1.75,1.48,8.19,8.19,8.18
103.29,6.56,-1.59,6.56,-1.59,1.60,1.74,1.50,8.15,8.15,8.15
104.32,6.50,-1.61,6.50,-1.61,1.61,1.73,1.53,8.11,8.11,8.11
105.37,6.44,-1.62,6.44,-1.62,1.62,1.72,1.55,8.06,8.06,8.07
106.42,6.38,-1.64,6.38,-1.64,1.63,1.71,1.58,8.01,8.01,8.02
107.48,6.32,-1.65,6.32,-1.65,1.64,1.69,1.60,7.96,7.96,7.97
108.56,6.26,-1.65,6.26,-1.65,1.65,1.68,1.63,7.90,7.90,7.91
109.64,6.19,-1.65,6.19,-1.65,1.65,1.66,1.65,7.85,7.85,7.84
110.74,6.13,-1.65,6.13,-1.65,1.66,1.64,1.68,7.79,7.79,7.78
111.85,6.08,-1.65,6.08,-1.65,1.66,1.63,1.70,7.73,7.73,7.73
112.97,6.02,-1.66,6.02,-1.66,1.66,1.61,1.72,7.68,7.68,7.68
114.10,5.96,-1.66,5.96,-1.66,1.66,1.60,1.74,7.62,7.62,7.62
115.24,5.91,-1.67,5.90,-1.67,1.67,1.58,1.76,7.57,7.57,7.57
116.39,5.85,-1.67,5.85,-1.67,1.67,1.57,1.78,7.52,7.52,7.52
117.55,5.79,-1.68,5.79,-1.68,1.68,1.56,1.79,7.46,7.46,7.46
118.73,5.72,-1.68,5.72,-1.68,1.68,1.55,1.80,7.41,7.41,7.41
119.92,5.66,-1.69,5.66,-1.69,1.69,1.53,1.82,7.35,7.35,7.35
121.12,5.60,-1.69,5.60,-1.69,1.69,1.52,1.83,7.29,7.29,7.29
122.33,5.54,-1.70,5.54,-1.70,1.70,1.52,1.83,7.24,7.24,7.24
123.55,5.47,-1.70,5.47,-1.70,1.70,1.51,1.84,7.18,7.18,7.18
124.79,5.41,-1.71,5.41,-1.71,1.71,1.50,1.84,7.12,7.12,7.12
126.03,5.35,-1.71,5.35,-1.71,1.71,1.50,1.84,7.06,7.06,7.07
127.29,5.29,-1.72,5.29,-1.72,1.72,1.49,1.84,7.01,7.01,7.01
128.57,5.23,-1.72,5.23,-1.72,1.72,1.49,1.84,6.95,6.95,6.95
129.85,5.17,-1.73,5.17,-1.73,1.73,1.49,1.83,6.90,6.90,6.90
131.15,5.11,-1.73,5.11,-1.73,1.73,1.48,1.83,6.84,6.84,6.84
132.46,5.06,-1.73,5.06,-1.73,1.73,1.48,1.82,6.79,6.79,6.79
133.79,5.00,-1.74,5.00,-1.74,1.74,1.48,1.81,6.74,6.74,6.74
135.12,4.95,-1.74,4.94,-1.74,1.74,1.49,1.79,6.68,6.68,6.68
136.48,4.89,-1.73,4.89,-1.73,1.73,1.49,1.78,6.63,6.63,6.63
137.84,4.84,-1.73,4.84,-1.73,1.73,1.49,1.77,6.57,6.57,6.57
139.22,4.79,-1.72,4.79,-1.72,1.72,1.49,1.75,6.51,6.51,6.52
140.61,4.75,-1.71,4.75,-1.71,1.70,1.49,1.73,6.45,6.45,6.46
142.02,4.70,-1.69,4.70,-1.69,1.69,1.50,1.71,6.39,6.39,6.40
143.44,4.66,-1.68,4.66,-1.67,1.67,1.50,1.69,6.33,6.33,6.34
144.87,4.62,-1.65,4.62,-1.65,1.65,1.51,1.67,6.27,6.27,6.27
146.32,4.57,-1.63,4.57,-1.63,1.64,1.51,1.65,6.21,6.21,6.20
147.78,4.53,-1.61,4.53,-1.61,1.62,1.52,1.63,6.15,6.15,6.14
149.26,4.49,-1.60,4.49,-1.60,1.60,1.52,1.61,6.09,6.09,6.09
150.75,4.45,-1.58,4.45,-1.58,1.58,1.53,1.59,6.03,6.03,6.03
152.26,4.41,-1.57,4.41,-1.57,1.56,1.53,1.57,5.97,5.97,5.98
153.78,4.37,-1.55,4.37,-1.55,1.55,1.53,1.55,5.91,5.91,5.92
155.32,4.33,-1.53,4.33,-1.53,1.53,1.54,1.53,5.86,5.86,5.86
156.88,4.28,-1.51,4.28,-1.51,1.51,1.54,1.51,5.80,5.80,5.80
158.44,4.24,-1.49,4.24,-1.49,1.49,1.55,1.49,5.74,5.74,5.74
160.03,4.20,-1.48,4.20,-1.48,1.48,1.55,1.47,5.67,5.67,5.67
161.63,4.15,-1.46,4.15,-1.46,1.46,1.56,1.46,5.61,5.61,5.61
163.24,4.10,-1.44,4.10,-1.44,1.44,1.56,1.44,5.55,5.55,5.55
164.88,4.06,-1.43,4.05,-1.43,1.43,1.56,1.42,5.48,5.48,5.48
166.53,4.00,-1.41,4.00,-1.41,1.42,1.56,1.41,5.42,5.42,5.42
168.19,3.95,-1.40,3.95,-1.40,1.41,1.56,1.40,5.36,5.36,5.36
169.87,3.90,-1.40,3.90,-1.40,1.40,1.57,1.38,5.30,5.30,5.30
171.57,3.85,-1.39,3.85,-1.39,1.39,1.57,1.37,5.24,5.24,5.24
173.29,3.79,-1.39,3.79,-1.39,1.39,1.57,1.36,5.18,5.18,5.18
175.02,3.73,-1.39,3.73,-1.39,1.39,1.56,1.35,5.12,5.12,5.12
176.77,3.67,-1.39,3.67,-1.39,1.39,1.56,1.34,5.06,5.06,5.06
178.54,3.62,-1.39,3.62,-1.39,1.38,1.56,1.33,5.00,5.00,5.00
180.32,3.55,-1.39,3.55,-1.39,1.38,1.56,1.33,4.94,4.94,4.94
182.13,3.49,-1.38,3.49,-1.38,1.38,1.55,1.32,4.87,4.87,4.88
183.95,3.43,-1.38,3.43,-1.38,1.38,1.55,1.32,4.81,4.81,4.81
185.79,3.37,-1.37,3.37,-1.37,1.37,1.54,1.31,4.74,4.74,4.74
187.65,3.31,-1.36,3.31,-1.36,1.37,1.54,1.31,4.68,4.68,4.67
189.52,3.25,-1.36,3.25,-1.36,1.37,1.53,1.31,4.62,4.62,4.61
191.42,3.19,-1.36,3.19,-1.36,1.37,1.52,1.31,4.56,4.56,4.55
193.33,3.13,-1.37,3.13,-1.37,1.37,1.51,1.31,4.49,4.49,4.49
195.27,3.07,-1.37,3.07,-1.37,1.37,1.50,1.31,4.43,4.43,4.44
197.22,3.01,-1.37,3.01,-1.37,1.37,1.49,1.31,4.37,4.37,4.38
199.19,2.94,-1.37,2.94,-1.37,1.36,1.48,1.31,4.31,4.31,4.31
201.18,2.88,-1.36,2.88,-1.36,1.36,1.47,1.32,4.25,4.25,4.25
203.19,2.82,-1.36,2.82,-1.36,1.36,1.46,1.32,4.18,4.18,4.18
205.23,2.76,-1.36,2.76,-1.36,1.36,1.44,1.32,4.12,4.12,4.12
207.28,2.70,-1.35,2.70,-1.35,1.35,1.43,1.33,4.06,4.06,4.05
209.35,2.64,-1.35,2.64,-1.35,1.35,1.41,1.33,3.99,3.99,3.99
211.44,2.58,-1.34,2.58,-1.34,1.34,1.40,1.34,3.93,3.93,3.93
213.56,2.52,-1.34,2.52,-1.34,1.34,1.38,1.34,3.86,3.86,3.86
215.69,2.46,-1.33,2.46,-1.33,1.33,1.37,1.35,3.80,3.80,3.80
217.85,2.40,-1.33,2.41,-1.33,1.33,1.35,1.35,3.73,3.73,3.73
220.03,2.35,-1.32,2.35,-1.32,1.32,1.33,1.36,3.67,3.67,3.67
222.23,2.29,-1.32,2.29,-1.32,1.32,1.32,1.36,3.60,3.60,3.60
224.45,2.23,-1.31,2.23,-1.31,1.31,1.30,1.37,3.54,3.54,3.54
226.70,2.17,-1.31,2.17,-1.31,1.31,1.28,1.37,3.47,3.47,3.47
228.96,2.11,-1.30,2.11,-1.30,1.30,1.26,1.37,3.41,3.41,3.41
231.25,2.04,-1.30,2.04,-1.30,1.30,1.24,1.37,3.34,3.34,3.34
233.57,1.98,-1.29,1.98,-1.29,1.30,1.22,1.38,3.28,3.28,3.28
235.90,1.92,-1.29,1.92,-1.29,1.29,1.20,1.37,3.22,3.22,3.21
238.26,1.86,-1.29,1.86,-1.29,1.29,1.19,1.37,3.16,3.16,3.15
240.64,1.80,-1.29,1.80,-1.29,1.29,1.17,1.37,3.09,3.09,3.09
243.05,1.75,-1.28,1.75,-1.28,1.28,1.15,1.37,3.03,3.03,3.03
245.48,1.69,-1.28,1.69,-1.28,1.27,1.13,1.36,2.97,2.97,2.97
247.93,1.65,-1.27,1.65,-1.27,1.26,1.11,1.35,2.91,2.91,2.91
250.41,1.60,-1.25,1.61,-1.25,1.24,1.09,1.35,2.84,2.84,2.85
252.92,1.57,-1.22,1.57,-1.22,1.21,1.07,1.34,2.78,2.79,2.79
255.45,1.55,-1.19,1.55,-1.19,1.18,1.05,1.32,2.73,2.73,2.74
258.00,1.53,-1.15,1.53,-1.15,1.14,1.03,1.31,2.67,2.67,2.68
260.58,1.52,-1.10,1.51,-1.10,1.10,1.01,1.30,2.62,2.62,2.62
263.19,1.50,-1.06,1.50,-1.06,1.06,0.99,1.28,2.56,2.56,2.56
265.82,1.48,-1.02,1.48,-1.02,1.03,0.97,1.26,2.51,2.51,2.50
268.48,1.46,-0.98,1.46,-0.98,0.99,0.95,1.25,2.45,2.45,2.44
271.16,1.42,-0.95,1.42,-0.95,0.96,0.94,1.23,2.39,2.39,2.38
273.87,1.39,-0.94,1.39,-0.94,0.94,0.92,1.21,2.33,2.33,2.32
276.61,1.34,-0.92,1.34,-0.92,0.92,0.90,1.18,2.27,2.27,2.27
279.38,1.30,-0.91,1.30,-0.91,0.91,0.88,1.16,2.20,2.20,2.21
282.17,1.25,-0.90,1.25,-0.90,0.89,0.87,1.14,2.14,2.14,2.15
284.99,1.20,-0.89,1.20,-0.89,0.88,0.85,1.11,2.08,2.08,2.09
287.84,1.15,-0.87,1.15,-0.87,0.87,0.83,1.09,2.03,2.03,2.02
290.72,1.10,-0.86,1.10,-0.86,0.86,0.82,1.06,1.97,1.97,1.96
293.63,1.05,-0.85,1.05,-0.85,0.85,0.80,1.04,1.91,1.91,1.90
296.57,1.01,-0.84,1.01,-0.84,0.84,0.79,1.01,1.85,1.85,1.85
299.53,0.96,-0.84,0.96,-0.84,0.84,0.78,0.99,1.79,1.79,1.80
302.53,0.91,-0.83,0.91,-0.83,0.83,0.77,0.96,1.74,1.74,1.74
305.55,0.86,-0.82,0.86,-0.82,0.82,0.75,0.93,1.68,1.68,1.69
308.61,0.82,-0.81,0.82,-0.81,0.81,0.74,0.91,1.63,1.63,1.63
311.69,0.77,-0.80,0.77,-0.80,0.80,0.74,0.88,1.57,1.57,1.57
314.81,0.73,-0.79,0.73,-0.79,0.79,0.73,0.86,1.52,1.52,1.52
317.96,0.68,-0.77,0.68,-0.77,0.77,0.72,0.83,1.46,1.46,1.46
321.14,0.64,-0.76,0.64,-0.76,0.76,0.72,0.80,1.40,1.40,1.40
324.35,0.60,-0.75,0.60,-0.75,0.75,0.71,0.78,1.34,1.34,1.34
327.59,0.56,-0.73,0.56,-0.73,0.73,0.71,0.75,1.29,1.29,1.29
330.87,0.51,-0.72,0.51,-0.72,0.72,0.71,0.73,1.23,1.23,1.23
334.18,0.47,-0.70,0.47,-0.70,0.70,0.71,0.71,1.17,1.17,1.17
337.52,0.43,-0.69,0.43,-0.69,0.69,0.71,0.68,1.12,1.12,1.12
340.90,0.39,-0.67,0.39,-0.67,0.67,0.71,0.66,1.06,1.06,1.06
344.30,0.35,-0.66,0.35,-0.65,0.65,0.71,0.63,1.01,1.01,1.01
347.75,0.31,-0.64,0.31,-0.64,0.64,0.70,0.61,0.95,0.95,0.95
351.23,0.27,-0.62,0.27,-0.62,0.62,0.69,0.59,0.90,0.90,0.90
354.74,0.23,-0.61,0.23,-0.61,0.61,0.67,0.57,0.84,0.84,0.84
358.28,0.20,-0.59,0.20,-0.59,0.59,0.65,0.55,0.79,0.79,0.79
361.87,0.16,-0.58,0.16,-0.58,0.58,0.63,0.53,0.74,0.74,0.74
365.49,0.12,-0.56,0.12,-0.56,0.56,0.60,0.51,0.68,0.68,0.69
369.14,0.08,-0.55,0.08,-0.55,0.55,0.57,0.49,0.63,0.63,0.63
372.83,0.05,-0.53,0.05,-0.53,0.53,0.55,0.47,0.58,0.58,0.58
376.56,0.01,-0.52,0.01,-0.52,0.52,0.52,0.45,0.53,0.53,0.53
380.33,-0.02,-0.50,-0.02,-0.50,0.50,0.49,0.43,0.48,0.48,0.48
384.13,-0.06,-0.49,-0.06,-0.49,0.49,0.46,0.41,0.43,0.43,0.43
387.97,-0.09,-0.47,-0.09,-0.47,0.47,0.44,0.39,0.38,0.38,0.38
391.85,-0.13,-0.46,-0.13,-0.46,0.46,0.41,0.37,0.33,0.33,0.33
395.77,-0.16,-0.44,-0.16,-0.44,0.44,0.39,0.36,0.28,0.28,0.28
399.73,-0.19,-0.43,-0.19,-0.42,0.42,0.37,0.34,0.23,0.23,0.23
403.72,-0.23,-0.41,-0.23,-0.41,0.41,0.35,0.32,0.18,0.18,0.18
407.76,-0.26,-0.39,-0.26,-0.39,0.39,0.33,0.31,0.14,0.13,0.13
411.84,-0.29,-0.38,-0.29,-0.38,0.38,0.32,0.29,0.09,0.09,0.09
415.96,-0.32,-0.36,-0.32,-0.36,0.36,0.30,0.28,0.04,0.04,0.04
420.12,-0.35,-0.35,-0.35,-0.35,0.35,0.28,0.26,-0.01,-0.01,-0.01
424.32,-0.38,-0.33,-0.38,-0.33,0.33,0.27,0.25,-0.05,-0.05,-0.05
428.56,-0.41,-0.32,-0.41,-0.32,0.32,0.25,0.23,-0.10,-0.10,-0.10
432.85,-0.44,-0.30,-0.44,-0.30,0.30,0.24,0.22,-0.14,-0.14,-0.14
437.18,-0.47,-0.29,-0.47,-0.29,0.29,0.23,0.20,-0.19,-0.19,-0.19
441.55,-0.50,-0.27,-0.50,-0.27,0.27,0.21,0.19,-0.23,-0.23,-0.23
445.96,-0.53,-0.26,-0.53,-0.26,0.26,0.20,0.18,-0.27,-0.27,-0.27
450.42,-0.56,-0.24,-0.56,-0.24,0.24,0.19,0.16,-0.32,-0.32,-0.32
454.93,-0.59,-0.23,-0.59,-0.23,0.23,0.18,0.15,-0.36,-0.36,-0.36
459.48,-0.61,-0.21,-0.61,-0.21,0.21,0.16,0.14,-0.40,-0.40,-0.40
464.07,-0.64,-0.20,-0.64,-0.20,0.20,0.15,0.13,-0.44,-0.44,-0.44
468.71,-0.67,-0.19,-0.67,-0.19,0.19,0.14,0.12,-0.48,-0.48,-0.48
473.40,-0.69,-0.17,-0.69,-0.17,0.17,0.13,0.11,-0.52,-0.52,-0.52
478.13,-0.72,-0.16,-0.72,-0.16,0.16,0.12,0.09,-0.56,-0.56,-0.56
482.91,-0.74,-0.15,-0.74,-0.15,0.15,0.11,0.08,-0.59,-0.59,-0.59
487.74,-0.77,-0.13,-0.77,-0.13,0.13,0.10,0.07,-0.63,-0.63,-0.63
492.62,-0.79,-0.12,-0.79,-0.12,0.12,0.09,0.06,-0.67,-0.67,-0.67
497.55,-0.81,-0.11,-0.81,-0.11,0.11,0.08,0.05,-0.71,-0.71,-0.71
502.52,-0.84,-0.09,-0.84,-0.09,0.09,0.07,0.05,-0.74,-0.74,-0.74
507.55,-0.86,-0.08,-0.86,-0.08,0.08,0.06,0.04,-0.78,-0.78,-0.78
512.62,-0.88,-0.07,-0.88,-0.07,0.07,0.05,0.03,-0.81,-0.81,-0.81
