frequency,raw,error,smoothed,error_smoothed,equalization,parametric_eq,fixed_band_eq,equalized_raw,equalized_smoothed,target
20.00,3.68,-0.96,3.67,-0.96,0.94,1.08,0.43,4.62,4.62,4.64
20.20,3.69,-1.07,3.69,-1.07,1.06,1.14,0.44,4.75,4.76,4.76
20.40,3.71,-1.17,3.71,-1.17,1.17,1.21,0.46,4.88,4.88,4.88
20.61,3.73,-1.27,3.73,-1.27,1.27,1.28,0.47,5.00,5.00,5.00
20.81,3.75,-1.35,3.75,-1.35,1.36,1.34,0.49,5.11,5.11,5.10
21.02,3.76,-1.43,3.76,-1.43,1.45,1.41,0.50,5.21,5.21,5.19
21.23,3.77,-1.50,3.77,-1.50,1.52,1.48,0.52,5.30,5.30,5.27
21.44,3.78,-1.57,3.78,-1.57,1.59,1.54,0.53,5.37,5.37,5.35
21.66,3.79,-1.64,3.79,-1.64,1.66,1.60,0.55,5.45,5.45,5.43
21.87,3.79,-1.71,3.79,-1.71,1.72,1.65,0.57,5.51,5.51,5.49
22.09,3.79,-1.77,3.79,-1.76,1.77,1.69,0.59,5.55,5.55,5.55
22.31,3.79,-1.81,3.79,-1.81,1.79,1.71,0.60,5.58,5.58,5.59
22.54,3.79,-1.83,3.79,-1.83,1.80,1.72,0.62,5.58,5.58,5.61
22.76,3.79,-1.82,3.79,-1.81,1.77,1.71,0.64,5.56,5.56,5.61
22.99,3.79,-1.76,3.80,-1.76,1.71,1.70,0.66,5.50,5.50,5.55
23.22,3.81,-1.67,3.81,-1.67,1.62,1.66,0.68,5.43,5.43,5.48
23.45,3.82,-1.56,3.82,-1.55,1.52,1.63,0.70,5.33,5.33,5.37
23.69,3.83,-1.41,3.83,-1.41,1.41,1.58,0.72,5.24,5.24,5.24
23.92,3.84,-1.28,3.84,-1.28,1.31,1.54,0.75,5.16,5.16,5.13
24.16,3.85,-1.17,3.85,-1.18,1.24,1.49,0.77,5.10,5.10,5.02
24.40,3.86,-1.11,3.86,-1.12,1.21,1.44,0.79,5.07,5.07,4.97
24.65,3.86,-1.12,3.86,-1.13,1.21,1.40,0.81,5.08,5.07,4.99
24.89,3.86,-1.19,3.86,-1.19,1.26,1.35,0.83,5.12,5.11,5.04
25.14,3.85,-1.30,3.85,-1.30,1.33,1.31,0.86,5.18,5.18,5.15
25.39,3.84,-1.44,3.84,-1.43,1.42,1.28,0.88,5.26,5.26,5.28
25.65,3.83,-1.56,3.83,-1.56,1.50,1.25,0.90,5.33,5.33,5.39
25.91,3.83,-1.65,3.83,-1.64,1.56,1.21,0.92,5.39,5.39,5.48
26.16,3.83,-1.67,3.83,-1.67,1.59,1.19,0.95,5.42,5.42,5.50
26.43,3.84,-1.66,3.84,-1.65,1.59,1.16,0.97,5.43,5.43,5.49
26.69,3.86,-1.59,3.86,-1.58,1.56,1.14,0.99,5.42,5.42,5.45
26.96,3.88,-1.49,3.88,-1.49,1.50,1.12,1.01,5.37,5.38,5.36
27.23,3.90,-1.38,3.90,-1.38,1.42,1.11,1.03,5.32,5.32,5.28
27.50,3.92,-1.28,3.92,-1.28,1.33,1.09,1.05,5.25,5.25,5.20
27.77,3.94,-1.20,3.94,-1.20,1.24,1.08,1.06,5.18,5.18,5.14
28.05,3.95,-1.14,3.95,-1.14,1.16,1.06,1.08,5.11,5.10,5.09
28.33,3.95,-1.08,3.95,-1.08,1.08,1.05,1.10,5.03,5.03,5.04
28.62,3.96,-1.03,3.96,-1.02,1.01,1.04,1.11,4.97,4.97,4.98
28.90,3.96,-0.96,3.96,-0.96,0.94,1.03,1.12,4.90,4.90,4.92
29.19,3.97,-0.89,3.97,-0.89,0.88,1.02,1.13,4.84,4.84,4.86
29.48,3.97,-0.82,3.97,-0.82,0.81,1.01,1.14,4.78,4.78,4.79
29.78,3.99,-0.75,3.99,-0.75,0.74,1.00,1.15,4.73,4.73,4.74
30.08,4.00,-0.69,4.00,-0.69,0.67,0.99,1.15,4.67,4.67,4.69
30.38,4.02,-0.63,4.02,-0.63,0.62,0.98,1.16,4.63,4.63,4.65
30.68,4.03,-0.58,4.03,-0.57,0.58,0.97,1.15,4.61,4.61,4.61
30.99,4.04,-0.54,4.04,-0.54,0.57,0.96,1.15,4.62,4.62,4.58
31.30,4.05,-0.52,4.05,-0.53,0.60,0.94,1.15,4.65,4.65,4.57
31.61,4.05,-0.57,4.05,-0.57,0.65,0.93,1.14,4.70,4.70,4.62
31.93,4.05,-0.65,4.05,-0.66,0.72,0.92,1.13,4.77,4.77,4.71
32.24,4.05,-0.78,4.05,-0.78,0.79,0.91,1.12,4.84,4.83,4.82
32.57,4.04,-0.91,4.04,-0.90,0.85,0.89,1.11,4.89,4.89,4.95
32.89,4.04,-1.00,4.04,-1.00,0.90,0.88,1.10,4.94,4.94,5.04
33.22,4.05,-1.04,4.05,-1.03,0.92,0.87,1.08,4.97,4.97,5.09
33.55,4.05,-1.00,4.06,-1.00,0.92,0.85,1.06,4.98,4.98,5.06
33.89,4.07,-0.91,4.06,-0.91,0.91,0.83,1.04,4.97,4.97,4.98
34.23,4.07,-0.81,4.07,-0.82,0.87,0.82,1.01,4.94,4.94,4.88
34.57,4.06,-0.73,4.05,-0.74,0.84,0.80,0.99,4.89,4.89,4.79
34.92,4.03,-0.71,4.03,-0.72,0.80,0.78,0.96,4.82,4.82,4.74
35.27,3.99,-0.73,3.99,-0.73,0.76,0.77,0.94,4.75,4.75,4.72
35.62,3.95,-0.76,3.95,-0.76,0.73,0.75,0.91,4.68,4.68,4.71
35.97,3.92,-0.78,3.93,-0.77,0.71,0.73,0.88,4.64,4.64,4.71
36.33,3.92,-0.77,3.93,-0.76,0.71,0.71,0.85,4.63,4.63,4.69
36.70,3.94,-0.72,3.94,-0.72,0.70,0.69,0.82,4.65,4.65,4.67
37.06,3.97,-0.68,3.97,-0.68,0.71,0.66,0.78,4.68,4.68,4.65
37.43,4.00,-0.65,4.00,-0.65,0.71,0.64,0.75,4.71,4.71,4.65
37.81,4.02,-0.65,4.02,-0.65,0.71,0.62,0.72,4.73,4.73,4.67
38.19,4.04,-0.68,4.04,-0.68,0.71,0.60,0.68,4.75,4.75,4.71
38.57,4.05,-0.72,4.05,-0.72,0.71,0.57,0.65,4.75,4.75,4.76
38.95,4.05,-0.75,4.05,-0.75,0.70,0.55,0.61,4.76,4.76,4.80
39.34,4.06,-0.76,4.06,-0.75,0.70,0.52,0.58,4.76,4.76,4.82
39.74,4.07,-0.72,4.07,-0.72,0.68,0.50,0.54,4.76,4.76,4.79
40.14,4.08,-0.67,4.08,-0.67,0.66,0.48,0.51,4.74,4.73,4.74
40.54,4.08,-0.59,4.08,-0.60,0.62,0.45,0.48,4.70,4.70,4.67
40.94,4.07,-0.54,4.07,-0.54,0.57,0.42,0.44,4.64,4.64,4.61
41.35,4.07,-0.49,4.07,-0.49,0.51,0.40,0.41,4.58,4.58,4.56
41.76,4.07,-0.46,4.07,-0.45,0.45,0.37,0.37,4.51,4.52,4.53
42.18,4.07,-0.41,4.07,-0.41,0.39,0.34,0.34,4.46,4.46,4.48
42.60,4.07,-0.35,4.07,-0.35,0.33,0.32,0.30,4.41,4.41,4.43
43.03,4.08,-0.28,4.08,-0.28,0.29,0.29,0.27,4.36,4.36,4.35
43.46,4.08,-0.21,4.08,-0.22,0.25,0.26,0.23,4.32,4.32,4.29
43.90,4.08,-0.17,4.08,-0.18,0.21,0.24,0.20,4.29,4.29,4.25
44.33,4.08,-0.15,4.08,-0.16,0.17,0.21,0.17,4.26,4.26,4.23
44.78,4.09,-0.15,4.09,-0.15,0.14,0.18,0.13,4.22,4.22,4.23
45.23,4.09,-0.13,4.09,-0.13,0.11,0.15,0.10,4.19,4.19,4.22
45.68,4.09,-0.11,4.09,-0.10,0.07,0.13,0.07,4.16,4.16,4.19
46.13,4.09,-0.06,4.09,-0.06,0.04,0.10,0.03,4.13,4.13,4.14
46.60,4.08,-0.01,4.08,-0.01,0.00,0.07,-0.00,4.09,4.09,4.09
47.06,4.08,0.04,4.08,0.04,-0.04,0.04,-0.03,4.04,4.04,4.04
47.53,4.07,0.09,4.07,0.09,-0.08,0.01,-0.07,4.00,4.00,3.99
48.01,4.07,0.12,4.07,0.12,-0.11,-0.01,-0.10,3.96,3.96,3.95
48.49,4.07,0.15,4.07,0.15,-0.14,-0.04,-0.13,3.92,3.92,3.91
48.97,4.06,0.18,4.06,0.18,-0.16,-0.07,-0.16,3.90,3.90,3.88
49.46,4.06,0.19,4.06,0.19,-0.17,-0.10,-0.19,3.89,3.89,3.87
49.96,4.06,0.19,4.06,0.19,-0.17,-0.12,-0.22,3.88,3.88,3.87
50.46,4.06,0.19,4.06,0.18,-0.17,-0.15,-0.26,3.88,3.88,3.87
50.96,4.05,0.18,4.05,0.17,-0.17,-0.18,-0.29,3.88,3.88,3.88
51.47,4.05,0.16,4.05,0.16,-0.18,-0.21,-0.32,3.87,3.87,3.88
51.99,4.05,0.16,4.05,0.16,-0.19,-0.23,-0.35,3.86,3.86,3.89
52.51,4.04,0.17,4.04,0.17,-0.21,-0.26,-0.38,3.83,3.83,3.88
53.03,4.04,0.21,4.04,0.21,-0.24,-0.29,-0.41,3.80,3.80,3.83
53.56,4.04,0.27,4.04,0.27,-0.28,-0.32,-0.44,3.76,3.76,3.76
54.10,4.03,0.34,4.03,0.34,-0.32,-0.34,-0.47,3.72,3.72,3.69
54.64,4.03,0.39,4.03,0.39,-0.36,-0.37,-0.49,3.67,3.67,3.64
55.18,4.03,0.43,4.03,0.43,-0.41,-0.40,-0.52,3.62,3.62,3.60
55.74,4.04,0.46,4.04,0.46,-0.45,-0.43,-0.55,3.58,3.58,3.57
56.29,4.04,0.49,4.04,0.49,-0.49,-0.45,-0.58,3.55,3.55,3.55
56.86,4.04,0.51,4.04,0.51,-0.52,-0.48,-0.60,3.52,3.52,3.53
57.42,4.04,0.53,4.04,0.53,-0.55,-0.51,-0.63,3.49,3.49,3.51
58.00,4.04,0.56,4.04,0.57,-0.57,-0.53,-0.65,3.47,3.47,3.47
58.58,4.03,0.60,4.03,0.60,-0.59,-0.56,-0.68,3.45,3.45,3.44
59.16,4.03,0.63,4.03,0.62,-0.60,-0.59,-0.70,3.43,3.43,3.40
59.76,4.03,0.64,4.03,0.64,-0.62,-0.61,-0.72,3.41,3.41,3.39
60.35,4.02,0.64,4.02,0.64,-0.64,-0.64,-0.74,3.38,3.38,3.38
60.96,4.02,0.64,4.02,0.65,-0.66,-0.67,-0.77,3.36,3.36,3.38
61.57,4.01,0.66,4.01,0.66,-0.69,-0.69,-0.79,3.33,3.33,3.36
62.18,4.01,0.70,4.01,0.69,-0.71,-0.72,-0.80,3.30,3.29,3.31
62.80,4.00,0.74,4.00,0.74,-0.74,-0.74,-0.82,3.26,3.26,3.26
63.43,4.00,0.78,4.00,0.78,-0.78,-0.77,-0.84,3.22,3.22,3.21
64.07,3.99,0.82,3.99,0.83,-0.81,-0.80,-0.86,3.18,3.18,3.17
64.71,3.99,0.86,3.99,0.86,-0.85,-0.82,-0.87,3.14,3.14,3.13
65.35,3.99,0.90,3.99,0.90,-0.88,-0.85,-0.89,3.10,3.10,3.09
66.01,3.98,0.92,3.98,0.92,-0.91,-0.87,-0.90,3.07,3.07,3.06
66.67,3.98,0.94,3.98,0.94,-0.94,-0.90,-0.91,3.04,3.04,3.04
67.33,3.98,0.95,3.98,0.96,-0.97,-0.92,-0.93,3.00,3.00,3.02
68.01,3.97,0.98,3.97,0.98,-1.00,-0.95,-0.94,2.97,2.97,2.99
68.69,3.97,1.01,3.97,1.02,-1.03,-0.97,-0.95,2.94,2.94,2.95
69.37,3.96,1.06,3.96,1.06,-1.05,-1.00,-0.96,2.91,2.91,2.90
70.07,3.96,1.10,3.96,1.09,-1.07,-1.02,-0.98,2.89,2.89,2.86
70.77,3.95,1.11,3.95,1.11,-1.09,-1.05,-0.99,2.86,2.86,2.84
71.48,3.95,1.12,3.95,1.12,-1.11,-1.07,-1.00,2.83,2.83,2.83
72.19,3.94,1.13,3.94,1.13,-1.13,-1.10,-1.01,2.81,2.81,2.81
72.91,3.93,1.14,3.93,1.14,-1.15,-1.12,-1.02,2.79,2.79,2.80
73.64,3.93,1.15,3.93,1.15,-1.16,-1.15,-1.04,2.76,2.76,2.78
74.38,3.92,1.17,3.92,1.18,-1.18,-1.17,-1.05,2.74,2.74,2.75
75.12,3.92,1.20,3.92,1.20,-1.20,-1.20,-1.06,2.72,2.72,2.71
75.87,3.91,1.23,3.92,1.23,-1.23,-1.22,-1.07,2.69,2.69,2.68
76.63,3.91,1.25,3.91,1.26,-1.26,-1.25,-1.09,2.65,2.65,2.66
77.40,3.91,1.28,3.91,1.28,-1.28,-1.27,-1.10,2.62,2.62,2.62
78.17,3.90,1.31,3.90,1.31,-1.31,-1.30,-1.11,2.59,2.59,2.59
78.95,3.89,1.34,3.89,1.34,-1.34,-1.32,-1.13,2.56,2.56,2.55
79.74,3.88,1.37,3.88,1.37,-1.36,-1.34,-1.15,2.52,2.52,2.52
80.54,3.88,1.38,3.88,1.38,-1.38,-1.37,-1.16,2.49,2.49,2.49
81.35,3.87,1.40,3.87,1.40,-1.40,-1.39,-1.18,2.46,2.46,2.47
82.16,3.86,1.42,3.86,1.42,-1.42,-1.42,-1.20,2.44,2.44,2.44
82.98,3.85,1.44,3.85,1.44,-1.44,-1.44,-1.22,2.41,2.41,2.41
83.81,3.84,1.46,3.84,1.46,-1.45,-1.46,-1.24,2.39,2.39,2.38
84.65,3.84,1.47,3.84,1.47,-1.47,-1.49,-1.26,2.37,2.37,2.37
85.50,3.84,1.48,3.84,1.49,-1.49,-1.51,-1.28,2.35,2.35,2.35
86.35,3.83,1.50,3.83,1.50,-1.51,-1.53,-1.30,2.32,2.32,2.33
87.22,3.83,1.52,3.83,1.52,-1.54,-1.56,-1.33,2.29,2.29,2.30
88.09,3.82,1.55,3.82,1.55,-1.57,-1.58,-1.35,2.25,2.25,2.27
88.97,3.81,1.59,3.81,1.59,-1.61,-1.60,-1.38,2.21,2.21,2.23
89.86,3.81,1.63,3.81,1.64,-1.64,-1.62,-1.41,2.17,2.17,2.17
90.76,3.80,1.70,3.80,1.69,-1.67,-1.65,-1.44,2.13,2.13,2.10
91.66,3.79,1.73,3.79,1.72,-1.69,-1.67,-1.47,2.10,2.10,2.06
92.58,3.78,1.74,3.78,1.74,-1.71,-1.69,-1.50,2.07,2.07,2.04
93.51,3.77,1.73,3.77,1.73,-1.73,-1.71,-1.53,2.04,2.04,2.04
94.44,3.76,1.73,3.76,1.73,-1.74,-1.74,-1.56,2.02,2.02,2.03
95.39,3.75,1.73,3.75,1.73,-1.75,-1.76,-1.59,2.01,2.01,2.03
96.34,3.75,1.73,3.75,1.74,-1.75,-1.78,-1.63,1.99,1.99,2.01
97.30,3.74,1.75,3.74,1.75,-1.76,-1.80,-1.66,1.97,1.97,1.99
98.28,3.73,1.77,3.73,1.77,-1.78,-1.82,-1.70,1.95,1.95,1.96
99.26,3.72,1.80,3.72,1.80,-1.80,-1.85,-1.74,1.92,1.92,1.92
100.25,3.71,1.82,3.71,1.82,-1.82,-1.87,-1.77,1.89,1.89,1.89
101.25,3.70,1.85,3.70,1.85,-1.84,-1.89,-1.81,1.86,1.86,1.86
102.27,3.69,1.87,3.69,1.87,-1.86,-1.91,-1.85,1.83,1.83,1.82
103.29,3.68,1.89,3.68,1.89,-1.88,-1.93,-1.89,1.80,1.80,1.79
104.32,3.67,1.91,3.67,1.91,-1.90,-1.95,-1.93,1.77,1.77,1.77
105.37,3.66,1.92,3.66,1.92,-1.92,-1.97,-1.97,1.74,1.74,1.74
106.42,3.65,1.93,3.65,1.94,-1.94,-1.99,-2.00,1.72,1.72,1.72
107.48,3.64,1.95,3.64,1.95,-1.95,-2.01,-2.04,1.69,1.69,1.69
108.56,3.63,1.97,3.63,1.97,-1.96,-2.03,-2.08,1.67,1.67,1.66
109.64,3.62,1.98,3.62,1.98,-1.98,-2.05,-2.12,1.64,1.64,1.64
110.74,3.61,1.99,3.61,1.99,-1.99,-2.07,-2.15,1.61,1.61,1.62
111.85,3.60,2.01,3.60,2.01,-2.01,-2.09,-2.19,1.58,1.58,1.59
112.97,3.59,2.02,3.59,2.02,-2.04,-2.11,-2.22,1.55,1.55,1.56
114.10,3.58,2.05,3.58,2.05,-2.06,-2.13,-2.25,1.51,1.51,1.53
115.24,3.57,2.08,3.57,2.08,-2.09,-2.15,-2.29,1.48,1.48,1.48
116.39,3.56,2.12,3.56,2.12,-2.12,-2.17,-2.32,1.44,1.44,1.43
117.55,3.55,2.16,3.55,2.16,-2.15,-2.18,-2.34,1.39,1.39,1.38
118.73,3.54,2.19,3.54,2.19,-2.18,-2.20,-2.37,1.35,1.35,1.34
119.92,3.52,2.22,3.52,2.22,-2.21,-2.22,-2.39,1.31,1.31,1.31
121.12,3.51,2.24,3.51,2.24,-2.24,-2.24,-2.41,1.28,1.28,1.28
122.33,3.50,2.26,3.50,2.26,-2.26,-2.26,-2.43,1.25,1.24,1.24
123.55,3.49,2.28,3.49,2.28,-2.27,-2.27,-2.45,1.22,1.22,1.21
124.79,3.47,2.29,3.47,2.29,-2.28,-2.29,-2.46,1.19,1.19,1.18
126.03,3.46,2.30,3.46,2.30,-2.30,-2.31,-2.47,1.16,1.16,1.16
127.29,3.45,2.30,3.45,2.31,-2.31,-2.32,-2.48,1.13,1.13,1.14
128.57,3.43,2.32,3.43,2.32,-2.33,-2.34,-2.49,1.10,1.10,1.12
129.85,3.42,2.34,3.42,2.34,-2.35,-2.35,-2.49,1.06,1.06,1.08
131.15,3.40,2.37,3.41,2.37,-2.38,-2.37,-2.49,1.03,1.03,1.04
132.46,3.39,2.40,3.39,2.40,-2.40,-2.38,-2.49,0.99,0.99,0.99
133.79,3.38,2.43,3.38,2.43,-2.43,-2.40,-2.49,0.95,0.95,0.95
135.12,3.37,2.46,3.37,2.46,-2.45,-2.41,-2.49,0.92,0.92,0.91
136.48,3.35,2.48,3.35,2.48,-2.47,-2.43,-2.48,0.88,0.88,0.87
137.84,3.34,2.50,3.34,2.50,-2.49,-2.44,-2.47,0.85,0.85,0.84
139.22,3.33,2.51,3.33,2.51,-2.51,-2.46,-2.47,0.82,0.82,0.82
140.61,3.31,2.52,3.31,2.52,-2.52,-2.47,-2.46,0.79,0.79,0.80
142.02,3.30,2.52,3.30,2.52,-2.52,-2.48,-2.45,0.77,0.77,0.78
143.44,3.28,2.52,3.28,2.52,-2.53,-2.50,-2.44,0.75,0.75,0.76
144.87,3.27,2.53,3.27,2.53,-2.53,-2.51,-2.43,0.74,0.74,0.74
146.32,3.25,2.53,3.25,2.53,-2.54,-2.52,-2.41,0.72,0.72,0.72
147.78,3.24,2.54,3.24,2.54,-2.54,-2.53,-2.40,0.70,0.70,0.70
149.26,3.22,2.54,3.22,2.54,-2.54,-2.54,-2.39,0.69,0.69,0.68
150.75,3.21,2.54,3.21,2.54,-2.53,-2.56,-2.38,0.67,0.67,0.67
152.26,3.19,2.53,3.19,2.53,-2.53,-2.57,-2.37,0.66,0.66,0.66
153.78,3.18,2.53,3.18,2.53,-2.52,-2.58,-2.36,0.65,0.65,0.65
155.32,3.16,2.51,3.16,2.51,-2.51,-2.59,-2.36,0.65,0.65,0.65
156.88,3.14,2.50,3.14,2.50,-2.50,-2.60,-2.35,0.64,0.64,0.64
158.44,3.13,2.49,3.13,2.49,-2.49,-2.61,-2.34,0.64,0.64,0.64
160.03,3.11,2.47,3.11,2.47,-2.47,-2.62,-2.34,0.64,0.64,0.64
161.63,3.09,2.46,3.09,2.46,-2.45,-2.62,-2.34,0.64,0.64,0.64
163.24,3.08,2.44,3.08,2.44,-2.44,-2.63,-2.33,0.64,0.64,0.63
164.88,3.06,2.43,3.06,2.43,-2.43,-2.64,-2.34,0.63,0.64,0.63
166.53,3.04,2.42,3.04,2.42,-2.42,-2.65,-2.34,0.63,0.63,0.62
168.19,3.03,2.42,3.03,2.41,-2.42,-2.66,-2.34,0.61,0.61,0.61
169.87,3.01,2.42,3.01,2.42,-2.43,-2.66,-2.34,0.58,0.58,0.60
171.57,2.99,2.43,2.99,2.43,-2.45,-2.67,-2.35,0.55,0.55,0.56
173.29,2.98,2.46,2.98,2.46,-2.48,-2.68,-2.36,0.50,0.50,0.51
175.02,2.96,2.50,2.96,2.50,-2.52,-2.68,-2.37,0.44,0.44,0.45
176.77,2.94,2.56,2.94,2.56,-2.56,-2.69,-2.38,0.37,0.37,0.38
178.54,2.92,2.61,2.92,2.61,-2.61,-2.69,-2.40,0.31,0.31,0.30
180.32,2.90,2.67,2.90,2.67,-2.66,-2.70,-2.41,0.24,0.24,0.23
182.13,2.88,2.72,2.88,2.72,-2.70,-2.70,-2.43,0.18,0.18,0.16
183.95,2.86,2.76,2.86,2.76,-2.74,-2.70,-2.45,0.12,0.12,0.11
185.79,2.84,2.78,2.84,2.78,-2.77,-2.71,-2.47,0.07,0.07,0.06
187.65,2.83,2.80,2.83,2.80,-2.80,-2.71,-2.50,0.03,0.03,0.02
189.52,2.81,2.81,2.81,2.81,-2.81,-2.71,-2.52,-0.01,-0.01,-0.00
191.42,2.79,2.82,2.79,2.82,-2.83,-2.72,-2.55,-0.04,-0.04,-0.03
193.33,2.77,2.83,2.77,2.83,-2.83,-2.72,-2.58,-0.07,-0.07,-0.06
195.27,2.75,2.83,2.75,2.83,-2.84,-2.72,-2.60,-0.09,-0.09,-0.09
197.22,2.73,2.84,2.73,2.84,-2.84,-2.72,-2.64,-0.11,-0.11,-0.11
199.19,2.70,2.84,2.70,2.84,-2.84,-2.72,-2.67,-0.13,-0.13,-0.14
201.18,2.68,2.84,2.68,2.84,-2.83,-2.72,-2.70,-0.15,-0.15,-0.16
203.19,2.66,2.83,2.66,2.83,-2.83,-2.72,-2.73,-0.17,-0.17,-0.17
205.23,2.64,2.83,2.64,2.82,-2.83,-2.72,-2.77,-0.18,-0.18,-0.18
207.28,2.62,2.82,2.62,2.82,-2.82,-2.72,-2.80,-0.20,-0.20,-0.20
209.35,2.60,2.81,2.60,2.81,-2.82,-2.72,-2.84,-0.22,-0.22,-0.21
211.44,2.58,2.81,2.58,2.81,-2.81,-2.72,-2.87,-0.24,-0.24,-0.23
213.56,2.55,2.81,2.55,2.81,-2.81,-2.72,-2.91,-0.26,-0.26,-0.25
215.69,2.53,2.81,2.53,2.81,-2.81,-2.72,-2.94,-0.28,-0.28,-0.28
217.85,2.51,2.81,2.51,2.81,-2.81,-2.72,-2.98,-0.30,-0.30,-0.30
220.03,2.49,2.82,2.49,2.82,-2.81,-2.71,-3.01,-0.33,-0.33,-0.33
222.23,2.46,2.82,2.46,2.82,-2.82,-2.71,-3.04,-0.35,-0.35,-0.36
224.45,2.44,2.82,2.44,2.82,-2.82,-2.71,-3.07,-0.38,-0.38,-0.38
226.70,2.42,2.82,2.42,2.82,-2.83,-2.70,-3.10,-0.41,-0.41,-0.41
228.96,2.39,2.82,2.39,2.82,-2.83,-2.70,-3.13,-0.44,-0.44,-0.43
231.25,2.37,2.83,2.37,2.83,-2.83,-2.69,-3.15,-0.47,-0.47,-0.46
233.57,2.34,2.83,2.34,2.83,-2.84,-2.69,-3.17,-0.49,-0.49,-0.49
235.90,2.32,2.84,2.32,2.84,-2.84,-2.68,-3.19,-0.52,-0.52,-0.52
238.26,2.29,2.84,2.29,2.84,-2.84,-2.68,-3.20,-0.54,-0.54,-0.55
240.64,2.27,2.84,2.27,2.84,-2.83,-2.67,-3.21,-0.56,-0.56,-0.57
243.05,2.25,2.84,2.25,2.83,-2.83,-2.67,-3.22,-0.58,-0.58,-0.59
245.48,2.22,2.82,2.22,2.82,-2.82,-2.66,-3.23,-0.59,-0.59,-0.60
247.93,2.20,2.80,2.20,2.80,-2.80,-2.65,-3.23,-0.60,-0.60,-0.60
250.41,2.17,2.78,2.17,2.78,-2.79,-2.65,-3.22,-0.61,-0.61,-0.61
252.92,2.15,2.76,2.15,2.76,-2.77,-2.64,-3.22,-0.62,-0.62,-0.61
255.45,2.12,2.74,2.12,2.74,-2.74,-2.63,-3.20,-0.62,-0.62,-0.62
258.00,2.09,2.72,2.09,2.72,-2.72,-2.62,-3.19,-0.63,-0.63,-0.63
260.58,2.07,2.70,2.07,2.70,-2.69,-2.61,-3.17,-0.63,-0.63,-0.63
263.19,2.04,2.68,2.04,2.67,-2.67,-2.61,-3.15,-0.63,-0.63,-0.64
265.82,2.01,2.65,2.01,2.65,-2.64,-2.60,-3.12,-0.63,-0.63,-0.63
268.48,1.98,2.62,1.98,2.62,-2.61,-2.59,-3.09,-0.63,-0.63,-0.63
271.16,1.96,2.58,1.96,2.58,-2.59,-2.58,-3.06,-0.63,-0.63,-0.63
273.87,1.93,2.56,1.93,2.56,-2.56,-2.57,-3.03,-0.63,-0.63,-0.63
276.61,1.90,2.53,1.90,2.53,-2.54,-2.56,-2.99,-0.64,-0.64,-0.63
279.38,1.87,2.51,1.87,2.51,-2.52,-2.55,-2.95,-0.64,-0.64,-0.64
282.17,1.84,2.49,1.84,2.49,-2.50,-2.54,-2.91,-0.65,-0.65,-0.65
284.99,1.81,2.48,1.81,2.48,-2.48,-2.52,-2.87,-0.67,-0.67,-0.67
287.84,1.78,2.47,1.78,2.47,-2.47,-2.51,-2.82,-0.69,-0.69,-0.69
290.72,1.75,2.46,1.75,2.46,-2.46,-2.50,-2.78,-0.71,-0.71,-0.71
293.63,1.72,2.45,1.72,2.45,-2.46,-2.49,-2.73,-0.73,-0.73,-0.73
296.57,1.69,2.45,1.69,2.45,-2.45,-2.48,-2.68,-0.76,-0.76,-0.75
299.53,1.66,2.44,1.66,2.44,-2.45,-2.47,-2.64,-0.78,-0.78,-0.78
302.53,1.63,2.44,1.63,2.44,-2.44,-2.45,-2.59,-0.81,-0.81,-0.81
305.55,1.60,2.44,1.60,2.44,-2.43,-2.44,-2.54,-0.83,-0.83,-0.84
308.61,1.57,2.43,1.57,2.43,-2.42,-2.43,-2.50,-0.85,-0.85,-0.86
311.69,1.54,2.41,1.54,2.41,-2.40,-2.41,-2.45,-0.86,-0.86,-0.87
314.81,1.51,2.39,1.51,2.39,-2.38,-2.40,-2.40,-0.87,-0.87,-0.88
317.96,1.48,2.36,1.48,2.36,-2.35,-2.39,-2.36,-0.88,-0.88,-0.88
321.14,1.44,2.32,1.44,2.32,-2.32,-2.37,-2.32,-0.87,-0.87,-0.88
324.35,1.41,2.28,1.41,2.28,-2.28,-2.36,-2.27,-0.87,-0.87,-0.87
327.59,1.38,2.24,1.38,2.24,-2.24,-2.34,-2.23,-0.86,-0.86,-0.86
330.87,1.35,2.20,1.35,2.20,-2.21,-2.33,-2.19,-0.86,-0.86,-0.86
334.18,1.32,2.17,1.32,2.17,-2.17,-2.31,-2.15,-0.85,-0.85,-0.85
337.52,1.28,2.13,1.28,2.13,-2.14,-2.30,-2.12,-0.85,-0.85,-0.85
340.90,1.25,2.11,1.25,2.11,-2.11,-2.28,-2.08,-0.86,-0.86,-0.85
344.30,1.22,2.09,1.22,2.09,-2.09,-2.27,-2.04,-0.87,-0.87,-0.86
347.75,1.19,2.07,1.19,2.07,-2.08,-2.25,-2.01,-0.89,-0.89,-0.88
351.23,1.16,2.07,1.16,2.07,-2.07,-2.24,-1.98,-0.91,-0.91,-0.91
354.74,1.13,2.06,1.13,2.06,-2.06,-2.22,-1.95,-0.94,-0.94,-0.94
358.28,1.10,2.06,1.10,2.06,-2.06,-2.21,-1.92,-0.97,-0.97,-0.97
361.87,1.06,2.06,1.06,2.06,-2.06,-2.19,-1.89,-1.00,-1.00,-1.00
365.49,1.03,2.07,1.03,2.07,-2.06,-2.18,-1.87,-1.03,-1.03,-1.03
369.14,1.00,2.07,1.00,2.07,-2.06,-2.16,-1.84,-1.06,-1.06,-1.07
372.83,0.97,2.06,0.97,2.06,-2.06,-2.14,-1.82,-1.09,-1.09,-1.10
376.56,0.93,2.06,0.93,2.06,-2.05,-2.13,-1.80,-1.12,-1.12,-1.13
380.33,0.90,2.05,0.90,2.05,-2.04,-2.11,-1.78,-1.14,-1.15,-1.15
384.13,0.86,2.03,0.86,2.03,-2.03,-2.09,-1.76,-1.17,-1.17,-1.17
387.97,0.82,2.01,0.83,2.01,-2.02,-2.08,-1.74,-1.19,-1.19,-1.19
391.85,0.79,2.00,0.79,2.00,-2.00,-2.06,-1.73,-1.22,-1.22,-1.21
395.77,0.75,1.99,0.75,1.99,-1.99,-2.04,-1.71,-1.24,-1.24,-1.24
399.73,0.71,1.97,0.71,1.97,-1.97,-2.02,-1.70,-1.26,-1.26,-1.26
403.72,0.67,1.96,0.67,1.96,-1.96,-2.01,-1.69,-1.29,-1.29,-1.29
407.76,0.63,1.95,0.63,1.95,-1.94,-1.99,-1.67,-1.31,-1.31,-1.31
411.84,0.59,1.93,0.59,1.93,-1.93,-1.97,-1.66,-1.34,-1.34,-1.34
415.96,0.55,1.92,0.55,1.92,-1.92,-1.96,-1.65,-1.36,-1.36,-1.36
420.12,0.51,1.90,0.51,1.90,-1.91,-1.94,-1.64,-1.39,-1.39,-1.39
424.32,0.47,1.89,0.47,1.89,-1.89,-1.92,-1.64,-1.42,-1.42,-1.42
428.56,0.43,1.88,0.43,1.88,-1.88,-1.90,-1.63,-1.45,-1.45,-1.45
432.85,0.39,1.87,0.39,1.87,-1.87,-1.88,-1.62,-1.48,-1.48,-1.48
437.18,0.35,1.86,0.35,1.86,-1.86,-1.87,-1.61,-1.51,-1.51,-1.51
441.55,0.31,1.85,0.31,1.85,-1.85,-1.85,-1.61,-1.54,-1.54,-1.54
445.96,0.26,1.84,0.26,1.84,-1.84,-1.83,-1.60,-1.58,-1.58,-1.58
450.42,0.22,1.83,0.22,1.83,-1.84,-1.81,-1.60,-1.62,-1.62,-1.61
454.93,0.18,1.83,0.18,1.83,-1.83,-1.79,-1.59,-1.65,-1.65,-1.65
459.48,0.13,1.83,0.13,1.83,-1.83,-1.78,-1.58,-1.69,-1.69,-1.69
464.07,0.09,1.83,0.09,1.83,-1.83,-1.76,-1.58,-1.74,-1.74,-1.74
468.71,0.05,1.83,0.05,1.83,-1.83,-1.74,-1.57,-1.78,-1.78,-1.78
473.40,0.00,1.83,0.00,1.83,-1.83,-1.72,-1.56,-1.83,-1.83,-1.83
478.13,-0.04,1.83,-0.04,1.83,-1.83,-1.70,-1.55,-1.88,-1.88,-1.87
482.91,-0.09,1.83,-0.09,1.83,-1.83,-1.68,-1.55,-1.92,-1.92,-1.92
487.74,-0.13,1.83,-0.13,1.83,-1.83,-1.66,-1.54,-1.96,-1.96,-1.96
492.62,-0.18,1.82,-0.18,1.82,-1.82,-1.64,-1.53,-2.00,-2.00,-2.00
497.55,-0.22,1.81,-0.22,1.81,-1.80,-1.62,-1.52,-2.03,-2.03,-2.03
502.52,-0.27,1.79,-0.27,1.79,-1.79,-1.60,-1.51,-2.06,-2.06,-2.06
507.55,-0.32,1.76,-0.32,1.76,-1.76,-1.58,-1.49,-2.08,-2.08,-2.08
512.62,-0.36,1.73,-0.36,1.73,-1.73,-1.56,-1.48,-2.10,-2.10,-2.10
517.75,-0.41,1.70,-0.41,1.70,-1.70,-1.54,-1.47,-2.11,-2.11,-2.11
522.93,-0.46,1.66,-0.46,1.66,-1.66,-1.52,-1.46,-2.12,-2.12,-2.12
