frequency,raw,error,smoothed,error_smoothed,equalization,parametric_eq,fixed_band_eq,equalized_raw,equalized_smoothed,target
20.00,7.62,1.26,7.62,1.27,-1.32,-1.34,-0.77,6.30,6.30,6.36
20.20,7.65,1.33,7.65,1.33,-1.34,-1.37,-0.79,6.31,6.31,6.31
20.40,7.67,1.41,7.67,1.39,-1.36,-1.40,-0.82,6.31,6.31,6.26
20.61,7.69,1.42,7.68,1.42,-1.38,-1.43,-0.84,6.30,6.30,6.26
20.81,7.70,1.44,7.70,1.44,-1.41,-1.46,-0.87,6.29,6.29,6.26
21.02,7.71,1.45,7.71,1.45,-1.43,-1.49,-0.89,6.28,6.28,6.26
21.23,7.72,1.46,7.72,1.46,-1.46,-1.52,-0.92,6.26,6.26,6.26
21.44,7.74,1.48,7.74,1.47,-1.49,-1.55,-0.95,6.25,6.25,6.26
21.66,7.75,1.49,7.75,1.49,-1.51,-1.58,-0.97,6.24,6.24,6.26
21.87,7.77,1.50,7.77,1.53,-1.54,-1.62,-1.00,6.23,6.23,6.26
22.09,7.78,1.59,7.78,1.58,-1.58,-1.65,-1.03,6.21,6.21,6.20
22.31,7.80,1.64,7.80,1.62,-1.62,-1.67,-1.06,6.18,6.18,6.16
22.54,7.83,1.66,7.83,1.66,-1.67,-1.70,-1.09,6.15,6.15,6.16
22.76,7.85,1.69,7.85,1.71,-1.73,-1.71,-1.13,6.12,6.12,6.16
22.99,7.88,1.76,7.88,1.77,-1.78,-1.73,-1.16,6.10,6.10,6.11
23.22,7.91,1.84,7.91,1.82,-1.83,-1.73,-1.19,6.08,6.08,6.06
23.45,7.93,1.87,7.93,1.87,-1.86,-1.74,-1.23,6.07,6.07,6.06
23.69,7.95,1.89,7.95,1.90,-1.88,-1.74,-1.26,6.07,6.07,6.06
23.92,7.97,1.91,7.97,1.91,-1.88,-1.73,-1.30,6.09,6.09,6.06
24.16,7.98,1.92,7.98,1.90,-1.86,-1.73,-1.33,6.12,6.11,6.06
24.40,7.98,1.85,7.98,1.85,-1.83,-1.72,-1.37,6.15,6.15,6.13
24.65,7.98,1.78,7.98,1.79,-1.79,-1.71,-1.41,6.19,6.19,6.20
24.89,7.98,1.72,7.98,1.72,-1.73,-1.69,-1.45,6.24,6.24,6.26
25.14,7.98,1.66,7.98,1.65,-1.68,-1.68,-1.48,6.30,6.30,6.32
25.39,7.98,1.59,7.99,1.59,-1.62,-1.67,-1.52,6.36,6.36,6.39
25.65,7.99,1.53,7.99,1.56,-1.57,-1.66,-1.56,6.43,6.43,6.46
25.91,8.00,1.54,8.00,1.52,-1.52,-1.65,-1.60,6.49,6.49,6.46
26.16,8.01,1.50,8.01,1.49,-1.47,-1.65,-1.64,6.54,6.54,6.50
26.43,8.00,1.44,8.00,1.46,-1.43,-1.64,-1.68,6.57,6.57,6.56
26.69,7.98,1.42,7.98,1.42,-1.40,-1.63,-1.71,6.58,6.58,6.56
26.96,7.96,1.40,7.96,1.38,-1.39,-1.63,-1.75,6.57,6.57,6.56
27.23,7.93,1.36,7.93,1.36,-1.38,-1.63,-1.78,6.54,6.54,6.56
27.50,7.90,1.34,7.90,1.35,-1.39,-1.62,-1.82,6.50,6.51,6.56
27.77,7.88,1.38,7.88,1.37,-1.42,-1.62,-1.85,6.46,6.46,6.51
28.05,7.88,1.43,7.88,1.44,-1.47,-1.62,-1.89,6.41,6.42,6.45
28.33,7.90,1.52,7.90,1.53,-1.52,-1.62,-1.92,6.38,6.38,6.38
28.62,7.92,1.62,7.92,1.60,-1.59,-1.62,-1.94,6.34,6.34,6.31
28.90,7.95,1.69,7.95,1.68,-1.65,-1.62,-1.97,6.30,6.30,6.26
29.19,7.97,1.71,7.97,1.74,-1.70,-1.62,-2.00,6.27,6.26,6.26
29.48,7.98,1.79,7.98,1.78,-1.75,-1.62,-2.02,6.23,6.23,6.19
29.78,7.99,1.83,7.99,1.81,-1.79,-1.62,-2.04,6.20,6.20,6.16
30.08,8.00,1.82,8.00,1.81,-1.81,-1.62,-2.05,6.19,6.19,6.18
30.38,8.01,1.78,8.02,1.80,-1.83,-1.62,-2.07,6.19,6.19,6.24
30.68,8.05,1.78,8.05,1.80,-1.84,-1.63,-2.08,6.21,6.21,6.26
30.99,8.08,1.82,8.08,1.82,-1.83,-1.63,-2.09,6.25,6.25,6.26
31.30,8.11,1.85,8.11,1.85,-1.82,-1.63,-2.10,6.29,6.29,6.26
31.61,8.12,1.86,8.12,1.86,-1.81,-1.63,-2.10,6.32,6.31,6.26
31.93,8.10,1.84,8.10,1.84,-1.79,-1.63,-2.10,6.31,6.31,6.26
32.24,8.06,1.80,8.06,1.80,-1.78,-1.63,-2.10,6.28,6.28,6.26
32.57,8.01,1.75,8.01,1.75,-1.78,-1.64,-2.09,6.23,6.23,6.26
32.89,7.97,1.71,7.98,1.72,-1.79,-1.64,-2.08,6.19,6.19,6.26
33.22,7.96,1.70,7.96,1.73,-1.79,-1.64,-2.07,6.17,6.17,6.26
33.55,7.97,1.78,7.98,1.78,-1.80,-1.64,-2.06,6.17,6.18,6.19
33.89,8.01,1.85,8.01,1.84,-1.81,-1.64,-2.05,6.20,6.20,6.16
34.23,8.06,1.89,8.06,1.87,-1.83,-1.64,-2.03,6.23,6.23,6.17
34.57,8.10,1.87,8.10,1.89,-1.85,-1.64,-2.01,6.26,6.25,6.24
34.92,8.13,1.87,8.13,1.87,-1.85,-1.65,-1.99,6.28,6.28,6.26
35.27,8.14,1.86,8.14,1.84,-1.84,-1.65,-1.97,6.30,6.30,6.28
35.62,8.13,1.79,8.13,1.80,-1.81,-1.65,-1.94,6.32,6.32,6.35
35.97,8.11,1.75,8.11,1.76,-1.76,-1.65,-1.92,6.36,6.36,6.36
36.33,8.08,1.72,8.08,1.71,-1.69,-1.65,-1.90,6.39,6.39,6.36
36.70,8.04,1.67,8.04,1.65,-1.62,-1.65,-1.87,6.41,6.41,6.36
37.06,7.99,1.57,7.98,1.57,-1.56,-1.65,-1.84,6.43,6.43,6.42
37.43,7.93,1.47,7.93,1.49,-1.50,-1.65,-1.82,6.43,6.43,6.46
37.81,7.89,1.43,7.89,1.42,-1.46,-1.65,-1.79,6.43,6.43,6.46
38.19,7.85,1.39,7.86,1.39,-1.43,-1.65,-1.77,6.42,6.43,6.46
38.57,7.85,1.39,7.85,1.39,-1.43,-1.64,-1.74,6.42,6.43,6.46
38.95,7.87,1.40,7.86,1.43,-1.44,-1.64,-1.72,6.42,6.42,6.46
39.34,7.89,1.50,7.89,1.48,-1.48,-1.64,-1.69,6.41,6.41,6.39
39.74,7.92,1.56,7.92,1.54,-1.55,-1.64,-1.67,6.37,6.37,6.36
40.14,7.94,1.59,7.94,1.61,-1.62,-1.64,-1.64,6.32,6.32,6.36
40.54,7.96,1.67,7.96,1.67,-1.69,-1.64,-1.62,6.27,6.27,6.29
40.94,7.96,1.74,7.96,1.74,-1.75,-1.63,-1.60,6.21,6.21,6.22
41.35,7.95,1.80,7.95,1.81,-1.77,-1.63,-1.58,6.18,6.18,6.15
41.76,7.93,1.85,7.93,1.84,-1.77,-1.63,-1.56,6.16,6.16,6.08
42.18,7.90,1.84,7.90,1.83,-1.73,-1.62,-1.54,6.17,6.17,6.06
42.60,7.87,1.77,7.87,1.74,-1.66,-1.62,-1.52,6.20,6.20,6.10
43.03,7.84,1.60,7.84,1.61,-1.58,-1.62,-1.50,6.26,6.26,6.24
43.46,7.82,1.44,7.82,1.46,-1.49,-1.61,-1.49,6.33,6.33,6.38
43.90,7.81,1.32,7.81,1.33,-1.41,-1.61,-1.47,6.40,6.40,6.49
44.33,7.80,1.25,7.80,1.25,-1.34,-1.60,-1.46,6.46,6.46,6.55
44.78,7.79,1.23,7.79,1.23,-1.30,-1.60,-1.44,6.49,6.49,6.56
45.23,7.78,1.25,7.78,1.25,-1.28,-1.59,-1.43,6.49,6.49,6.53
45.68,7.76,1.29,7.76,1.29,-1.29,-1.59,-1.42,6.47,6.47,6.47
46.13,7.74,1.35,7.74,1.35,-1.31,-1.58,-1.41,6.42,6.43,6.39
46.60,7.72,1.40,7.72,1.40,-1.35,-1.58,-1.41,6.37,6.37,6.32
47.06,7.70,1.44,7.70,1.43,-1.38,-1.57,-1.40,6.32,6.32,6.26
47.53,7.69,1.43,7.69,1.43,-1.42,-1.57,-1.39,6.27,6.28,6.26
48.01,7.68,1.42,7.68,1.42,-1.44,-1.56,-1.39,6.24,6.24,6.26
48.49,7.68,1.42,7.68,1.41,-1.45,-1.55,-1.39,6.22,6.22,6.26
48.97,7.67,1.41,7.67,1.43,-1.45,-1.55,-1.38,6.22,6.22,6.26
49.46,7.66,1.45,7.66,1.46,-1.44,-1.54,-1.38,6.22,6.22,6.21
49.96,7.65,1.49,7.65,1.47,-1.42,-1.53,-1.38,6.23,6.23,6.16
50.46,7.63,1.46,7.63,1.45,-1.39,-1.52,-1.38,6.23,6.24,6.16
50.96,7.60,1.38,7.60,1.39,-1.36,-1.52,-1.38,6.24,6.24,6.22
51.47,7.57,1.31,7.57,1.33,-1.33,-1.51,-1.38,6.25,6.25,6.26
51.99,7.54,1.28,7.54,1.27,-1.30,-1.50,-1.38,6.24,6.24,6.26
52.51,7.51,1.24,7.51,1.25,-1.29,-1.49,-1.38,6.22,6.22,6.26
53.03,7.47,1.24,7.47,1.24,-1.29,-1.48,-1.38,6.17,6.17,6.23
53.56,7.42,1.27,7.42,1.25,-1.32,-1.48,-1.39,6.10,6.10,6.15
54.10,7.38,1.29,7.38,1.32,-1.37,-1.47,-1.39,6.01,6.01,6.09
54.64,7.34,1.41,7.34,1.42,-1.43,-1.46,-1.39,5.91,5.91,5.94
55.18,7.31,1.56,7.31,1.52,-1.48,-1.45,-1.39,5.82,5.82,5.75
55.74,7.28,1.59,7.28,1.61,-1.53,-1.44,-1.40,5.75,5.75,5.68
56.29,7.25,1.63,7.25,1.64,-1.55,-1.43,-1.40,5.70,5.70,5.61
56.86,7.22,1.64,7.22,1.61,-1.55,-1.42,-1.40,5.67,5.67,5.58
57.42,7.20,1.55,7.20,1.55,-1.53,-1.41,-1.40,5.67,5.67,5.65
58.00,7.18,1.46,7.18,1.48,-1.50,-1.40,-1.40,5.69,5.69,5.72
58.58,7.16,1.40,7.16,1.41,-1.46,-1.39,-1.40,5.71,5.71,5.76
59.16,7.15,1.38,7.14,1.37,-1.43,-1.38,-1.40,5.72,5.72,5.76
59.76,7.12,1.36,7.12,1.36,-1.41,-1.37,-1.39,5.71,5.71,5.76
60.35,7.10,1.36,7.10,1.37,-1.41,-1.36,-1.39,5.68,5.68,5.73
60.96,7.07,1.40,7.07,1.40,-1.43,-1.35,-1.38,5.63,5.63,5.67
61.57,7.04,1.44,7.04,1.46,-1.46,-1.33,-1.38,5.58,5.58,5.59
62.18,7.00,1.53,7.00,1.53,-1.49,-1.32,-1.37,5.51,5.51,5.48
62.80,6.97,1.60,6.97,1.57,-1.51,-1.31,-1.36,5.45,5.45,5.36
63.43,6.93,1.57,6.93,1.57,-1.53,-1.30,-1.35,5.40,5.40,5.36
64.07,6.89,1.53,6.89,1.54,-1.53,-1.29,-1.34,5.36,5.36,5.36
64.71,6.85,1.49,6.85,1.49,-1.51,-1.28,-1.33,5.34,5.34,5.36
65.35,6.81,1.45,6.81,1.45,-1.48,-1.26,-1.32,5.34,5.34,5.36
66.01,6.77,1.41,6.77,1.42,-1.42,-1.25,-1.30,5.35,5.35,5.36
66.67,6.73,1.37,6.73,1.38,-1.35,-1.24,-1.29,5.38,5.38,5.36
67.33,6.70,1.34,6.70,1.32,-1.28,-1.23,-1.27,5.42,5.42,5.36
68.01,6.66,1.24,6.66,1.24,-1.21,-1.22,-1.25,5.46,5.46,5.42
68.69,6.63,1.14,6.63,1.14,-1.14,-1.20,-1.23,5.49,5.49,5.49
69.37,6.60,1.04,6.60,1.06,-1.08,-1.19,-1.21,5.52,5.52,5.56
70.07,6.56,1.00,6.56,0.99,-1.03,-1.18,-1.19,5.54,5.54,5.56
70.77,6.53,0.97,6.53,0.96,-1.00,-1.17,-1.17,5.53,5.53,5.56
71.48,6.50,0.94,6.50,0.96,-0.99,-1.15,-1.15,5.51,5.51,5.56
72.19,6.47,0.98,6.47,0.97,-1.01,-1.14,-1.13,5.46,5.46,5.49
72.91,6.44,1.02,6.44,1.01,-1.04,-1.13,-1.11,5.39,5.39,5.42
73.64,6.40,1.06,6.40,1.08,-1.08,-1.11,-1.09,5.32,5.32,5.34
74.38,6.36,1.16,6.36,1.14,-1.12,-1.10,-1.07,5.24,5.24,5.20
75.12,6.31,1.20,6.31,1.20,-1.14,-1.09,-1.05,5.17,5.17,5.11
75.87,6.26,1.22,6.26,1.23,-1.15,-1.07,-1.02,5.11,5.11,5.05
76.63,6.22,1.24,6.22,1.21,-1.15,-1.06,-1.00,5.07,5.07,4.98
77.40,6.17,1.15,6.17,1.15,-1.14,-1.05,-0.98,5.03,5.03,5.02
78.17,6.13,1.07,6.13,1.09,-1.12,-1.03,-0.96,5.01,5.01,5.06
78.95,6.09,1.03,6.09,1.05,-1.10,-1.02,-0.94,4.99,4.99,5.06
79.74,6.06,1.05,6.06,1.03,-1.09,-1.01,-0.92,4.96,4.96,5.00
80.54,6.02,1.06,6.02,1.04,-1.09,-0.99,-0.90,4.93,4.93,4.96
81.35,5.99,1.03,5.99,1.07,-1.10,-0.98,-0.88,4.90,4.90,4.96
82.16,5.96,1.12,5.96,1.12,-1.11,-0.97,-0.86,4.85,4.85,4.83
82.98,5.92,1.19,5.92,1.17,-1.12,-0.95,-0.84,4.79,4.79,4.73
83.81,5.88,1.22,5.88,1.20,-1.13,-0.94,-0.82,4.74,4.74,4.66
84.65,5.83,1.17,5.83,1.18,-1.14,-0.93,-0.80,4.70,4.70,4.66
85.50,5.79,1.13,5.79,1.13,-1.13,-0.91,-0.79,4.66,4.66,4.66
86.35,5.75,1.09,5.75,1.08,-1.12,-0.90,-0.77,4.63,4.63,4.66
87.22,5.71,1.04,5.71,1.06,-1.10,-0.89,-0.75,4.60,4.60,4.66
88.09,5.66,1.05,5.66,1.05,-1.08,-0.87,-0.74,4.58,4.58,4.61
88.97,5.62,1.06,5.62,1.04,-1.05,-0.86,-0.72,4.57,4.57,4.56
89.86,5.57,1.01,5.57,1.03,-1.02,-0.84,-0.71,4.55,4.55,4.56
90.76,5.52,1.02,5.52,1.03,-0.99,-0.83,-0.70,4.54,4.54,4.50
91.66,5.47,1.01,5.47,1.00,-0.95,-0.82,-0.68,4.53,4.53,4.46
92.58,5.42,0.96,5.42,0.94,-0.90,-0.80,-0.67,4.52,4.52,4.46
93.51,5.37,0.85,5.37,0.85,-0.86,-0.79,-0.66,4.51,4.51,4.52
94.44,5.32,0.75,5.32,0.77,-0.81,-0.78,-0.65,4.51,4.51,4.56
95.39,5.26,0.70,5.26,0.72,-0.76,-0.76,-0.64,4.50,4.50,4.56
96.34,5.21,0.71,5.21,0.69,-0.72,-0.75,-0.62,4.49,4.49,4.49
97.30,5.15,0.69,5.15,0.67,-0.68,-0.73,-0.61,4.47,4.47,4.46
98.28,5.09,0.63,5.09,0.66,-0.66,-0.72,-0.60,4.43,4.43,4.46
99.26,5.03,0.64,5.03,0.65,-0.64,-0.71,-0.60,4.39,4.39,4.39
100.25,4.97,0.65,4.97,0.64,-0.63,-0.69,-0.59,4.33,4.33,4.32
101.25,4.91,0.64,4.91,0.62,-0.62,-0.68,-0.58,4.29,4.29,4.26
102.27,4.84,0.58,4.84,0.60,-0.59,-0.67,-0.57,4.26,4.26,4.26
103.29,4.78,0.55,4.78,0.57,-0.55,-0.65,-0.56,4.24,4.24,4.23
104.32,4.73,0.56,4.73,0.54,-0.50,-0.64,-0.55,4.23,4.23,4.16
105.37,4.67,0.51,4.67,0.49,-0.45,-0.63,-0.55,4.22,4.22,4.16
106.42,4.62,0.42,4.62,0.41,-0.41,-0.61,-0.54,4.21,4.21,4.20
107.48,4.58,0.32,4.58,0.34,-0.39,-0.60,-0.53,4.19,4.20,4.26
108.56,4.55,0.29,4.55,0.31,-0.38,-0.58,-0.53,4.17,4.17,4.26
109.64,4.53,0.33,4.53,0.32,-0.39,-0.57,-0.52,4.14,4.14,4.20
110.74,4.52,0.40,4.52,0.39,-0.42,-0.56,-0.51,4.10,4.10,4.12
111.85,4.52,0.45,4.52,0.47,-0.47,-0.54,-0.50,4.05,4.05,4.07
112.97,4.53,0.56,4.53,0.55,-0.53,-0.53,-0.50,4.00,4.00,3.97
114.10,4.53,0.62,4.53,0.62,-0.59,-0.52,-0.49,3.94,3.94,3.91
115.24,4.52,0.67,4.52,0.68,-0.64,-0.50,-0.48,3.88,3.88,3.85
116.39,4.51,0.72,4.51,0.71,-0.67,-0.49,-0.47,3.84,3.84,3.79
117.55,4.49,0.73,4.49,0.72,-0.68,-0.48,-0.47,3.81,3.81,3.76
118.73,4.46,0.70,4.46,0.70,-0.68,-0.46,-0.46,3.78,3.78,3.76
119.92,4.42,0.66,4.42,0.66,-0.67,-0.45,-0.45,3.76,3.76,3.76
121.12,4.38,0.62,4.37,0.60,-0.64,-0.44,-0.44,3.73,3.73,3.76
122.33,4.32,0.56,4.32,0.56,-0.62,-0.42,-0.43,3.71,3.71,3.76
123.55,4.26,0.50,4.26,0.56,-0.58,-0.41,-0.42,3.68,3.68,3.76
124.79,4.20,0.60,4.20,0.56,-0.55,-0.40,-0.41,3.66,3.66,3.60
126.03,4.14,0.58,4.14,0.56,-0.51,-0.38,-0.40,3.63,3.63,3.56
127.29,4.08,0.52,4.08,0.53,-0.48,-0.37,-0.39,3.60,3.60,3.56
128.57,4.02,0.46,4.02,0.46,-0.46,-0.36,-0.38,3.56,3.56,3.56
129.85,3.96,0.40,3.96,0.40,-0.44,-0.34,-0.36,3.53,3.53,3.56
131.15,3.91,0.35,3.91,0.37,-0.41,-0.33,-0.35,3.49,3.49,3.55
132.46,3.85,0.36,3.85,0.36,-0.38,-0.32,-0.34,3.46,3.46,3.49
133.79,3.79,0.37,3.79,0.36,-0.36,-0.30,-0.32,3.43,3.43,3.42
135.12,3.73,0.37,3.73,0.35,-0.33,-0.29,-0.31,3.40,3.40,3.36
136.48,3.67,0.31,3.67,0.33,-0.30,-0.27,-0.30,3.37,3.37,3.36
137.84,3.61,0.29,3.61,0.30,-0.28,-0.26,-0.28,3.34,3.34,3.32
139.22,3.55,0.29,3.55,0.27,-0.26,-0.25,-0.27,3.30,3.30,3.26
140.61,3.50,0.23,3.50,0.23,-0.23,-0.23,-0.25,3.26,3.26,3.26
142.02,3.44,0.18,3.44,0.19,-0.21,-0.22,-0.23,3.23,3.23,3.26
143.44,3.38,0.14,3.38,0.15,-0.19,-0.21,-0.22,3.19,3.19,3.24
144.87,3.33,0.16,3.33,0.16,-0.18,-0.19,-0.20,3.15,3.15,3.17
146.32,3.27,0.18,3.27,0.18,-0.17,-0.18,-0.18,3.10,3.10,3.10
147.78,3.22,0.20,3.22,0.19,-0.17,-0.17,-0.17,3.05,3.05,3.02
149.26,3.17,0.20,3.17,0.18,-0.17,-0.15,-0.15,2.99,2.99,2.96
150.75,3.12,0.15,3.12,0.17,-0.17,-0.14,-0.13,2.94,2.94,2.96
152.26,3.07,0.15,3.07,0.16,-0.16,-0.13,-0.11,2.90,2.90,2.92
153.78,3.02,0.15,3.02,0.16,-0.15,-0.11,-0.10,2.88,2.88,2.87
155.32,2.98,0.18,2.98,0.15,-0.12,-0.10,-0.08,2.86,2.86,2.80
156.88,2.93,0.13,2.93,0.11,-0.09,-0.08,-0.06,2.84,2.84,2.81
158.44,2.89,0.03,2.89,0.05,-0.06,-0.07,-0.04,2.83,2.83,2.86
160.03,2.85,-0.01,2.85,0.01,-0.03,-0.06,-0.02,2.81,2.81,2.86
161.63,2.80,-0.01,2.80,-0.02,-0.01,-0.04,-0.01,2.79,2.79,2.81
163.24,2.75,-0.01,2.75,-0.03,0.01,-0.03,0.01,2.76,2.76,2.76
164.88,2.70,-0.06,2.70,-0.05,0.03,-0.01,0.03,2.73,2.73,2.76
166.53,2.65,-0.07,2.65,-0.05,0.05,0.00,0.05,2.70,2.70,2.71
168.19,2.59,-0.06,2.59,-0.06,0.08,0.02,0.07,2.67,2.67,2.65
169.87,2.53,-0.03,2.53,-0.06,0.10,0.03,0.09,2.63,2.63,2.57
171.57,2.48,-0.09,2.48,-0.09,0.12,0.05,0.11,2.60,2.60,2.56
173.29,2.42,-0.14,2.42,-0.14,0.15,0.06,0.13,2.57,2.57,2.56
175.02,2.36,-0.20,2.36,-0.20,0.17,0.07,0.15,2.53,2.53,2.56
176.77,2.30,-0.26,2.30,-0.24,0.20,0.09,0.17,2.50,2.50,2.56
178.54,2.24,-0.27,2.24,-0.26,0.23,0.10,0.19,2.48,2.48,2.51
180.32,2.19,-0.26,2.19,-0.27,0.27,0.12,0.21,2.46,2.46,2.45
182.13,2.13,-0.26,2.13,-0.27,0.30,0.14,0.23,2.43,2.43,2.39
183.95,2.07,-0.29,2.07,-0.30,0.34,0.15,0.25,2.41,2.41,2.36
185.79,2.02,-0.35,2.02,-0.34,0.37,0.17,0.27,2.39,2.39,2.36
187.65,1.96,-0.40,1.96,-0.40,0.40,0.18,0.29,2.36,2.36,2.36
189.52,1.91,-0.46,1.91,-0.45,0.43,0.20,0.31,2.33,2.34,2.36
191.42,1.85,-0.49,1.85,-0.48,0.45,0.21,0.33,2.31,2.31,2.35
193.33,1.80,-0.48,1.80,-0.50,0.47,0.23,0.35,2.27,2.27,2.28
195.27,1.76,-0.51,1.76,-0.50,0.48,0.25,0.37,2.23,2.23,2.26
197.22,1.71,-0.51,1.71,-0.49,0.49,0.26,0.39,2.20,2.20,2.22
199.19,1.67,-0.48,1.67,-0.48,0.50,0.28,0.41,2.17,2.17,2.16
201.18,1.64,-0.45,1.64,-0.45,0.51,0.30,0.43,2.15,2.15,2.09
203.19,1.61,-0.45,1.62,-0.46,0.52,0.31,0.45,2.13,2.13,2.06
205.23,1.59,-0.48,1.59,-0.49,0.53,0.33,0.48,2.12,2.12,2.07
207.28,1.57,-0.56,1.57,-0.55,0.53,0.35,0.50,2.10,2.10,2.14
209.35,1.55,-0.61,1.55,-0.60,0.53,0.36,0.52,2.08,2.08,2.16
211.44,1.53,-0.62,1.53,-0.60,0.52,0.38,0.54,2.06,2.06,2.15
213.56,1.50,-0.57,1.50,-0.55,0.52,0.40,0.56,2.02,2.02,2.08
215.69,1.47,-0.48,1.47,-0.50,0.51,0.42,0.58,1.98,1.98,1.95
217.85,1.43,-0.43,1.43,-0.46,0.51,0.44,0.60,1.94,1.94,1.86
220.03,1.39,-0.47,1.39,-0.44,0.51,0.45,0.62,1.90,1.90,1.86
222.23,1.34,-0.46,1.34,-0.47,0.52,0.47,0.64,1.86,1.87,1.81
224.45,1.29,-0.48,1.29,-0.52,0.55,0.49,0.66,1.84,1.84,1.78
226.70,1.25,-0.61,1.25,-0.58,0.58,0.51,0.68,1.83,1.83,1.85
228.96,1.20,-0.67,1.20,-0.66,0.62,0.53,0.70,1.82,1.82,1.86
231.25,1.15,-0.71,1.15,-0.73,0.66,0.55,0.71,1.81,1.81,1.86
233.57,1.10,-0.76,1.10,-0.75,0.70,0.57,0.73,1.80,1.80,1.86
235.90,1.05,-0.75,1.05,-0.74,0.74,0.59,0.75,1.78,1.78,1.80
238.26,1.00,-0.72,1.00,-0.73,0.76,0.61,0.76,1.76,1.76,1.72
240.64,0.95,-0.71,0.95,-0.73,0.78,0.63,0.78,1.73,1.73,1.66
243.05,0.90,-0.76,0.90,-0.76,0.78,0.65,0.79,1.69,1.69,1.66
245.48,0.85,-0.81,0.85,-0.80,0.78,0.67,0.81,1.64,1.64,1.66
247.93,0.81,-0.83,0.81,-0.82,0.78,0.69,0.82,1.59,1.59,1.64
250.41,0.76,-0.82,0.76,-0.82,0.78,0.71,0.83,1.54,1.54,1.58
252.92,0.71,-0.80,0.71,-0.80,0.79,0.74,0.85,1.50,1.50,1.51
255.45,0.66,-0.79,0.66,-0.78,0.80,0.76,0.86,1.46,1.46,1.45
258.00,0.61,-0.75,0.62,-0.77,0.81,0.78,0.87,1.42,1.42,1.36
260.58,0.57,-0.79,0.57,-0.79,0.82,0.80,0.88,1.39,1.39,1.36
263.19,0.52,-0.84,0.52,-0.83,0.84,0.82,0.89,1.37,1.37,1.36
265.82,0.48,-0.88,0.48,-0.88,0.87,0.85,0.90,1.35,1.35,1.36
268.48,0.44,-0.92,0.44,-0.92,0.92,0.87,0.90,1.35,1.35,1.36
271.16,0.40,-0.97,0.39,-0.97,0.97,0.89,0.91,1.36,1.36,1.36
273.87,0.35,-1.01,0.35,-1.01,1.02,0.92,0.92,1.37,1.37,1.36
276.61,0.31,-1.05,0.31,-1.05,1.06,0.94,0.93,1.37,1.37,1.36
279.38,0.27,-1.10,0.27,-1.10,1.10,0.96,0.93,1.36,1.36,1.36
282.17,0.22,-1.14,0.22,-1.14,1.12,0.99,0.94,1.35,1.34,1.36
284.99,0.18,-1.18,0.18,-1.17,1.15,1.01,0.95,1.32,1.32,1.36
287.84,0.14,-1.18,0.14,-1.17,1.16,1.04,0.96,1.29,1.29,1.32
290.72,0.09,-1.15,0.09,-1.16,1.16,1.06,0.96,1.26,1.26,1.24
293.63,0.05,-1.12,0.05,-1.14,1.16,1.08,0.97,1.21,1.21,1.17
296.57,0.01,-1.15,0.01,-1.14,1.14,1.11,0.98,1.15,1.15,1.16
299.53,-0.03,-1.16,-0.03,-1.15,1.12,1.13,0.99,1.10,1.10,1.13
302.53,-0.07,-1.14,-0.07,-1.14,1.11,1.16,0.99,1.04,1.04,1.07
305.55,-0.11,-1.10,-0.11,-1.10,1.10,1.18,1.00,1.00,1.00,1.00
308.61,-0.14,-1.07,-0.14,-1.07,1.11,1.21,1.01,0.97,0.97,0.93
311.69,-0.18,-1.05,-0.18,-1.09,1.14,1.23,1.02,0.96,0.96,0.87
314.81,-0.22,-1.15,-0.22,-1.14,1.18,1.25,1.03,0.96,0.96,0.93
317.96,-0.26,-1.22,-0.26,-1.19,1.22,1.28,1.05,0.97,0.97,0.96
321.14,-0.29,-1.26,-0.29,-1.26,1.27,1.30,1.06,0.97,0.97,0.96
324.35,-0.33,-1.29,-0.33,-1.32,1.30,1.33,1.07,0.97,0.97,0.96
327.59,-0.37,-1.38,-0.37,-1.38,1.32,1.35,1.08,0.95,0.95,1.01
330.87,-0.41,-1.45,-0.41,-1.42,1.33,1.37,1.10,0.92,0.92,1.04
334.18,-0.44,-1.42,-0.44,-1.41,1.32,1.39,1.11,0.88,0.88,0.98
337.52,-0.48,-1.34,-0.48,-1.33,1.32,1.42,1.13,0.84,0.84,0.86
340.90,-0.51,-1.24,-0.51,-1.23,1.31,1.44,1.15,0.80,0.80,0.73
344.30,-0.55,-1.14,-0.55,-1.18,1.31,1.46,1.17,0.76,0.76,0.59
347.75,-0.58,-1.20,-0.58,-1.21,1.30,1.48,1.19,0.72,0.72,0.62
351.23,-0.61,-1.30,-0.61,-1.29,1.29,1.50,1.21,0.68,0.68,0.69
354.74,-0.65,-1.40,-0.65,-1.39,1.29,1.52,1.23,0.65,0.65,0.76
358.28,-0.68,-1.44,-0.68,-1.41,1.32,1.54,1.25,0.64,0.64,0.76
361.87,-0.71,-1.40,-0.71,-1.38,1.35,1.56,1.27,0.64,0.64,0.69
365.49,-0.74,-1.30,-0.74,-1.35,1.40,1.58,1.30,0.65,0.65,0.56
369.14,-0.77,-1.34,-0.77,-1.35,1.43,1.60,1.32,0.66,0.66,0.56
372.83,-0.81,-1.41,-0.81,-1.40,1.46,1.61,1.35,0.65,0.65,0.60
376.56,-0.84,-1.50,-0.84,-1.48,1.47,1.63,1.38,0.63,0.63,0.66
380.33,-0.87,-1.53,-0.87,-1.54,1.48,1.65,1.40,0.61,0.61,0.66
384.13,-0.90,-1.56,-0.90,-1.56,1.49,1.66,1.43,0.60,0.59,0.66
387.97,-0.93,-1.57,-0.93,-1.56,1.51,1.67,1.46,0.58,0.58,0.65
391.85,-0.96,-1.54,-0.96,-1.53,1.53,1.69,1.49,0.57,0.57,0.58
395.77,-0.98,-1.49,-0.98,-1.50,1.54,1.70,1.52,0.56,0.56,0.51
399.73,-1.01,-1.48,-1.01,-1.49,1.56,1.71,1.55,0.54,0.54,0.46
403.72,-1.04,-1.50,-1.04,-1.52,1.57,1.72,1.59,0.53,0.53,0.46
407.76,-1.07,-1.59,-1.07,-1.58,1.60,1.72,1.62,0.53,0.53,0.52
411.84,-1.10,-1.66,-1.10,-1.64,1.62,1.73,1.65,0.53,0.53,0.56
415.96,-1.12,-1.68,-1.12,-1.69,1.65,1.74,1.68,0.53,0.53,0.56
420.12,-1.15,-1.71,-1.15,-1.72,1.68,1.74,1.71,0.53,0.53,0.56
424.32,-1.17,-1.74,-1.17,-1.74,1.70,1.75,1.74,0.53,0.53,0.56
428.56,-1.20,-1.75,-1.20,-1.73,1.72,1.75,1.77,0.52,0.52,0.55
432.85,-1.22,-1.70,-1.22,-1.70,1.72,1.75,1.80,0.50,0.50,0.48
437.18,-1.25,-1.66,-1.25,-1.68,1.72,1.75,1.83,0.48,0.48,0.42
441.55,-1.27,-1.64,-1.27,-1.68,1.72,1.75,1.86,0.45,0.45,0.37
445.96,-1.29,-1.74,-1.29,-1.70,1.70,1.75,1.89,0.41,0.41,0.44
450.42,-1.32,-1.73,-1.32,-1.73,1.69,1.74,1.91,0.37,0.37,0.41
454.93,-1.34,-1.70,-1.34,-1.73,1.67,1.74,1.94,0.33,0.33,0.36
459.48,-1.36,-1.72,-1.36,-1.68,1.66,1.73,1.96,0.30,0.30,0.36
464.07,-1.38,-1.63,-1.38,-1.64,1.65,1.72,1.98,0.27,0.27,0.25
468.71,-1.40,-1.57,-1.40,-1.60,1.64,1.72,2.00,0.24,0.24,0.16
473.40,-1.42,-1.59,-1.42,-1.58,1.62,1.71,2.01,0.20,0.20,0.16
478.13,-1.44,-1.60,-1.44,-1.60,1.61,1.70,2.02,0.16,0.16,0.16
482.91,-1.46,-1.62,-1.46,-1.62,1.59,1.69,2.03,0.13,0.13,0.16
487.74,-1.48,-1.64,-1.48,-1.62,1.59,1.68,2.04,0.11,0.11,0.16
492.62,-1.50,-1.59,-1.50,-1.60,1.59,1.66,2.04,0.10,0.10,0.10
497.55,-1.51,-1.58,-1.51,-1.59,1.60,1.65,2.04,0.09,0.09,0.06
502.52,-1.53,-1.59,-1.53,-1.59,1.61,1.64,2.04,0.08,0.08,0.06
507.55,-1.55,-1.61,-1.55,-1.61,1.62,1.62,2.03,0.08,0.08,0.06
512.62,-1.56,-1.62,-1.56,-1.63,1.63,1.60,2.03,0.06,0.06,0.06
517.75,-1.58,-1.64,-1.58,-1.64,1.63,1.59,2.01,0.05,0.05,0.06
522.93,-1.59,-1.65,-1.59,-1.66,1.63,1.57,2.00,0.04,0.04,0.06
528.16,-1.61,-1.67,-1.61,-1.66,1.64,1.55,1.98,0.03,0.03,0.06
533.44,-1.62,-1.66,-1.62,-1.65,1.64,1.54,1.96,0.02,0.02,0.04
538.77,-1.63,-1.61,-1.63,-1.63,1.64,1.52,1.94,0.00,0.00,-0.02
544.16,-1.65,-1.61,-1.65,-1.61,1.64,1.50,1.91,-0.01,-0.01,-0.04
