frequency,raw,error,smoothed,error_smoothed,equalization,parametric_eq,fixed_band_eq,equalized_raw,equalized_smoothed,target
20.00,5.52,-1.97,5.52,-1.97,1.97,1.88,1.05,7.49,7.49,7.49
20.20,5.56,-1.97,5.56,-1.97,1.97,1.90,1.08,7.53,7.53,7.53
20.40,5.61,-1.97,5.61,-1.97,1.97,1.91,1.11,7.58,7.58,7.57
20.61,5.65,-1.97,5.65,-1.98,1.98,1.93,1.14,7.63,7.63,7.62
20.81,5.69,-1.99,5.69,-1.98,1.98,1.95,1.17,7.67,7.67,7.67
21.02,5.73,-1.99,5.73,-1.99,1.99,1.96,1.21,7.72,7.72,7.72
21.23,5.77,-2.00,5.77,-2.00,2.00,1.98,1.24,7.76,7.76,7.77
21.44,5.81,-2.01,5.81,-2.01,2.00,2.00,1.28,7.81,7.81,7.82
21.66,5.85,-2.01,5.85,-2.01,2.01,2.01,1.32,7.86,7.86,7.86
21.87,5.89,-2.02,5.89,-2.02,2.02,2.03,1.36,7.91,7.91,7.91
22.09,5.93,-2.02,5.93,-2.02,2.03,2.05,1.39,7.96,7.96,7.96
22.31,5.97,-2.03,5.97,-2.03,2.04,2.06,1.44,8.01,8.01,8.01
22.54,6.01,-2.04,6.01,-2.04,2.05,2.08,1.48,8.06,8.06,8.06
22.76,6.05,-2.06,6.05,-2.06,2.06,2.10,1.52,8.11,8.11,8.11
22.99,6.08,-2.07,6.08,-2.07,2.07,2.11,1.56,8.16,8.16,8.16
23.22,6.12,-2.09,6.12,-2.09,2.09,2.13,1.61,8.21,8.21,8.21
23.45,6.15,-2.11,6.15,-2.11,2.11,2.14,1.65,8.26,8.26,8.26
23.69,6.18,-2.13,6.18,-2.13,2.13,2.16,1.70,8.31,8.31,8.31
23.92,6.21,-2.15,6.21,-2.15,2.15,2.17,1.75,8.36,8.36,8.36
24.16,6.24,-2.17,6.24,-2.17,2.17,2.19,1.80,8.42,8.42,8.42
24.40,6.28,-2.19,6.28,-2.19,2.19,2.21,1.85,8.47,8.47,8.47
24.65,6.31,-2.21,6.31,-2.21,2.21,2.22,1.90,8.52,8.52,8.53
24.89,6.35,-2.23,6.35,-2.23,2.23,2.24,1.95,8.58,8.58,8.58
25.14,6.38,-2.24,6.38,-2.24,2.24,2.25,2.00,8.63,8.63,8.63
25.39,6.42,-2.26,6.42,-2.26,2.25,2.27,2.05,8.67,8.67,8.68
25.65,6.45,-2.27,6.45,-2.27,2.26,2.28,2.10,8.72,8.72,8.72
25.91,6.48,-2.28,6.48,-2.28,2.28,2.29,2.15,8.76,8.76,8.76
26.16,6.51,-2.29,6.51,-2.29,2.29,2.31,2.20,8.79,8.79,8.79
26.43,6.53,-2.30,6.53,-2.30,2.30,2.32,2.26,8.83,8.83,8.83
26.69,6.55,-2.31,6.55,-2.31,2.32,2.34,2.31,8.87,8.87,8.86
26.96,6.58,-2.33,6.58,-2.33,2.33,2.35,2.36,8.91,8.91,8.90
27.23,6.60,-2.35,6.60,-2.35,2.35,2.36,2.41,8.95,8.95,8.95
27.50,6.62,-2.37,6.62,-2.37,2.37,2.38,2.45,8.99,8.99,8.99
27.77,6.64,-2.39,6.64,-2.39,2.39,2.39,2.50,9.03,9.03,9.04
28.05,6.67,-2.42,6.66,-2.42,2.41,2.40,2.55,9.08,9.08,9.08
28.33,6.69,-2.43,6.69,-2.43,2.43,2.42,2.59,9.12,9.12,9.12
28.62,6.71,-2.45,6.71,-2.45,2.44,2.43,2.63,9.15,9.15,9.16
28.90,6.73,-2.46,6.73,-2.46,2.46,2.44,2.67,9.19,9.19,9.19
29.19,6.75,-2.47,6.75,-2.47,2.47,2.46,2.71,9.22,9.22,9.22
29.48,6.78,-2.47,6.78,-2.47,2.48,2.47,2.74,9.25,9.25,9.25
29.78,6.80,-2.48,6.80,-2.48,2.48,2.48,2.77,9.28,9.28,9.28
30.08,6.82,-2.49,6.82,-2.49,2.49,2.49,2.80,9.31,9.31,9.31
30.38,6.84,-2.49,6.84,-2.49,2.49,2.50,2.82,9.34,9.34,9.34
30.68,6.87,-2.50,6.87,-2.50,2.50,2.51,2.85,9.36,9.36,9.37
30.99,6.89,-2.50,6.89,-2.50,2.50,2.53,2.87,9.39,9.39,9.39
31.30,6.91,-2.50,6.91,-2.50,2.50,2.54,2.88,9.42,9.42,9.42
31.61,6.94,-2.50,6.94,-2.50,2.50,2.55,2.89,9.44,9.44,9.44
31.93,6.96,-2.50,6.96,-2.50,2.51,2.56,2.90,9.46,9.46,9.46
32.24,6.98,-2.51,6.98,-2.51,2.51,2.57,2.91,9.49,9.49,9.49
32.57,7.00,-2.51,7.00,-2.51,2.51,2.58,2.91,9.51,9.51,9.51
32.89,7.02,-2.52,7.02,-2.52,2.52,2.59,2.91,9.54,9.54,9.54
33.22,7.04,-2.53,7.04,-2.52,2.52,2.60,2.90,9.57,9.57,9.57
33.55,7.07,-2.53,7.07,-2.53,2.53,2.61,2.90,9.60,9.60,9.60
33.89,7.08,-2.54,7.08,-2.54,2.54,2.62,2.89,9.63,9.63,9.62
34.23,7.10,-2.55,7.10,-2.55,2.56,2.63,2.88,9.66,9.66,9.65
34.57,7.11,-2.57,7.11,-2.57,2.58,2.64,2.86,9.69,9.69,9.68
34.92,7.12,-2.59,7.12,-2.59,2.60,2.64,2.85,9.72,9.72,9.71
35.27,7.13,-2.62,7.13,-2.62,2.62,2.65,2.83,9.75,9.75,9.74
35.62,7.13,-2.65,7.13,-2.65,2.64,2.66,2.82,9.77,9.77,9.78
35.97,7.14,-2.67,7.14,-2.67,2.67,2.67,2.80,9.80,9.80,9.81
36.33,7.14,-2.69,7.14,-2.69,2.69,2.68,2.78,9.83,9.83,9.84
36.70,7.15,-2.71,7.15,-2.71,2.70,2.68,2.76,9.85,9.85,9.86
37.06,7.16,-2.72,7.16,-2.72,2.72,2.69,2.74,9.87,9.87,9.88
37.43,7.17,-2.73,7.17,-2.73,2.73,2.70,2.73,9.89,9.89,9.90
37.81,7.17,-2.73,7.17,-2.73,2.73,2.71,2.71,9.91,9.91,9.91
38.19,7.18,-2.74,7.18,-2.74,2.73,2.71,2.69,9.92,9.92,9.92
38.57,7.19,-2.74,7.19,-2.74,2.74,2.72,2.67,9.93,9.93,9.93
38.95,7.20,-2.74,7.20,-2.74,2.74,2.73,2.66,9.94,9.94,9.94
39.34,7.21,-2.74,7.21,-2.74,2.75,2.73,2.64,9.96,9.96,9.95
39.74,7.21,-2.75,7.21,-2.75,2.76,2.74,2.63,9.97,9.97,9.96
40.14,7.22,-2.76,7.22,-2.76,2.77,2.74,2.62,9.99,9.99,9.99
40.54,7.23,-2.78,7.23,-2.78,2.78,2.75,2.61,10.02,10.02,10.02
40.94,7.24,-2.80,7.24,-2.80,2.80,2.75,2.60,10.04,10.04,10.05
41.35,7.25,-2.82,7.25,-2.82,2.81,2.76,2.59,10.06,10.06,10.07
41.76,7.26,-2.83,7.26,-2.83,2.82,2.76,2.59,10.08,10.08,10.09
42.18,7.27,-2.83,7.27,-2.83,2.82,2.77,2.58,10.09,10.09,10.10
42.60,7.27,-2.83,7.27,-2.83,2.83,2.77,2.58,10.10,10.10,10.10
43.03,7.27,-2.83,7.27,-2.83,2.83,2.78,2.58,10.10,10.10,10.10
43.46,7.27,-2.82,7.27,-2.82,2.83,2.78,2.58,10.10,10.10,10.10
43.90,7.28,-2.82,7.28,-2.82,2.82,2.79,2.59,10.10,10.10,10.10
44.33,7.28,-2.82,7.28,-2.82,2.82,2.79,2.60,10.10,10.10,10.10
44.78,7.29,-2.82,7.29,-2.82,2.82,2.79,2.60,10.11,10.11,10.11
45.23,7.29,-2.82,7.29,-2.82,2.83,2.80,2.61,10.12,10.11,10.11
45.68,7.29,-2.83,7.29,-2.83,2.83,2.80,2.63,10.12,10.12,10.12
46.13,7.29,-2.84,7.29,-2.83,2.83,2.80,2.64,10.12,10.12,10.12
46.60,7.28,-2.84,7.29,-2.84,2.84,2.81,2.66,10.12,10.13,10.13
47.06,7.29,-2.85,7.29,-2.85,2.85,2.81,2.68,10.13,10.13,10.14
47.53,7.29,-2.86,7.29,-2.86,2.85,2.81,2.70,10.14,10.14,10.15
48.01,7.30,-2.86,7.30,-2.86,2.86,2.81,2.72,10.16,10.16,10.16
48.49,7.30,-2.86,7.30,-2.87,2.87,2.82,2.74,10.17,10.17,10.17
48.97,7.30,-2.87,7.30,-2.87,2.88,2.82,2.77,10.18,10.18,10.17
49.46,7.30,-2.88,7.30,-2.88,2.89,2.82,2.79,10.18,10.18,10.18
49.96,7.28,-2.90,7.28,-2.90,2.90,2.82,2.82,10.18,10.18,10.18
50.46,7.27,-2.91,7.27,-2.91,2.91,2.83,2.85,10.18,10.18,10.18
50.96,7.25,-2.93,7.25,-2.93,2.93,2.83,2.88,10.18,10.18,10.18
51.47,7.24,-2.94,7.24,-2.94,2.94,2.83,2.91,10.18,10.18,10.18
51.99,7.22,-2.95,7.22,-2.95,2.96,2.83,2.94,10.18,10.17,10.17
52.51,7.20,-2.96,7.20,-2.96,2.96,2.83,2.97,10.16,10.16,10.16
53.03,7.17,-2.97,7.17,-2.97,2.97,2.83,3.00,10.14,10.14,10.15
53.56,7.15,-2.98,7.15,-2.98,2.96,2.84,3.03,10.11,10.12,10.13
54.10,7.14,-2.97,7.14,-2.97,2.96,2.84,3.06,10.09,10.10,10.11
54.64,7.14,-2.96,7.14,-2.95,2.94,2.84,3.09,10.08,10.08,10.09
55.18,7.15,-2.93,7.15,-2.93,2.93,2.84,3.12,10.08,10.08,10.08
55.74,7.17,-2.90,7.17,-2.90,2.91,2.84,3.15,10.08,10.08,10.07
56.29,7.18,-2.88,7.18,-2.88,2.90,2.84,3.17,10.07,10.07,10.06
56.86,7.19,-2.87,7.18,-2.87,2.88,2.84,3.19,10.07,10.07,10.05
57.42,7.18,-2.86,7.18,-2.86,2.87,2.84,3.21,10.05,10.06,10.04
58.00,7.17,-2.86,7.17,-2.87,2.87,2.85,3.23,10.04,10.04,10.03
58.58,7.15,-2.87,7.15,-2.87,2.87,2.85,3.24,10.02,10.02,10.03
59.16,7.14,-2.88,7.14,-2.88,2.87,2.85,3.25,10.01,10.01,10.01
59.76,7.12,-2.88,7.12,-2.88,2.87,2.85,3.26,9.99,9.99,10.00
60.35,7.11,-2.88,7.11,-2.88,2.87,2.85,3.26,9.98,9.98,9.99
60.96,7.10,-2.87,7.10,-2.87,2.87,2.85,3.26,9.97,9.97,9.97
61.57,7.09,-2.86,7.09,-2.86,2.86,2.85,3.25,9.95,9.95,9.95
62.18,7.08,-2.85,7.08,-2.85,2.85,2.85,3.24,9.93,9.93,9.93
62.80,7.07,-2.84,7.07,-2.84,2.84,2.85,3.22,9.91,9.91,9.91
63.43,7.06,-2.82,7.06,-2.82,2.82,2.85,3.20,9.88,9.88,9.88
64.07,7.05,-2.81,7.05,-2.81,2.81,2.85,3.18,9.86,9.86,9.86
64.71,7.04,-2.79,7.04,-2.79,2.80,2.84,3.15,9.83,9.83,9.83
65.35,7.02,-2.78,7.02,-2.78,2.78,2.84,3.12,9.80,9.80,9.80
66.01,7.00,-2.77,7.00,-2.77,2.77,2.84,3.08,9.78,9.78,9.77
66.67,6.99,-2.76,6.99,-2.76,2.76,2.84,3.04,9.75,9.75,9.75
67.33,6.97,-2.75,6.97,-2.75,2.75,2.83,2.99,9.72,9.72,9.72
68.01,6.95,-2.75,6.95,-2.75,2.75,2.83,2.95,9.69,9.69,9.69
68.69,6.92,-2.74,6.92,-2.74,2.74,2.82,2.89,9.66,9.66,9.66
69.37,6.89,-2.73,6.89,-2.73,2.74,2.81,2.84,9.63,9.63,9.62
70.07,6.86,-2.73,6.86,-2.73,2.73,2.80,2.78,9.59,9.59,9.58
70.77,6.83,-2.72,6.83,-2.72,2.72,2.79,2.72,9.55,9.55,9.55
71.48,6.80,-2.72,6.80,-2.72,2.71,2.78,2.66,9.51,9.51,9.52
72.19,6.78,-2.70,6.78,-2.70,2.69,2.76,2.60,9.47,9.47,9.48
72.91,6.76,-2.68,6.76,-2.68,2.67,2.75,2.54,9.43,9.43,9.44
73.64,6.75,-2.65,6.75,-2.65,2.65,2.73,2.47,9.40,9.40,9.40
74.38,6.74,-2.62,6.74,-2.62,2.62,2.71,2.40,9.36,9.36,9.36
75.12,6.73,-2.59,6.73,-2.59,2.60,2.69,2.34,9.33,9.33,9.32
75.87,6.72,-2.56,6.72,-2.56,2.57,2.67,2.27,9.29,9.29,9.28
76.63,6.70,-2.54,6.70,-2.54,2.55,2.64,2.20,9.25,9.25,9.24
77.40,6.68,-2.52,6.67,-2.52,2.53,2.61,2.13,9.20,9.20,9.20
78.17,6.65,-2.51,6.65,-2.51,2.51,2.59,2.07,9.16,9.16,9.16
78.95,6.61,-2.50,6.61,-2.50,2.49,2.55,2.00,9.11,9.10,9.11
79.74,6.58,-2.48,6.58,-2.48,2.48,2.52,1.93,9.05,9.05,9.06
80.54,6.54,-2.46,6.54,-2.46,2.46,2.49,1.86,9.00,9.00,9.00
81.35,6.51,-2.43,6.51,-2.43,2.44,2.45,1.80,8.95,8.95,8.94
82.16,6.48,-2.41,6.48,-2.41,2.42,2.41,1.73,8.89,8.89,8.88
82.98,6.45,-2.38,6.45,-2.38,2.38,2.37,1.67,8.83,8.83,8.83
83.81,6.43,-2.35,6.43,-2.35,2.34,2.33,1.61,8.77,8.77,8.78
84.65,6.42,-2.31,6.42,-2.31,2.28,2.29,1.54,8.70,8.70,8.72
85.50,6.42,-2.25,6.42,-2.25,2.21,2.25,1.48,8.63,8.63,8.67
86.35,6.44,-2.18,6.44,-2.17,2.13,2.20,1.42,8.57,8.58,8.62
87.22,6.48,-2.08,6.48,-2.08,2.06,2.15,1.36,8.53,8.53,8.56
88.09,6.52,-1.97,6.52,-1.97,1.98,2.11,1.30,8.51,8.51,8.49
88.97,6.55,-1.88,6.55,-1.88,1.92,2.06,1.24,8.48,8.48,8.43
89.86,6.56,-1.80,6.55,-1.81,1.88,2.01,1.19,8.44,8.43,8.36
90.76,6.51,-1.78,6.50,-1.79,1.86,1.96,1.13,8.36,8.36,8.29
91.66,6.42,-1.81,6.42,-1.81,1.85,1.91,1.07,8.26,8.26,8.23
92.58,6.31,-1.85,6.31,-1.85,1.84,1.86,1.02,8.15,8.15,8.16
93.51,6.20,-1.89,6.20,-1.89,1.84,1.81,0.97,8.04,8.05,8.09
94.44,6.11,-1.90,6.11,-1.90,1.84,1.76,0.92,7.95,7.95,8.01
95.39,6.04,-1.88,6.05,-1.88,1.82,1.70,0.86,7.87,7.87,7.93
96.34,6.00,-1.83,6.00,-1.83,1.79,1.65,0.81,7.79,7.79,7.83
97.30,5.98,-1.75,5.98,-1.75,1.74,1.60,0.76,7.72,7.72,7.73
98.28,5.97,-1.66,5.96,-1.66,1.69,1.54,0.72,7.65,7.65,7.62
99.26,5.95,-1.58,5.95,-1.59,1.62,1.49,0.67,7.57,7.57,7.53
100.25,5.93,-1.53,5.92,-1.53,1.57,1.43,0.62,7.49,7.49,7.45
101.25,5.89,-1.49,5.89,-1.49,1.51,1.38,0.58,7.40,7.40,7.38
102.27,5.84,-1.46,5.84,-1.46,1.47,1.32,0.53,7.30,7.31,7.30
103.29,5.78,-1.43,5.78,-1.43,1.43,1.26,0.49,7.21,7.21,7.21
104.32,5.72,-1.40,5.72,-1.40,1.39,1.20,0.44,7.11,7.11,7.12
105.37,5.66,-1.36,5.66,-1.36,1.35,1.14,0.40,7.01,7.01,7.02
106.42,5.61,-1.32,5.61,-1.32,1.30,1.08,0.36,6.90,6.90,6.93
107.48,5.56,-1.26,5.56,-1.26,1.23,1.02,0.32,6.79,6.79,6.82
108.56,5.52,-1.17,5.52,-1.17,1.15,0.96,0.28,6.67,6.67,6.70
109.64,5.49,-1.07,5.49,-1.07,1.06,0.90,0.24,6.55,6.55,6.56
110.74,5.46,-0.95,5.47,-0.95,0.96,0.84,0.20,6.42,6.42,6.42
111.85,5.44,-0.83,5.44,-0.83,0.85,0.78,0.16,6.29,6.28,6.27
112.97,5.41,-0.71,5.41,-0.71,0.74,0.71,0.12,6.14,6.14,6.12
114.10,5.38,-0.60,5.38,-0.60,0.62,0.65,0.09,6.00,6.00,5.98
115.24,5.34,-0.50,5.34,-0.50,0.50,0.58,0.05,5.85,5.85,5.84
116.39,5.31,-0.40,5.31,-0.40,0.39,0.52,0.02,5.70,5.70,5.71
117.55,5.27,-0.30,5.27,-0.30,0.28,0.45,-0.01,5.55,5.55,5.57
118.73,5.24,-0.19,5.24,-0.19,0.16,0.38,-0.05,5.40,5.40,5.42
119.92,5.20,-0.07,5.20,-0.07,0.06,0.31,-0.08,5.26,5.26,5.27
121.12,5.16,0.04,5.16,0.04,-0.04,0.24,-0.11,5.12,5.12,5.12
122.33,5.12,0.14,5.12,0.14,-0.12,0.17,-0.14,5.00,5.00,4.97
123.55,5.08,0.22,5.08,0.22,-0.19,0.10,-0.17,4.90,4.90,4.86
124.79,5.04,0.28,5.04,0.28,-0.24,0.03,-0.20,4.81,4.81,4.76
126.03,5.01,0.30,5.01,0.30,-0.28,-0.05,-0.22,4.73,4.73,4.71
127.29,4.97,0.30,4.97,0.31,-0.30,-0.12,-0.25,4.66,4.66,4.66
128.57,4.93,0.31,4.93,0.31,-0.32,-0.20,-0.28,4.60,4.60,4.62
129.85,4.88,0.32,4.88,0.32,-0.35,-0.27,-0.30,4.54,4.54,4.56
131.15,4.84,0.34,4.84,0.34,-0.37,-0.35,-0.32,4.47,4.47,4.50
132.46,4.80,0.38,4.80,0.38,-0.41,-0.43,-0.35,4.39,4.39,4.42
133.79,4.75,0.44,4.75,0.44,-0.45,-0.51,-0.37,4.30,4.30,4.31
135.12,4.71,0.51,4.71,0.51,-0.51,-0.59,-0.39,4.20,4.20,4.19
136.48,4.66,0.58,4.66,0.58,-0.57,-0.67,-0.42,4.09,4.09,4.08
137.84,4.62,0.66,4.62,0.66,-0.64,-0.75,-0.44,3.97,3.97,3.96
139.22,4.57,0.73,4.57,0.73,-0.72,-0.83,-0.46,3.85,3.85,3.84
140.61,4.52,0.80,4.52,0.80,-0.81,-0.91,-0.48,3.72,3.72,3.72
142.02,4.48,0.88,4.48,0.88,-0.89,-0.99,-0.50,3.58,3.58,3.59
143.44,4.43,0.97,4.43,0.97,-0.99,-1.08,-0.52,3.44,3.45,3.46
144.87,4.39,1.07,4.39,1.07,-1.08,-1.16,-0.55,3.31,3.31,3.32
146.32,4.35,1.17,4.35,1.17,-1.17,-1.24,-0.57,3.17,3.17,3.17
147.78,4.31,1.28,4.30,1.28,-1.27,-1.33,-0.59,3.04,3.04,3.03
149.26,4.26,1.38,4.26,1.38,-1.36,-1.41,-0.61,2.90,2.90,2.88
150.75,4.22,1.47,4.21,1.47,-1.45,-1.49,-0.63,2.76,2.76,2.75
152.26,4.17,1.55,4.17,1.55,-1.54,-1.57,-0.66,2.62,2.62,2.62
153.78,4.12,1.62,4.12,1.62,-1.63,-1.65,-0.68,2.49,2.49,2.50
155.32,4.07,1.70,4.07,1.70,-1.72,-1.73,-0.70,2.35,2.35,2.37
156.88,4.02,1.78,4.02,1.79,-1.80,-1.81,-0.73,2.22,2.22,2.24
158.44,3.98,1.87,3.98,1.88,-1.88,-1.89,-0.75,2.10,2.10,2.10
160.03,3.93,1.97,3.93,1.96,-1.96,-1.97,-0.78,1.97,1.97,1.96
161.63,3.88,2.05,3.88,2.05,-2.03,-2.04,-0.80,1.85,1.85,1.83
163.24,3.84,2.12,3.84,2.12,-2.11,-2.11,-0.83,1.73,1.73,1.72
164.88,3.79,2.19,3.79,2.19,-2.18,-2.18,-0.86,1.61,1.61,1.60
166.53,3.74,2.24,3.74,2.25,-2.25,-2.25,-0.89,1.49,1.49,1.50
168.19,3.69,2.30,3.69,2.31,-2.32,-2.32,-0.91,1.38,1.38,1.39
169.87,3.65,2.37,3.65,2.37,-2.38,-2.38,-0.94,1.27,1.27,1.28
171.57,3.60,2.43,3.60,2.43,-2.44,-2.44,-0.98,1.16,1.16,1.16
173.29,3.55,2.50,3.55,2.50,-2.49,-2.49,-1.01,1.06,1.06,1.05
175.02,3.50,2.56,3.50,2.55,-2.55,-2.55,-1.04,0.95,0.95,0.95
176.77,3.45,2.60,3.45,2.60,-2.60,-2.60,-1.07,0.85,0.85,0.85
178.54,3.40,2.65,3.40,2.65,-2.65,-2.64,-1.11,0.75,0.75,0.75
180.32,3.34,2.69,3.34,2.69,-2.69,-2.68,-1.14,0.66,0.66,0.66
182.13,3.29,2.73,3.29,2.73,-2.72,-2.71,-1.18,0.57,0.57,0.56
183.95,3.23,2.76,3.23,2.76,-2.75,-2.75,-1.22,0.48,0.48,0.48
185.79,3.18,2.78,3.18,2.78,-2.77,-2.77,-1.26,0.40,0.40,0.40
187.65,3.13,2.80,3.13,2.79,-2.79,-2.80,-1.29,0.33,0.33,0.33
189.52,3.08,2.81,3.08,2.81,-2.81,-2.81,-1.33,0.27,0.27,0.27
191.42,3.03,2.81,3.03,2.82,-2.82,-2.83,-1.37,0.21,0.21,0.21
193.33,2.98,2.82,2.98,2.82,-2.83,-2.83,-1.42,0.15,0.15,0.16
195.27,2.94,2.83,2.94,2.83,-2.84,-2.84,-1.46,0.10,0.11,0.11
197.22,2.90,2.84,2.90,2.84,-2.84,-2.83,-1.50,0.06,0.06,0.06
199.19,2.86,2.84,2.86,2.84,-2.84,-2.83,-1.54,0.03,0.02,0.02
201.18,2.82,2.83,2.82,2.84,-2.83,-2.82,-1.58,-0.01,-0.01,-0.01
203.19,2.79,2.82,2.79,2.82,-2.82,-2.80,-1.63,-0.04,-0.04,-0.04
205.23,2.75,2.80,2.75,2.80,-2.81,-2.78,-1.67,-0.06,-0.06,-0.06
207.28,2.71,2.78,2.71,2.78,-2.78,-2.76,-1.71,-0.08,-0.08,-0.08
209.35,2.67,2.76,2.67,2.76,-2.76,-2.73,-1.75,-0.09,-0.09,-0.09
211.44,2.63,2.73,2.63,2.73,-2.72,-2.70,-1.79,-0.10,-0.10,-0.10
213.56,2.58,2.69,2.58,2.69,-2.69,-2.66,-1.83,-0.10,-0.10,-0.10
215.69,2.54,2.65,2.54,2.65,-2.65,-2.62,-1.87,-0.11,-0.11,-0.11
217.85,2.49,2.60,2.49,2.60,-2.60,-2.57,-1.91,-0.11,-0.11,-0.11
220.03,2.44,2.55,2.44,2.55,-2.55,-2.53,-1.95,-0.11,-0.11,-0.11
222.23,2.39,2.50,2.39,2.50,-2.50,-2.47,-1.98,-0.11,-0.11,-0.11
224.45,2.33,2.44,2.33,2.44,-2.44,-2.42,-2.01,-0.11,-0.11,-0.11
226.70,2.28,2.38,2.28,2.38,-2.38,-2.36,-2.04,-0.10,-0.10,-0.10
228.96,2.23,2.32,2.23,2.32,-2.32,-2.30,-2.07,-0.09,-0.09,-0.09
231.25,2.19,2.26,2.19,2.26,-2.26,-2.24,-2.09,-0.07,-0.07,-0.07
233.57,2.14,2.20,2.14,2.20,-2.20,-2.18,-2.11,-0.05,-0.05,-0.05
235.90,2.10,2.13,2.10,2.13,-2.13,-2.11,-2.13,-0.03,-0.03,-0.03
238.26,2.06,2.07,2.06,2.07,-2.07,-2.04,-2.14,-0.01,-0.01,-0.01
240.64,2.01,2.00,2.01,2.00,-2.00,-1.97,-2.15,0.01,0.01,0.01
243.05,1.97,1.93,1.97,1.93,-1.94,-1.90,-2.16,0.03,0.03,0.04
245.48,1.93,1.87,1.93,1.87,-1.87,-1.83,-2.16,0.06,0.06,0.06
247.93,1.88,1.80,1.88,1.80,-1.80,-1.76,-2.16,0.08,0.09,0.09
250.41,1.84,1.73,1.84,1.73,-1.73,-1.69,-2.15,0.11,0.11,0.11
252.92,1.80,1.66,1.80,1.66,-1.65,-1.61,-2.14,0.15,0.15,0.14
255.45,1.75,1.58,1.75,1.58,-1.57,-1.54,-2.12,0.18,0.18,0.17
258.00,1.70,1.50,1.70,1.50,-1.49,-1.47,-2.10,0.21,0.21,0.20
260.58,1.65,1.42,1.65,1.42,-1.41,-1.39,-2.07,0.24,0.24,0.23
263.19,1.60,1.33,1.60,1.33,-1.33,-1.32,-2.05,0.26,0.27,0.27
265.82,1.55,1.25,1.55,1.25,-1.25,-1.25,-2.01,0.30,0.30,0.30
268.48,1.51,1.17,1.51,1.17,-1.18,-1.17,-1.98,0.33,0.33,0.33
271.16,1.46,1.10,1.46,1.10,-1.11,-1.10,-1.94,0.36,0.36,0.36
273.87,1.42,1.03,1.42,1.03,-1.04,-1.03,-1.89,0.38,0.38,0.39
276.61,1.38,0.97,1.38,0.97,-0.97,-0.96,-1.85,0.40,0.40,0.41
279.38,1.33,0.91,1.33,0.91,-0.91,-0.89,-1.80,0.42,0.42,0.42
282.17,1.29,0.85,1.29,0.85,-0.85,-0.82,-1.75,0.44,0.44,0.44
284.99,1.25,0.80,1.25,0.80,-0.79,-0.75,-1.69,0.45,0.45,0.45
287.84,1.20,0.74,1.20,0.74,-0.74,-0.69,-1.63,0.47,0.47,0.46
290.72,1.16,0.68,1.16,0.68,-0.68,-0.62,-1.58,0.48,0.48,0.48
293.63,1.12,0.62,1.12,0.62,-0.62,-0.56,-1.52,0.50,0.50,0.50
296.57,1.07,0.55,1.07,0.55,-0.55,-0.49,-1.46,0.52,0.52,0.52
299.53,1.03,0.49,1.03,0.49,-0.48,-0.43,-1.39,0.54,0.54,0.54
302.53,0.98,0.42,0.98,0.42,-0.41,-0.37,-1.33,0.57,0.57,0.56
305.55,0.94,0.35,0.94,0.35,-0.34,-0.31,-1.26,0.60,0.60,0.59
308.61,0.89,0.27,0.89,0.27,-0.27,-0.25,-1.20,0.63,0.63,0.62
311.69,0.85,0.19,0.85,0.19,-0.19,-0.19,-1.13,0.66,0.66,0.66
314.81,0.80,0.11,0.80,0.11,-0.11,-0.14,-1.07,0.69,0.69,0.69
317.96,0.76,0.04,0.76,0.04,-0.04,-0.08,-1.00,0.72,0.72,0.72
321.14,0.72,-0.03,0.72,-0.03,0.03,-0.03,-0.93,0.74,0.74,0.75
324.35,0.67,-0.10,0.67,-0.10,0.09,0.02,-0.87,0.76,0.76,0.77
327.59,0.63,-0.16,0.63,-0.16,0.15,0.07,-0.80,0.78,0.78,0.78
330.87,0.59,-0.21,0.59,-0.21,0.21,0.12,-0.73,0.79,0.79,0.80
334.18,0.55,-0.26,0.55,-0.26,0.26,0.17,-0.67,0.80,0.80,0.80
337.52,0.51,-0.30,0.51,-0.30,0.30,0.22,-0.60,0.81,0.81,0.81
340.90,0.47,-0.34,0.47,-0.34,0.34,0.27,-0.54,0.81,0.81,0.81
344.30,0.43,-0.38,0.43,-0.38,0.38,0.31,-0.47,0.81,0.81,0.81
347.75,0.39,-0.41,0.39,-0.41,0.42,0.35,-0.40,0.81,0.81,0.81
351.23,0.35,-0.45,0.35,-0.45,0.45,0.40,-0.34,0.81,0.80,0.80
354.74,0.31,-0.49,0.31,-0.49,0.49,0.44,-0.27,0.80,0.80,0.80
358.28,0.27,-0.52,0.27,-0.52,0.52,0.48,-0.21,0.79,0.79,0.79
361.87,0.23,-0.56,0.23,-0.56,0.56,0.52,-0.14,0.79,0.79,0.79
365.49,0.19,-0.59,0.19,-0.59,0.59,0.56,-0.08,0.79,0.79,0.79
369.14,0.15,-0.63,0.15,-0.63,0.63,0.59,-0.01,0.78,0.78,0.78
372.83,0.12,-0.66,0.12,-0.66,0.66,0.63,0.05,0.78,0.78,0.78
376.56,0.08,-0.70,0.08,-0.70,0.70,0.66,0.11,0.78,0.78,0.78
380.33,0.04,-0.73,0.04,-0.74,0.74,0.70,0.18,0.78,0.78,0.77
384.13,-0.00,-0.77,-0.00,-0.77,0.77,0.73,0.24,0.77,0.77,0.77
387.97,-0.04,-0.81,-0.04,-0.81,0.81,0.76,0.30,0.76,0.76,0.77
391.85,-0.08,-0.84,-0.08,-0.84,0.84,0.79,0.37,0.76,0.76,0.76
395.77,-0.13,-0.87,-0.13,-0.87,0.87,0.82,0.43,0.75,0.75,0.75
399.73,-0.17,-0.90,-0.16,-0.90,0.90,0.85,0.49,0.74,0.74,0.74
403.72,-0.20,-0.93,-0.20,-0.93,0.93,0.88,0.55,0.73,0.73,0.73
407.76,-0.24,-0.95,-0.24,-0.95,0.95,0.91,0.61,0.72,0.72,0.71
411.84,-0.27,-0.97,-0.27,-0.97,0.97,0.93,0.67,0.70,0.70,0.70
415.96,-0.30,-0.99,-0.30,-0.99,0.99,0.96,0.73,0.69,0.69,0.69
420.12,-0.33,-1.01,-0.33,-1.01,1.01,0.98,0.79,0.68,0.68,0.68
424.32,-0.36,-1.03,-0.36,-1.03,1.03,1.00,0.84,0.66,0.66,0.66
428.56,-0.39,-1.04,-0.39,-1.04,1.04,1.03,0.90,0.65,0.65,0.65
432.85,-0.42,-1.05,-0.42,-1.05,1.05,1.05,0.95,0.63,0.63,0.64
437.18,-0.44,-1.06,-0.44,-1.06,1.06,1.07,1.00,0.62,0.62,0.62
441.55,-0.46,-1.07,-0.46,-1.07,1.07,1.09,1.06,0.61,0.61,0.61
445.96,-0.48,-1.07,-0.48,-1.07,1.07,1.11,1.10,0.60,0.60,0.60
450.42,-0.49,-1.08,-0.49,-1.08,1.08,1.12,1.15,0.58,0.58,0.58
454.93,-0.51,-1.08,-0.51,-1.08,1.08,1.14,1.20,0.57,0.57,0.57
459.48,-0.52,-1.09,-0.52,-1.09,1.09,1.16,1.24,0.57,0.57,0.56
464.07,-0.54,-1.09,-0.54,-1.09,1.10,1.17,1.28,0.56,0.56,0.55
468.71,-0.56,-1.10,-0.56,-1.10,1.10,1.19,1.32,0.55,0.54,0.54
473.40,-0.58,-1.11,-0.58,-1.11,1.11,1.20,1.36,0.53,0.53,0.53
478.13,-0.61,-1.12,-0.61,-1.12,1.12,1.21,1.39,0.52,0.52,0.52
482.91,-0.64,-1.14,-0.64,-1.14,1.14,1.23,1.42,0.50,0.50,0.50
487.74,-0.66,-1.15,-0.66,-1.15,1.15,1.24,1.45,0.49,0.49,0.49
492.62,-0.69,-1.16,-0.69,-1.16,1.16,1.25,1.47,0.47,0.47,0.47
497.55,-0.72,-1.17,-0.72,-1.17,1.17,1.26,1.49,0.46,0.46,0.46
502.52,-0.74,-1.18,-0.74,-1.19,1.19,1.27,1.51,0.44,0.44,0.44
507.55,-0.77,-1.20,-0.77,-1.20,1.20,1.28,1.53,0.43,0.43,0.43
512.62,-0.80,-1.21,-0.80,-1.21,1.21,1.28,1.54,0.41,0.41,0.41
517.75,-0.82,-1.22,-0.82,-1.22,1.22,1.29,1.55,0.40,0.40,0.40
522.93,-0.84,-1.23,-0.84,-1.23,1.23,1.30,1.56,0.38,0.38,0.38
528.16,-0.87,-1.24,-0.87,-1.24,1.23,1.30,1.57,0.37,0.37,0.37
533.44,-0.89,-1.24,-0.89,-1.24,1.24,1.31,1.57,0.35,0.35,0.36
538.77,-0.91,-1.25,-0.91,-1.25,1.25,1.31,1.57,0.34,0.34,0.34
544.16,-0.93,-1.26,-0.93,-1.26,1.25,1.32,1.57,0.33,0.33,0.33
