frequency,raw,error,smoothed,error_smoothed,equalization,parametric_eq,fixed_band_eq,equalized_raw,equalized_smoothed,target
20.00,1.82,-2.47,1.82,-2.47,2.47,2.23,0.16,4.29,4.29,4.29
20.20,1.88,-2.41,1.88,-2.41,2.41,2.19,0.16,4.29,4.29,4.29
20.40,1.94,-2.34,1.94,-2.34,2.34,2.16,0.17,4.28,4.28,4.28
20.61,2.00,-2.28,2.00,-2.28,2.28,2.12,0.18,4.27,4.27,4.28
20.81,2.06,-2.22,2.06,-2.22,2.21,2.07,0.18,4.27,4.27,4.27
21.02,2.12,-2.15,2.12,-2.15,2.15,2.03,0.19,4.26,4.26,4.27
21.23,2.17,-2.09,2.17,-2.09,2.09,1.99,0.20,4.26,4.26,4.26
21.44,2.23,-2.02,2.23,-2.02,2.02,1.95,0.20,4.26,4.26,4.25
21.66,2.29,-1.96,2.29,-1.96,1.96,1.90,0.21,4.25,4.25,4.25
21.87,2.35,-1.89,2.35,-1.89,1.89,1.86,0.22,4.24,4.24,4.24
22.09,2.40,-1.83,2.40,-1.83,1.83,1.81,0.23,4.23,4.23,4.23
22.31,2.46,-1.77,2.46,-1.77,1.77,1.77,0.23,4.23,4.23,4.23
22.54,2.51,-1.71,2.51,-1.71,1.71,1.72,0.24,4.22,4.22,4.22
22.76,2.56,-1.65,2.56,-1.65,1.65,1.67,0.25,4.21,4.21,4.21
22.99,2.61,-1.59,2.61,-1.59,1.59,1.62,0.26,4.20,4.20,4.20
23.22,2.66,-1.53,2.66,-1.53,1.53,1.57,0.27,4.19,4.19,4.19
23.45,2.71,-1.47,2.71,-1.47,1.47,1.52,0.28,4.18,4.18,4.18
23.69,2.77,-1.41,2.77,-1.41,1.41,1.47,0.29,4.17,4.17,4.17
23.92,2.82,-1.35,2.82,-1.35,1.35,1.42,0.30,4.17,4.17,4.17
24.16,2.87,-1.29,2.87,-1.29,1.29,1.36,0.30,4.16,4.16,4.16
24.40,2.92,-1.23,2.92,-1.23,1.23,1.31,0.31,4.15,4.15,4.15
24.65,2.97,-1.17,2.97,-1.17,1.17,1.26,0.32,4.14,4.14,4.14
24.89,3.02,-1.11,3.02,-1.11,1.11,1.20,0.33,4.13,4.13,4.13
25.14,3.07,-1.05,3.07,-1.05,1.05,1.15,0.34,4.12,4.12,4.12
25.39,3.12,-0.99,3.12,-0.99,1.00,1.09,0.35,4.11,4.11,4.11
25.65,3.17,-0.94,3.17,-0.94,0.94,1.04,0.36,4.10,4.10,4.10
25.91,3.21,-0.88,3.21,-0.88,0.88,0.98,0.37,4.09,4.09,4.09
26.16,3.26,-0.82,3.26,-0.82,0.82,0.92,0.37,4.08,4.08,4.09
26.43,3.31,-0.77,3.31,-0.77,0.77,0.87,0.38,4.08,4.08,4.08
26.69,3.36,-0.71,3.36,-0.71,0.71,0.81,0.39,4.07,4.07,4.07
26.96,3.41,-0.65,3.41,-0.65,0.65,0.75,0.40,4.06,4.06,4.06
27.23,3.45,-0.60,3.45,-0.60,0.60,0.70,0.40,4.05,4.05,4.05
27.50,3.50,-0.54,3.50,-0.54,0.54,0.64,0.41,4.04,4.04,4.04
27.77,3.55,-0.48,3.55,-0.48,0.48,0.58,0.41,4.03,4.03,4.03
28.05,3.59,-0.43,3.59,-0.43,0.43,0.52,0.41,4.02,4.02,4.02
28.33,3.64,-0.38,3.64,-0.38,0.38,0.47,0.42,4.01,4.01,4.01
28.62,3.68,-0.32,3.68,-0.32,0.32,0.41,0.42,4.00,4.00,4.00
28.90,3.72,-0.27,3.72,-0.27,0.27,0.35,0.42,4.00,4.00,3.99
29.19,3.76,-0.22,3.76,-0.22,0.22,0.29,0.41,3.99,3.99,3.99
29.48,3.80,-0.17,3.80,-0.17,0.17,0.24,0.41,3.98,3.98,3.98
29.78,3.84,-0.13,3.84,-0.13,0.13,0.18,0.41,3.97,3.97,3.97
30.08,3.88,-0.08,3.88,-0.08,0.08,0.13,0.40,3.96,3.96,3.96
30.38,3.92,-0.03,3.92,-0.03,0.03,0.07,0.39,3.95,3.95,3.95
30.68,3.96,0.01,3.96,0.02,-0.02,0.02,0.38,3.94,3.94,3.94
30.99,3.99,0.06,3.99,0.06,-0.06,-0.04,0.37,3.93,3.93,3.93
31.30,4.03,0.11,4.03,0.11,-0.11,-0.09,0.36,3.92,3.92,3.92
31.61,4.07,0.16,4.07,0.16,-0.16,-0.15,0.34,3.91,3.91,3.91
31.93,4.11,0.20,4.11,0.20,-0.20,-0.20,0.33,3.90,3.90,3.90
32.24,4.15,0.25,4.15,0.25,-0.25,-0.25,0.31,3.90,3.90,3.90
32.57,4.18,0.30,4.18,0.30,-0.30,-0.30,0.29,3.89,3.89,3.89
32.89,4.22,0.34,4.22,0.34,-0.34,-0.35,0.26,3.88,3.88,3.88
33.22,4.25,0.39,4.25,0.39,-0.39,-0.40,0.24,3.87,3.87,3.87
33.55,4.29,0.43,4.29,0.43,-0.43,-0.45,0.21,3.86,3.86,3.86
33.89,4.32,0.47,4.32,0.47,-0.47,-0.49,0.19,3.85,3.85,3.85
34.23,4.36,0.51,4.36,0.52,-0.52,-0.54,0.16,3.84,3.84,3.84
34.57,4.39,0.56,4.39,0.56,-0.56,-0.58,0.13,3.83,3.83,3.83
34.92,4.42,0.60,4.42,0.60,-0.60,-0.63,0.10,3.82,3.82,3.82
35.27,4.45,0.64,4.45,0.64,-0.64,-0.67,0.06,3.81,3.81,3.81
35.62,4.48,0.68,4.48,0.68,-0.68,-0.71,0.03,3.81,3.81,3.80
35.97,4.51,0.72,4.51,0.72,-0.72,-0.75,-0.01,3.80,3.80,3.80
36.33,4.54,0.76,4.54,0.76,-0.76,-0.79,-0.05,3.79,3.79,3.79
36.70,4.57,0.79,4.57,0.79,-0.79,-0.83,-0.08,3.78,3.78,3.78
37.06,4.60,0.83,4.60,0.83,-0.83,-0.86,-0.12,3.77,3.77,3.77
37.43,4.63,0.87,4.63,0.87,-0.87,-0.90,-0.17,3.76,3.76,3.76
37.81,4.66,0.91,4.66,0.91,-0.91,-0.93,-0.21,3.75,3.75,3.75
38.19,4.68,0.94,4.68,0.94,-0.94,-0.97,-0.25,3.74,3.74,3.74
38.57,4.71,0.98,4.71,0.98,-0.98,-1.00,-0.29,3.73,3.73,3.73
38.95,4.74,1.01,4.74,1.01,-1.01,-1.03,-0.34,3.72,3.72,3.72
39.34,4.76,1.05,4.76,1.05,-1.05,-1.06,-0.38,3.71,3.71,3.71
39.74,4.79,1.08,4.79,1.08,-1.08,-1.09,-0.43,3.71,3.71,3.71
40.14,4.81,1.11,4.81,1.11,-1.11,-1.12,-0.48,3.70,3.70,3.70
40.54,4.83,1.15,4.83,1.15,-1.15,-1.15,-0.52,3.69,3.69,3.69
40.94,4.85,1.18,4.85,1.18,-1.18,-1.18,-0.57,3.68,3.68,3.68
41.35,4.88,1.21,4.88,1.21,-1.21,-1.20,-0.62,3.67,3.67,3.67
41.76,4.90,1.24,4.90,1.24,-1.24,-1.23,-0.67,3.66,3.66,3.66
42.18,4.92,1.27,4.92,1.27,-1.27,-1.25,-0.72,3.65,3.65,3.65
42.60,4.94,1.30,4.94,1.30,-1.30,-1.27,-0.78,3.64,3.64,3.64
43.03,4.96,1.32,4.96,1.32,-1.32,-1.30,-0.83,3.63,3.63,3.63
43.46,4.98,1.35,4.98,1.35,-1.35,-1.32,-0.88,3.62,3.62,3.62
43.90,4.99,1.38,4.99,1.38,-1.38,-1.34,-0.94,3.61,3.61,3.61
44.33,5.01,1.41,5.01,1.41,-1.41,-1.36,-0.99,3.61,3.61,3.61
44.78,5.03,1.43,5.03,1.43,-1.43,-1.38,-1.05,3.60,3.60,3.60
45.23,5.04,1.45,5.04,1.45,-1.45,-1.40,-1.11,3.59,3.59,3.59
45.68,5.05,1.48,5.06,1.48,-1.48,-1.42,-1.16,3.58,3.58,3.58
46.13,5.07,1.50,5.07,1.50,-1.50,-1.44,-1.22,3.57,3.57,3.57
46.60,5.08,1.52,5.08,1.52,-1.52,-1.46,-1.28,3.56,3.56,3.56
47.06,5.09,1.54,5.09,1.54,-1.54,-1.48,-1.34,3.55,3.55,3.55
47.53,5.10,1.56,5.10,1.56,-1.56,-1.50,-1.40,3.54,3.54,3.54
48.01,5.11,1.57,5.11,1.57,-1.58,-1.51,-1.46,3.53,3.53,3.53
48.49,5.12,1.59,5.12,1.59,-1.59,-1.53,-1.52,3.52,3.52,3.52
48.97,5.12,1.61,5.12,1.61,-1.61,-1.55,-1.58,3.51,3.51,3.51
49.46,5.13,1.63,5.13,1.63,-1.63,-1.56,-1.64,3.51,3.51,3.51
49.96,5.14,1.64,5.14,1.64,-1.64,-1.58,-1.71,3.50,3.50,3.50
50.46,5.15,1.66,5.15,1.66,-1.66,-1.60,-1.77,3.49,3.49,3.49
50.96,5.15,1.67,5.15,1.67,-1.67,-1.61,-1.83,3.48,3.48,3.48
51.47,5.15,1.69,5.15,1.69,-1.69,-1.63,-1.89,3.47,3.47,3.47
51.99,5.16,1.70,5.16,1.70,-1.70,-1.64,-1.95,3.46,3.46,3.46
52.51,5.16,1.71,5.16,1.71,-1.72,-1.66,-2.01,3.45,3.45,3.45
53.03,5.17,1.73,5.17,1.73,-1.73,-1.67,-2.07,3.44,3.44,3.44
53.56,5.17,1.74,5.17,1.74,-1.74,-1.69,-2.13,3.43,3.43,3.43
54.10,5.18,1.76,5.18,1.76,-1.75,-1.70,-2.18,3.42,3.42,3.42
54.64,5.18,1.77,5.18,1.77,-1.77,-1.72,-2.24,3.41,3.41,3.41
55.18,5.18,1.78,5.18,1.78,-1.78,-1.73,-2.29,3.40,3.40,3.40
55.74,5.18,1.79,5.18,1.79,-1.79,-1.74,-2.34,3.39,3.39,3.39
56.29,5.18,1.79,5.18,1.79,-1.79,-1.76,-2.38,3.38,3.38,3.38
56.86,5.17,1.80,5.17,1.80,-1.80,-1.77,-2.42,3.37,3.37,3.37
57.42,5.17,1.81,5.17,1.81,-1.81,-1.78,-2.46,3.36,3.36,3.36
58.00,5.16,1.81,5.16,1.81,-1.81,-1.79,-2.50,3.35,3.35,3.35
58.58,5.16,1.82,5.16,1.82,-1.82,-1.80,-2.53,3.34,3.34,3.34
59.16,5.15,1.82,5.15,1.82,-1.82,-1.81,-2.56,3.33,3.33,3.33
59.76,5.15,1.83,5.15,1.83,-1.83,-1.82,-2.58,3.32,3.32,3.32
60.35,5.14,1.83,5.14,1.83,-1.83,-1.83,-2.60,3.31,3.31,3.31
60.96,5.13,1.83,5.13,1.83,-1.84,-1.84,-2.61,3.29,3.29,3.29
61.57,5.12,1.84,5.12,1.84,-1.84,-1.85,-2.62,3.28,3.28,3.28
62.18,5.11,1.84,5.11,1.84,-1.84,-1.85,-2.62,3.27,3.27,3.27
62.80,5.10,1.84,5.10,1.84,-1.84,-1.86,-2.61,3.26,3.26,3.26
63.43,5.08,1.84,5.08,1.84,-1.84,-1.86,-2.60,3.25,3.25,3.24
64.07,5.07,1.84,5.07,1.84,-1.84,-1.87,-2.59,3.23,3.23,3.23
64.71,5.06,1.84,5.06,1.84,-1.84,-1.87,-2.57,3.22,3.22,3.22
65.35,5.04,1.83,5.04,1.83,-1.83,-1.87,-2.55,3.21,3.21,3.21
66.01,5.02,1.83,5.02,1.83,-1.83,-1.88,-2.52,3.19,3.19,3.19
66.67,5.00,1.82,5.00,1.82,-1.82,-1.88,-2.48,3.18,3.18,3.18
67.33,4.98,1.81,4.98,1.81,-1.81,-1.88,-2.45,3.16,3.16,3.16
68.01,4.96,1.81,4.96,1.81,-1.81,-1.87,-2.40,3.15,3.15,3.15
68.69,4.93,1.80,4.93,1.80,-1.80,-1.87,-2.36,3.14,3.14,3.14
69.37,4.91,1.79,4.91,1.79,-1.79,-1.87,-2.31,3.12,3.12,3.12
70.07,4.89,1.78,4.89,1.78,-1.78,-1.86,-2.25,3.11,3.11,3.11
70.77,4.86,1.77,4.87,1.77,-1.77,-1.85,-2.20,3.10,3.10,3.10
71.48,4.84,1.76,4.84,1.76,-1.76,-1.85,-2.14,3.08,3.08,3.08
72.19,4.81,1.75,4.81,1.75,-1.75,-1.84,-2.08,3.07,3.07,3.07
72.91,4.79,1.74,4.79,1.74,-1.74,-1.83,-2.01,3.05,3.05,3.05
73.64,4.76,1.72,4.76,1.72,-1.72,-1.82,-1.95,3.04,3.04,3.04
74.38,4.73,1.71,4.73,1.71,-1.71,-1.80,-1.88,3.03,3.03,3.03
75.12,4.71,1.69,4.71,1.69,-1.69,-1.79,-1.82,3.01,3.01,3.01
75.87,4.68,1.68,4.68,1.68,-1.68,-1.77,-1.75,3.00,3.00,3.00
76.63,4.65,1.66,4.65,1.66,-1.66,-1.75,-1.68,2.98,2.98,2.98
77.40,4.61,1.65,4.61,1.65,-1.65,-1.73,-1.61,2.97,2.97,2.97
78.17,4.58,1.63,4.58,1.63,-1.63,-1.71,-1.54,2.96,2.96,2.95
78.95,4.55,1.61,4.55,1.61,-1.61,-1.69,-1.47,2.94,2.94,2.94
79.74,4.51,1.59,4.51,1.59,-1.58,-1.67,-1.40,2.93,2.93,2.93
80.54,4.48,1.56,4.48,1.56,-1.56,-1.64,-1.33,2.91,2.91,2.91
81.35,4.44,1.54,4.44,1.54,-1.54,-1.62,-1.26,2.90,2.90,2.90
82.16,4.40,1.51,4.40,1.51,-1.51,-1.59,-1.19,2.88,2.88,2.88
82.98,4.36,1.49,4.36,1.49,-1.49,-1.56,-1.12,2.87,2.87,2.87
83.81,4.32,1.46,4.31,1.46,-1.46,-1.53,-1.05,2.86,2.85,2.86
84.65,4.27,1.43,4.27,1.43,-1.43,-1.50,-0.98,2.84,2.84,2.84
85.50,4.23,1.40,4.23,1.40,-1.40,-1.46,-0.91,2.83,2.83,2.83
86.35,4.19,1.37,4.19,1.37,-1.38,-1.43,-0.85,2.81,2.81,2.81
87.22,4.14,1.34,4.14,1.35,-1.35,-1.39,-0.78,2.80,2.80,2.80
88.09,4.10,1.31,4.10,1.31,-1.31,-1.36,-0.71,2.79,2.79,2.79
88.97,4.05,1.28,4.05,1.28,-1.28,-1.32,-0.65,2.77,2.77,2.77
89.86,4.00,1.25,4.00,1.25,-1.24,-1.28,-0.58,2.76,2.76,2.76
90.76,3.95,1.21,3.95,1.21,-1.21,-1.23,-0.52,2.74,2.74,2.74
91.66,3.90,1.17,3.90,1.17,-1.17,-1.19,-0.45,2.73,2.73,2.73
92.58,3.84,1.13,3.84,1.13,-1.13,-1.15,-0.39,2.71,2.71,2.71
93.51,3.78,1.08,3.78,1.08,-1.09,-1.10,-0.33,2.70,2.70,2.70
94.44,3.73,1.04,3.73,1.04,-1.04,-1.05,-0.27,2.69,2.69,2.69
95.39,3.67,1.00,3.67,1.00,-1.00,-1.01,-0.20,2.67,2.67,2.67
96.34,3.61,0.95,3.61,0.95,-0.95,-0.96,-0.14,2.66,2.66,2.66
97.30,3.55,0.91,3.55,0.91,-0.91,-0.91,-0.08,2.64,2.64,2.64
98.28,3.49,0.86,3.49,0.86,-0.86,-0.86,-0.02,2.63,2.63,2.63
99.26,3.43,0.81,3.43,0.81,-0.81,-0.80,0.04,2.62,2.62,2.62
100.25,3.36,0.76,3.36,0.76,-0.76,-0.75,0.09,2.60,2.60,2.60
101.25,3.30,0.71,3.30,0.71,-0.71,-0.70,0.15,2.59,2.59,2.59
102.27,3.23,0.66,3.23,0.66,-0.66,-0.64,0.21,2.57,2.57,2.57
103.29,3.16,0.61,3.16,0.61,-0.61,-0.58,0.27,2.56,2.56,2.56
104.32,3.10,0.55,3.10,0.55,-0.55,-0.53,0.32,2.54,2.54,2.54
105.37,3.03,0.49,3.03,0.50,-0.50,-0.47,0.38,2.53,2.53,2.53
106.42,2.95,0.44,2.95,0.44,-0.44,-0.41,0.43,2.52,2.52,2.52
107.48,2.88,0.38,2.88,0.38,-0.38,-0.35,0.48,2.50,2.50,2.50
108.56,2.81,0.32,2.81,0.32,-0.32,-0.29,0.54,2.49,2.49,2.49
109.64,2.73,0.26,2.73,0.26,-0.26,-0.22,0.59,2.47,2.47,2.47
110.74,2.66,0.20,2.66,0.20,-0.20,-0.16,0.64,2.46,2.46,2.46
111.85,2.58,0.14,2.58,0.14,-0.14,-0.10,0.69,2.45,2.45,2.45
112.97,2.50,0.07,2.50,0.07,-0.07,-0.03,0.74,2.43,2.43,2.43
114.10,2.42,0.01,2.42,0.01,-0.01,0.03,0.78,2.42,2.42,2.42
115.24,2.34,-0.06,2.34,-0.06,0.06,0.10,0.83,2.40,2.40,2.40
116.39,2.26,-0.13,2.26,-0.13,0.13,0.16,0.87,2.39,2.39,2.39
117.55,2.18,-0.20,2.18,-0.20,0.20,0.23,0.91,2.38,2.37,2.37
118.73,2.10,-0.27,2.10,-0.27,0.27,0.30,0.96,2.36,2.36,2.36
119.92,2.01,-0.34,2.01,-0.34,0.34,0.37,0.99,2.35,2.35,2.35
121.12,1.92,-0.41,1.92,-0.41,0.41,0.44,1.03,2.33,2.33,2.33
122.33,1.83,-0.48,1.83,-0.49,0.49,0.51,1.07,2.32,2.32,2.32
123.55,1.74,-0.56,1.74,-0.56,0.56,0.58,1.10,2.30,2.30,2.30
124.79,1.65,-0.64,1.65,-0.64,0.64,0.66,1.14,2.29,2.29,2.29
126.03,1.56,-0.72,1.56,-0.72,0.72,0.73,1.17,2.27,2.27,2.28
127.29,1.47,-0.80,1.47,-0.80,0.79,0.80,1.20,2.26,2.26,2.26
128.57,1.37,-0.87,1.37,-0.87,0.87,0.88,1.23,2.25,2.25,2.25
129.85,1.28,-0.95,1.28,-0.95,0.95,0.95,1.26,2.23,2.23,2.23
131.15,1.19,-1.03,1.19,-1.03,1.03,1.03,1.28,2.22,2.22,2.22
132.46,1.09,-1.11,1.09,-1.11,1.11,1.10,1.31,2.21,2.21,2.21
133.79,1.00,-1.19,1.00,-1.19,1.19,1.18,1.33,2.19,2.19,2.19
135.12,0.90,-1.27,0.90,-1.27,1.28,1.26,1.35,2.18,2.18,2.18
136.48,0.81,-1.36,0.81,-1.36,1.36,1.33,1.38,2.16,2.16,2.16
137.84,0.71,-1.44,0.71,-1.44,1.44,1.41,1.40,2.15,2.15,2.15
139.22,0.61,-1.53,0.61,-1.53,1.53,1.49,1.42,2.13,2.13,2.13
140.61,0.51,-1.61,0.51,-1.61,1.61,1.57,1.44,2.12,2.12,2.12
142.02,0.41,-1.69,0.41,-1.69,1.69,1.65,1.46,2.11,2.11,2.11
143.44,0.31,-1.78,0.31,-1.78,1.78,1.73,1.48,2.09,2.09,2.09
144.87,0.22,-1.86,0.22,-1.86,1.86,1.81,1.50,2.08,2.08,2.08
146.32,0.12,-1.94,0.12,-1.94,1.94,1.89,1.52,2.06,2.06,2.06
147.78,0.02,-2.03,0.02,-2.03,2.03,1.97,1.54,2.05,2.05,2.05
149.26,-0.07,-2.11,-0.07,-2.11,2.11,2.05,1.56,2.04,2.04,2.04
150.75,-0.17,-2.19,-0.17,-2.19,2.19,2.13,1.58,2.02,2.02,2.02
152.26,-0.26,-2.27,-0.26,-2.27,2.27,2.21,1.60,2.01,2.01,2.01
153.78,-0.36,-2.35,-0.36,-2.35,2.35,2.29,1.63,1.99,1.99,1.99
155.32,-0.45,-2.43,-0.45,-2.43,2.43,2.37,1.65,1.98,1.98,1.98
156.88,-0.54,-2.51,-0.54,-2.51,2.51,2.45,1.67,1.97,1.97,1.96
158.44,-0.63,-2.58,-0.63,-2.58,2.58,2.53,1.70,1.95,1.95,1.95
160.03,-0.72,-2.66,-0.72,-2.66,2.66,2.60,1.73,1.94,1.94,1.94
161.63,-0.81,-2.73,-0.81,-2.73,2.73,2.68,1.75,1.92,1.92,1.92
163.24,-0.89,-2.80,-0.89,-2.80,2.80,2.75,1.78,1.91,1.91,1.91
164.88,-0.97,-2.87,-0.97,-2.86,2.86,2.82,1.81,1.89,1.89,1.89
166.53,-1.05,-2.93,-1.05,-2.93,2.93,2.89,1.84,1.88,1.88,1.88
168.19,-1.12,-2.99,-1.12,-2.99,2.99,2.96,1.88,1.87,1.87,1.87
169.87,-1.20,-3.05,-1.20,-3.05,3.05,3.03,1.91,1.85,1.85,1.85
171.57,-1.27,-3.10,-1.27,-3.10,3.11,3.09,1.95,1.84,1.84,1.84
173.29,-1.34,-3.16,-1.34,-3.16,3.16,3.15,1.99,1.82,1.82,1.82
175.02,-1.40,-3.21,-1.40,-3.21,3.21,3.20,2.03,1.81,1.81,1.81
176.77,-1.46,-3.26,-1.46,-3.26,3.26,3.26,2.07,1.79,1.79,1.79
178.54,-1.52,-3.30,-1.52,-3.30,3.30,3.31,2.11,1.78,1.78,1.78
180.32,-1.58,-3.35,-1.58,-3.35,3.35,3.35,2.16,1.77,1.77,1.77
182.13,-1.63,-3.38,-1.63,-3.38,3.38,3.39,2.20,1.75,1.75,1.75
183.95,-1.68,-3.42,-1.68,-3.42,3.42,3.43,2.25,1.74,1.74,1.74
185.79,-1.73,-3.45,-1.73,-3.45,3.45,3.47,2.30,1.72,1.72,1.72
187.65,-1.77,-3.48,-1.77,-3.48,3.48,3.50,2.35,1.71,1.71,1.71
189.52,-1.81,-3.51,-1.81,-3.51,3.50,3.52,2.40,1.70,1.70,1.70
191.42,-1.84,-3.53,-1.84,-3.53,3.53,3.54,2.46,1.68,1.68,1.68
193.33,-1.88,-3.54,-1.88,-3.54,3.54,3.56,2.51,1.67,1.67,1.67
195.27,-1.90,-3.56,-1.90,-3.56,3.55,3.58,2.57,1.65,1.65,1.65
197.22,-1.92,-3.56,-1.92,-3.56,3.56,3.58,2.62,1.64,1.64,1.64
199.19,-1.94,-3.57,-1.94,-3.57,3.57,3.59,2.68,1.63,1.63,1.63
201.18,-1.96,-3.57,-1.96,-3.57,3.57,3.59,2.74,1.61,1.61,1.61
203.19,-1.97,-3.57,-1.97,-3.57,3.57,3.59,2.80,1.60,1.60,1.60
205.23,-1.98,-3.56,-1.98,-3.56,3.57,3.58,2.86,1.58,1.58,1.58
207.28,-1.99,-3.56,-1.99,-3.56,3.56,3.58,2.92,1.57,1.57,1.57
209.35,-2.00,-3.55,-2.00,-3.55,3.55,3.57,2.98,1.55,1.55,1.55
211.44,-2.00,-3.54,-2.00,-3.54,3.54,3.55,3.04,1.54,1.54,1.54
213.56,-2.00,-3.53,-2.00,-3.53,3.53,3.53,3.10,1.52,1.53,1.53
215.69,-2.00,-3.51,-2.00,-3.51,3.51,3.52,3.16,1.51,1.51,1.51
217.85,-2.00,-3.50,-2.00,-3.50,3.50,3.50,3.22,1.50,1.50,1.50
220.03,-1.99,-3.48,-1.99,-3.48,3.48,3.47,3.27,1.48,1.48,1.48
222.23,-1.98,-3.45,-1.98,-3.45,3.45,3.45,3.32,1.47,1.47,1.47
224.45,-1.97,-3.43,-1.97,-3.43,3.43,3.42,3.38,1.46,1.46,1.46
226.70,-1.96,-3.40,-1.96,-3.40,3.40,3.40,3.43,1.44,1.44,1.44
228.96,-1.95,-3.38,-1.95,-3.38,3.38,3.37,3.47,1.43,1.43,1.43
231.25,-1.94,-3.35,-1.94,-3.35,3.35,3.34,3.51,1.41,1.41,1.41
233.57,-1.92,-3.32,-1.92,-3.32,3.32,3.31,3.55,1.40,1.40,1.40
235.90,-1.91,-3.29,-1.91,-3.29,3.29,3.28,3.59,1.39,1.39,1.38
238.26,-1.89,-3.26,-1.89,-3.26,3.26,3.25,3.62,1.37,1.37,1.37
240.64,-1.88,-3.23,-1.88,-3.23,3.23,3.22,3.65,1.36,1.36,1.36
243.05,-1.86,-3.20,-1.86,-3.20,3.20,3.19,3.67,1.34,1.34,1.34
245.48,-1.85,-3.17,-1.85,-3.17,3.17,3.16,3.69,1.33,1.33,1.33
247.93,-1.83,-3.14,-1.83,-3.14,3.14,3.13,3.70,1.31,1.31,1.31
250.41,-1.81,-3.11,-1.81,-3.11,3.11,3.11,3.70,1.30,1.30,1.30
252.92,-1.80,-3.08,-1.80,-3.08,3.08,3.08,3.71,1.29,1.29,1.29
255.45,-1.78,-3.05,-1.78,-3.05,3.05,3.05,3.70,1.27,1.27,1.27
258.00,-1.77,-3.02,-1.77,-3.02,3.02,3.02,3.70,1.26,1.26,1.26
260.58,-1.75,-2.99,-1.75,-2.99,2.99,2.99,3.69,1.24,1.24,1.24
263.19,-1.74,-2.96,-1.74,-2.96,2.97,2.97,3.67,1.23,1.23,1.23
265.82,-1.72,-2.94,-1.72,-2.94,2.94,2.94,3.65,1.22,1.22,1.21
268.48,-1.71,-2.91,-1.71,-2.91,2.91,2.91,3.62,1.20,1.20,1.20
271.16,-1.70,-2.88,-1.70,-2.88,2.88,2.89,3.60,1.19,1.19,1.19
273.87,-1.68,-2.86,-1.68,-2.86,2.86,2.86,3.56,1.17,1.17,1.17
276.61,-1.67,-2.83,-1.67,-2.83,2.83,2.84,3.53,1.16,1.16,1.16
279.38,-1.66,-2.80,-1.66,-2.80,2.80,2.82,3.49,1.14,1.14,1.14
282.17,-1.65,-2.78,-1.65,-2.78,2.78,2.79,3.45,1.13,1.13,1.13
284.99,-1.64,-2.76,-1.64,-2.76,2.76,2.77,3.41,1.12,1.12,1.12
287.84,-1.63,-2.73,-1.63,-2.73,2.73,2.75,3.37,1.10,1.10,1.10
290.72,-1.62,-2.71,-1.62,-2.71,2.71,2.73,3.32,1.09,1.09,1.09
293.63,-1.61,-2.69,-1.61,-2.69,2.69,2.71,3.28,1.07,1.07,1.07
296.57,-1.61,-2.67,-1.61,-2.67,2.67,2.69,3.23,1.06,1.06,1.06
299.53,-1.60,-2.64,-1.60,-2.64,2.64,2.67,3.18,1.05,1.05,1.05
302.53,-1.59,-2.62,-1.59,-2.62,2.62,2.65,3.14,1.03,1.03,1.03
305.55,-1.59,-2.60,-1.59,-2.60,2.60,2.63,3.09,1.02,1.02,1.02
308.61,-1.58,-2.59,-1.58,-2.59,2.59,2.62,3.04,1.00,1.00,1.00
311.69,-1.58,-2.57,-1.58,-2.57,2.57,2.60,3.00,0.99,0.99,0.99
314.81,-1.58,-2.55,-1.58,-2.55,2.55,2.58,2.95,0.97,0.97,0.97
317.96,-1.58,-2.54,-1.58,-2.54,2.54,2.57,2.91,0.96,0.96,0.96
321.14,-1.57,-2.52,-1.57,-2.52,2.52,2.55,2.87,0.95,0.95,0.95
324.35,-1.57,-2.51,-1.57,-2.51,2.51,2.53,2.83,0.93,0.93,0.93
327.59,-1.57,-2.49,-1.57,-2.49,2.49,2.52,2.79,0.92,0.92,0.92
330.87,-1.57,-2.48,-1.57,-2.48,2.48,2.51,2.75,0.90,0.90,0.90
334.18,-1.58,-2.47,-1.58,-2.47,2.47,2.49,2.72,0.89,0.89,0.89
337.52,-1.58,-2.45,-1.58,-2.45,2.45,2.48,2.68,0.87,0.87,0.88
340.90,-1.58,-2.44,-1.58,-2.44,2.44,2.46,2.65,0.86,0.86,0.86
344.30,-1.58,-2.43,-1.58,-2.43,2.43,2.45,2.62,0.85,0.85,0.85
347.75,-1.59,-2.42,-1.59,-2.42,2.42,2.44,2.59,0.83,0.83,0.83
351.23,-1.59,-2.41,-1.59,-2.41,2.41,2.43,2.57,0.82,0.82,0.82
354.74,-1.59,-2.40,-1.59,-2.40,2.40,2.41,2.54,0.81,0.81,0.80
358.28,-1.60,-2.39,-1.60,-2.39,2.39,2.40,2.52,0.79,0.79,0.79
361.87,-1.61,-2.38,-1.61,-2.38,2.38,2.39,2.50,0.78,0.78,0.78
365.49,-1.61,-2.37,-1.61,-2.37,2.37,2.38,2.48,0.76,0.76,0.76
369.14,-1.62,-2.37,-1.62,-2.37,2.37,2.37,2.47,0.75,0.75,0.75
372.83,-1.63,-2.36,-1.63,-2.36,2.36,2.36,2.46,0.73,0.73,0.73
376.56,-1.63,-2.35,-1.63,-2.35,2.35,2.35,2.44,0.72,0.72,0.72
380.33,-1.64,-2.35,-1.64,-2.35,2.35,2.34,2.43,0.71,0.71,0.71
384.13,-1.65,-2.34,-1.65,-2.34,2.34,2.33,2.42,0.69,0.69,0.69
387.97,-1.66,-2.34,-1.66,-2.34,2.34,2.32,2.42,0.68,0.68,0.68
391.85,-1.67,-2.33,-1.67,-2.33,2.33,2.31,2.41,0.66,0.66,0.66
395.77,-1.68,-2.33,-1.68,-2.33,2.33,2.30,2.41,0.65,0.65,0.65
399.73,-1.69,-2.32,-1.69,-2.32,2.32,2.29,2.41,0.63,0.63,0.63
403.72,-1.69,-2.31,-1.69,-2.31,2.32,2.28,2.41,0.62,0.62,0.62
407.76,-1.70,-2.31,-1.70,-2.31,2.31,2.27,2.41,0.61,0.61,0.61
411.84,-1.71,-2.31,-1.71,-2.31,2.31,2.27,2.41,0.59,0.59,0.59
415.96,-1.72,-2.30,-1.72,-2.30,2.30,2.26,2.41,0.58,0.58,0.58
420.12,-1.73,-2.30,-1.73,-2.30,2.30,2.25,2.41,0.56,0.56,0.56
424.32,-1.74,-2.29,-1.74,-2.29,2.29,2.24,2.41,0.55,0.55,0.55
428.56,-1.75,-2.29,-1.75,-2.29,2.29,2.24,2.42,0.54,0.54,0.54
432.85,-1.76,-2.28,-1.76,-2.28,2.28,2.23,2.42,0.52,0.52,0.52
437.18,-1.77,-2.28,-1.77,-2.28,2.28,2.22,2.42,0.51,0.51,0.51
441.55,-1.78,-2.28,-1.78,-2.28,2.28,2.22,2.43,0.49,0.49,0.49
445.96,-1.79,-2.27,-1.79,-2.27,2.27,2.21,2.43,0.48,0.48,0.48
450.42,-1.80,-2.27,-1.80,-2.27,2.27,2.21,2.43,0.47,0.47,0.47
454.93,-1.81,-2.26,-1.81,-2.26,2.26,2.20,2.43,0.45,0.45,0.45
459.48,-1.82,-2.26,-1.82,-2.26,2.26,2.19,2.43,0.44,0.44,0.44
464.07,-1.83,-2.26,-1.83,-2.26,2.26,2.19,2.43,0.42,0.42,0.42
468.71,-1.84,-2.25,-1.84,-2.25,2.25,2.19,2.43,0.41,0.41,0.41
473.40,-1.85,-2.25,-1.85,-2.25,2.25,2.18,2.42,0.39,0.39,0.39
478.13,-1.86,-2.24,-1.86,-2.24,2.24,2.18,2.42,0.38,0.38,0.38
482.91,-1.87,-2.23,-1.87,-2.23,2.24,2.17,2.41,0.37,0.37,0.37
487.74,-1.88,-2.23,-1.88,-2.23,2.23,2.17,2.40,0.35,0.35,0.35
492.62,-1.88,-2.22,-1.89,-2.22,2.22,2.17,2.38,0.34,0.34,0.34
497.55,-1.89,-2.22,-1.89,-2.22,2.22,2.16,2.37,0.32,0.32,0.32
502.52,-1.90,-2.21,-1.90,-2.21,2.21,2.16,2.35,0.31,0.31,0.31
507.55,-1.91,-2.20,-1.91,-2.20,2.20,2.16,2.33,0.29,0.29,0.30
512.62,-1.92,-2.20,-1.92,-2.20,2.20,2.16,2.31,0.28,0.28,0.28
517.75,-1.92,-2.19,-1.92,-2.19,2.19,2.15,2.28,0.27,0.27,0.27
522.93,-1.93,-2.18,-1.93,-2.18,2.18,2.15,2.26,0.25,0.25,0.25
528.16,-1.93,-2.17,-1.93,-2.17,2.17,2.15,2.23,0.24,0.24,0.24
533.44,-1.94,-2.16,-1.94,-2.16,2.16,2.15,2.20,0.22,0.22,0.22
538.77,-1.94,-2.15,-1.94,-2.15,2.15,2.14,2.16,0.21,0.21,0.21
544.16,-1.95,-2.14,-1.95,-2.14,2.14,2.14,2.13,0.20,0.20,0.20
