frequency,raw,error,smoothed,error_smoothed,equalization,parametric_eq,fixed_band_eq,equalized_raw,equalized_smoothed,target
20.00,6.71,-5.39,6.71,-5.39,5.34,-0.00,1.72,12.05,12.04,12.10
20.20,6.79,-5.33,6.79,-5.33,5.32,-0.00,1.77,12.10,12.11,12.12
20.40,6.85,-5.28,6.86,-5.28,5.30,-0.00,1.82,12.15,12.16,12.13
20.61,6.91,-5.24,6.91,-5.24,5.28,-0.00,1.87,12.19,12.19,12.15
20.81,6.95,-5.21,6.95,-5.21,5.25,-0.00,1.93,12.20,12.20,12.16
21.02,6.97,-5.19,6.97,-5.19,5.23,-0.00,1.99,12.20,12.20,12.16
21.23,6.98,-5.17,6.98,-5.17,5.19,-0.00,2.05,12.17,12.17,12.15
21.44,6.98,-5.16,6.98,-5.16,5.16,-0.01,2.11,12.14,12.14,12.14
21.66,6.97,-5.14,6.97,-5.14,5.14,-0.01,2.17,12.11,12.11,12.11
21.87,6.97,-5.12,6.97,-5.12,5.10,-0.01,2.24,12.08,12.08,12.09
22.09,6.99,-5.08,6.99,-5.08,5.06,-0.01,2.30,12.05,12.05,12.07
22.31,7.02,-5.03,7.02,-5.03,5.01,-0.01,2.37,12.03,12.03,12.05
22.54,7.07,-4.96,7.07,-4.96,4.94,-0.01,2.44,12.01,12.01,12.03
22.76,7.14,-4.88,7.14,-4.88,4.86,-0.01,2.51,12.00,12.00,12.02
22.99,7.22,-4.78,7.22,-4.78,4.78,-0.01,2.59,12.00,12.00,12.00
23.22,7.30,-4.69,7.29,-4.69,4.70,-0.01,2.66,12.00,12.00,11.98
23.45,7.37,-4.61,7.37,-4.61,4.63,-0.01,2.74,11.99,11.99,11.97
23.69,7.43,-4.54,7.43,-4.54,4.56,-0.01,2.82,11.99,11.99,11.96
23.92,7.47,-4.49,7.47,-4.49,4.51,-0.01,2.90,11.98,11.98,11.96
24.16,7.50,-4.46,7.50,-4.46,4.48,-0.01,2.98,11.98,11.97,11.96
24.40,7.51,-4.44,7.51,-4.45,4.46,-0.01,3.06,11.97,11.97,11.96
24.65,7.51,-4.44,7.51,-4.44,4.44,-0.01,3.14,11.96,11.96,11.96
24.89,7.51,-4.45,7.51,-4.44,4.44,-0.01,3.23,11.95,11.95,11.95
25.14,7.51,-4.44,7.51,-4.44,4.43,-0.01,3.31,11.94,11.94,11.95
25.39,7.51,-4.44,7.51,-4.44,4.43,-0.01,3.40,11.93,11.93,11.94
25.65,7.52,-4.42,7.52,-4.42,4.41,-0.01,3.48,11.93,11.93,11.94
25.91,7.54,-4.40,7.54,-4.40,4.39,-0.01,3.57,11.92,11.92,11.93
26.16,7.57,-4.36,7.57,-4.36,4.35,-0.01,3.65,11.92,11.92,11.93
26.43,7.61,-4.31,7.61,-4.31,4.30,-0.01,3.74,11.92,11.92,11.93
26.69,7.67,-4.25,7.67,-4.26,4.25,-0.01,3.82,11.92,11.91,11.92
26.96,7.73,-4.19,7.73,-4.19,4.18,-0.01,3.90,11.91,11.91,11.92
27.23,7.80,-4.11,7.80,-4.11,4.11,-0.01,3.98,11.91,11.91,11.91
27.50,7.86,-4.03,7.86,-4.03,4.03,-0.01,4.06,11.89,11.89,11.89
27.77,7.92,-3.94,7.92,-3.95,3.95,-0.01,4.13,11.87,11.87,11.86
28.05,7.96,-3.87,7.95,-3.87,3.88,-0.01,4.20,11.84,11.84,11.82
28.33,7.98,-3.80,7.98,-3.80,3.81,-0.01,4.27,11.79,11.79,11.77
28.62,7.99,-3.74,7.99,-3.74,3.75,-0.01,4.33,11.73,11.73,11.72
28.90,7.99,-3.69,7.99,-3.69,3.69,-0.01,4.38,11.67,11.67,11.67
29.19,7.98,-3.64,7.98,-3.64,3.63,-0.01,4.43,11.61,11.61,11.62
29.48,7.98,-3.59,7.98,-3.59,3.58,-0.01,4.48,11.56,11.56,11.57
29.78,7.98,-3.54,7.98,-3.54,3.53,-0.01,4.52,11.51,11.52,11.52
30.08,7.98,-3.49,7.99,-3.49,3.49,-0.01,4.54,11.48,11.48,11.48
30.38,7.99,-3.44,7.99,-3.44,3.45,-0.01,4.57,11.44,11.44,11.43
30.68,7.99,-3.40,7.99,-3.40,3.42,-0.01,4.58,11.41,11.41,11.39
30.99,7.99,-3.37,7.99,-3.37,3.38,-0.01,4.59,11.38,11.38,11.36
31.30,7.99,-3.35,7.99,-3.35,3.35,-0.01,4.59,11.34,11.34,11.34
31.61,8.00,-3.33,8.00,-3.32,3.31,-0.01,4.59,11.31,11.31,11.32
31.93,8.01,-3.30,8.01,-3.30,3.28,-0.01,4.57,11.29,11.29,11.31
32.24,8.04,-3.26,8.04,-3.26,3.24,-0.01,4.55,11.28,11.28,11.30
32.57,8.07,-3.21,8.07,-3.21,3.20,-0.01,4.52,11.27,11.27,11.28
32.89,8.11,-3.15,8.11,-3.15,3.16,-0.01,4.48,11.27,11.27,11.26
33.22,8.15,-3.10,8.15,-3.10,3.12,-0.01,4.44,11.27,11.26,11.25
33.55,8.19,-3.05,8.19,-3.05,3.07,-0.01,4.39,11.26,11.26,11.24
33.89,8.23,-3.01,8.23,-3.01,3.02,-0.01,4.33,11.25,11.25,11.24
34.23,8.27,-2.97,8.27,-2.97,2.96,-0.01,4.27,11.23,11.23,11.24
34.57,8.31,-2.92,8.31,-2.92,2.91,-0.01,4.20,11.22,11.22,11.23
34.92,8.35,-2.87,8.35,-2.87,2.85,-0.01,4.13,11.20,11.20,11.23
35.27,8.40,-2.80,8.40,-2.80,2.78,-0.02,4.05,11.18,11.18,11.20
35.62,8.44,-2.73,8.44,-2.73,2.72,-0.02,3.97,11.16,11.16,11.17
35.97,8.47,-2.65,8.47,-2.65,2.66,-0.02,3.89,11.13,11.13,11.12
36.33,8.50,-2.58,8.50,-2.58,2.60,-0.02,3.81,11.10,11.10,11.08
36.70,8.52,-2.52,8.52,-2.52,2.54,-0.02,3.72,11.06,11.06,11.03
37.06,8.53,-2.46,8.53,-2.47,2.49,-0.02,3.63,11.02,11.02,11.00
37.43,8.54,-2.43,8.54,-2.43,2.45,-0.02,3.54,10.98,10.98,10.97
37.81,8.54,-2.41,8.54,-2.41,2.40,-0.02,3.45,10.94,10.94,10.94
38.19,8.54,-2.38,8.54,-2.38,2.36,-0.02,3.36,10.90,10.90,10.92
38.57,8.55,-2.34,8.55,-2.34,2.31,-0.02,3.27,10.85,10.86,10.89
38.95,8.56,-2.28,8.56,-2.28,2.25,-0.02,3.18,10.82,10.82,10.84
39.34,8.59,-2.21,8.59,-2.21,2.20,-0.02,3.09,10.78,10.78,10.79
39.74,8.61,-2.13,8.61,-2.13,2.14,-0.02,3.00,10.75,10.75,10.74
40.14,8.63,-2.05,8.62,-2.06,2.08,-0.02,2.91,10.71,10.70,10.68
40.54,8.63,-1.99,8.63,-2.00,2.02,-0.02,2.82,10.65,10.65,10.62
40.94,8.63,-1.95,8.63,-1.95,1.96,-0.02,2.73,10.59,10.59,10.58
41.35,8.62,-1.91,8.62,-1.91,1.91,-0.02,2.65,10.53,10.53,10.53
41.76,8.62,-1.87,8.62,-1.87,1.86,-0.02,2.56,10.48,10.48,10.49
42.18,8.63,-1.83,8.63,-1.83,1.81,-0.02,2.48,10.44,10.44,10.46
42.60,8.64,-1.78,8.64,-1.78,1.77,-0.02,2.40,10.41,10.41,10.42
43.03,8.66,-1.73,8.66,-1.73,1.72,-0.02,2.32,10.38,10.38,10.39
43.46,8.67,-1.68,8.68,-1.68,1.68,-0.03,2.24,10.35,10.35,10.36
43.90,8.69,-1.63,8.69,-1.63,1.63,-0.03,2.16,10.32,10.33,10.32
44.33,8.71,-1.58,8.71,-1.58,1.59,-0.03,2.09,10.30,10.30,10.29
44.78,8.72,-1.54,8.71,-1.54,1.56,-0.03,2.01,10.27,10.27,10.25
45.23,8.71,-1.51,8.71,-1.51,1.52,-0.03,1.94,10.23,10.23,10.22
45.68,8.69,-1.49,8.69,-1.49,1.49,-0.03,1.87,10.18,10.18,10.18
46.13,8.66,-1.48,8.66,-1.48,1.47,-0.03,1.80,10.13,10.13,10.14
46.60,8.64,-1.47,8.64,-1.46,1.44,-0.03,1.74,10.08,10.08,10.10
47.06,8.62,-1.44,8.62,-1.43,1.42,-0.03,1.67,10.04,10.04,10.06
47.53,8.61,-1.40,8.61,-1.40,1.40,-0.03,1.61,10.01,10.01,10.01
48.01,8.61,-1.36,8.60,-1.36,1.38,-0.03,1.55,9.98,9.98,9.97
48.49,8.59,-1.33,8.59,-1.34,1.35,-0.03,1.49,9.94,9.94,9.92
48.97,8.57,-1.32,8.57,-1.32,1.33,-0.03,1.43,9.89,9.89,9.88
49.46,8.54,-1.30,8.55,-1.30,1.30,-0.03,1.37,9.84,9.84,9.85
49.96,8.53,-1.29,8.53,-1.28,1.27,-0.04,1.31,9.80,9.80,9.81
50.46,8.53,-1.25,8.53,-1.25,1.25,-0.04,1.26,9.77,9.77,9.78
50.96,8.53,-1.22,8.53,-1.22,1.22,-0.04,1.20,9.75,9.75,9.75
51.47,8.54,-1.18,8.54,-1.18,1.19,-0.04,1.15,9.73,9.73,9.73
51.99,8.56,-1.15,8.56,-1.15,1.15,-0.04,1.10,9.71,9.71,9.70
52.51,8.57,-1.11,8.57,-1.11,1.12,-0.04,1.05,9.69,9.69,9.69
53.03,8.59,-1.08,8.60,-1.08,1.08,-0.04,1.00,9.67,9.67,9.67
53.56,8.63,-1.04,8.63,-1.04,1.04,-0.04,0.95,9.66,9.66,9.67
54.10,8.67,-1.00,8.67,-1.00,1.00,-0.04,0.91,9.66,9.66,9.66
54.64,8.70,-0.95,8.70,-0.95,0.96,-0.05,0.86,9.66,9.66,9.65
55.18,8.71,-0.90,8.71,-0.91,0.92,-0.05,0.82,9.64,9.63,9.62
55.74,8.69,-0.87,8.69,-0.87,0.88,-0.05,0.77,9.57,9.56,9.56
56.29,8.65,-0.84,8.65,-0.84,0.83,-0.05,0.73,9.48,9.48,9.48
56.86,8.59,-0.81,8.60,-0.80,0.79,-0.05,0.69,9.38,9.38,9.40
57.42,8.56,-0.76,8.56,-0.76,0.74,-0.05,0.65,9.30,9.30,9.32
58.00,8.54,-0.71,8.54,-0.70,0.69,-0.05,0.61,9.23,9.23,9.25
58.58,8.54,-0.64,8.54,-0.64,0.65,-0.06,0.58,9.19,9.18,9.18
59.16,8.54,-0.58,8.53,-0.58,0.61,-0.06,0.54,9.14,9.14,9.11
59.76,8.53,-0.53,8.52,-0.53,0.56,-0.06,0.50,9.09,9.09,9.06
60.35,8.51,-0.50,8.50,-0.51,0.52,-0.06,0.47,9.03,9.02,9.01
60.96,8.48,-0.49,8.48,-0.49,0.48,-0.06,0.44,8.96,8.96,8.97
61.57,8.46,-0.47,8.46,-0.46,0.44,-0.06,0.40,8.90,8.90,8.93
62.18,8.46,-0.43,8.46,-0.43,0.40,-0.07,0.37,8.86,8.86,8.89
62.80,8.48,-0.38,8.48,-0.38,0.37,-0.07,0.34,8.85,8.85,8.86
63.43,8.50,-0.32,8.50,-0.32,0.34,-0.07,0.31,8.84,8.84,8.83
64.07,8.52,-0.28,8.52,-0.28,0.31,-0.07,0.28,8.83,8.83,8.80
64.71,8.51,-0.25,8.51,-0.26,0.29,-0.07,0.25,8.80,8.79,8.76
65.35,8.48,-0.24,8.48,-0.24,0.26,-0.08,0.22,8.74,8.74,8.72
66.01,8.43,-0.24,8.44,-0.24,0.23,-0.08,0.20,8.67,8.67,8.68
66.67,8.39,-0.23,8.39,-0.23,0.20,-0.08,0.17,8.59,8.59,8.62
67.33,8.36,-0.21,8.36,-0.21,0.17,-0.08,0.14,8.53,8.53,8.57
68.01,8.34,-0.17,8.35,-0.16,0.13,-0.09,0.12,8.47,8.48,8.51
68.69,8.36,-0.10,8.36,-0.10,0.09,-0.09,0.09,8.45,8.45,8.46
69.37,8.38,-0.04,8.38,-0.04,0.05,-0.09,0.07,8.43,8.43,8.42
70.07,8.40,0.03,8.39,0.02,0.02,-0.10,0.05,8.42,8.41,8.37
70.77,8.39,0.06,8.39,0.06,-0.00,-0.10,0.02,8.39,8.39,8.33
71.48,8.36,0.07,8.36,0.07,-0.02,-0.10,-0.00,8.34,8.34,8.29
72.19,8.31,0.06,8.30,0.05,-0.03,-0.10,-0.03,8.28,8.27,8.25
72.91,8.24,0.03,8.24,0.03,-0.05,-0.11,-0.05,8.20,8.20,8.22
73.64,8.19,0.01,8.19,0.02,-0.07,-0.11,-0.07,8.12,8.12,8.17
74.38,8.16,0.03,8.17,0.04,-0.10,-0.12,-0.09,8.06,8.06,8.13
75.12,8.17,0.09,8.18,0.09,-0.15,-0.12,-0.12,8.02,8.03,8.09
75.87,8.23,0.19,8.23,0.19,-0.22,-0.12,-0.14,8.01,8.01,8.04
76.63,8.29,0.30,8.29,0.30,-0.30,-0.13,-0.16,8.00,8.00,8.00
77.40,8.37,0.42,8.36,0.41,-0.38,-0.13,-0.19,7.99,7.98,7.95
78.17,8.40,0.50,8.40,0.50,-0.45,-0.14,-0.21,7.95,7.96,7.91
78.95,8.42,0.56,8.42,0.56,-0.51,-0.14,-0.23,7.92,7.91,7.86
79.74,8.40,0.58,8.40,0.58,-0.54,-0.15,-0.26,7.86,7.85,7.82
80.54,8.35,0.58,8.35,0.58,-0.56,-0.15,-0.28,7.79,7.79,7.77
81.35,8.28,0.56,8.28,0.56,-0.56,-0.16,-0.31,7.72,7.72,7.73
82.16,8.21,0.53,8.21,0.53,-0.55,-0.16,-0.33,7.66,7.66,7.68
82.98,8.14,0.51,8.14,0.51,-0.53,-0.17,-0.36,7.61,7.61,7.63
83.81,8.08,0.49,8.08,0.50,-0.52,-0.17,-0.38,7.56,7.56,7.59
84.65,8.03,0.49,8.03,0.49,-0.51,-0.18,-0.41,7.52,7.52,7.54
85.50,8.00,0.50,8.00,0.50,-0.51,-0.19,-0.44,7.49,7.49,7.50
86.35,7.97,0.51,7.97,0.51,-0.51,-0.19,-0.46,7.46,7.46,7.46
87.22,7.94,0.52,7.94,0.52,-0.52,-0.20,-0.49,7.42,7.42,7.42
88.09,7.91,0.54,7.91,0.54,-0.53,-0.21,-0.52,7.38,7.38,7.37
88.97,7.88,0.55,7.88,0.55,-0.54,-0.22,-0.55,7.34,7.34,7.33
89.86,7.84,0.56,7.84,0.56,-0.55,-0.22,-0.58,7.29,7.29,7.28
90.76,7.80,0.56,7.79,0.56,-0.56,-0.23,-0.61,7.24,7.24,7.24
91.66,7.75,0.56,7.75,0.56,-0.56,-0.24,-0.64,7.19,7.19,7.19
92.58,7.70,0.56,7.70,0.56,-0.56,-0.25,-0.67,7.14,7.14,7.14
93.51,7.66,0.56,7.66,0.56,-0.56,-0.26,-0.70,7.10,7.10,7.10
94.44,7.63,0.56,7.63,0.56,-0.55,-0.27,-0.73,7.08,7.08,7.07
95.39,7.60,0.56,7.60,0.56,-0.55,-0.28,-0.76,7.05,7.05,7.04
96.34,7.59,0.56,7.59,0.56,-0.55,-0.29,-0.79,7.04,7.04,7.03
97.30,7.59,0.56,7.59,0.56,-0.56,-0.30,-0.82,7.02,7.02,7.03
98.28,7.59,0.57,7.59,0.57,-0.59,-0.31,-0.86,7.01,7.01,7.03
99.26,7.60,0.59,7.60,0.59,-0.62,-0.33,-0.89,6.98,6.98,7.01
100.25,7.60,0.64,7.60,0.64,-0.66,-0.34,-0.92,6.94,6.94,6.96
101.25,7.60,0.70,7.60,0.70,-0.71,-0.35,-0.96,6.89,6.89,6.89
102.27,7.60,0.77,7.60,0.77,-0.77,-0.37,-0.99,6.82,6.82,6.82
103.29,7.60,0.85,7.60,0.85,-0.84,-0.38,-1.02,6.76,6.76,6.75
104.32,7.60,0.91,7.60,0.91,-0.91,-0.40,-1.05,6.70,6.70,6.69
105.37,7.60,0.97,7.60,0.97,-0.97,-0.41,-1.09,6.64,6.64,6.63
106.42,7.60,1.03,7.60,1.03,-1.02,-0.43,-1.12,6.58,6.58,6.57
107.48,7.58,1.07,7.58,1.06,-1.05,-0.44,-1.15,6.53,6.53,6.52
108.56,7.56,1.09,7.56,1.09,-1.07,-0.46,-1.18,6.49,6.49,6.47
109.64,7.52,1.09,7.53,1.09,-1.07,-0.48,-1.21,6.45,6.45,6.43
110.74,7.48,1.08,7.48,1.08,-1.06,-0.50,-1.23,6.42,6.42,6.40
111.85,7.41,1.05,7.41,1.05,-1.04,-0.52,-1.26,6.38,6.38,6.36
112.97,7.33,1.01,7.33,1.01,-1.00,-0.54,-1.29,6.33,6.33,6.33
114.10,7.25,0.96,7.25,0.96,-0.97,-0.56,-1.31,6.28,6.28,6.29
115.24,7.18,0.92,7.18,0.92,-0.94,-0.58,-1.33,6.24,6.24,6.26
116.39,7.12,0.90,7.12,0.89,-0.92,-0.60,-1.35,6.20,6.20,6.22
117.55,7.07,0.88,7.07,0.89,-0.90,-0.62,-1.37,6.16,6.17,6.19
118.73,7.04,0.89,7.04,0.89,-0.90,-0.64,-1.38,6.14,6.14,6.15
119.92,7.03,0.91,7.03,0.91,-0.92,-0.67,-1.40,6.11,6.11,6.12
121.12,7.02,0.94,7.02,0.94,-0.94,-0.69,-1.41,6.07,6.07,6.08
122.33,7.02,0.97,7.02,0.97,-0.98,-0.71,-1.41,6.04,6.04,6.04
123.55,7.02,1.02,7.02,1.02,-1.02,-0.74,-1.42,6.00,6.00,6.01
124.79,7.03,1.06,7.04,1.06,-1.06,-0.76,-1.42,5.97,5.97,5.97
126.03,7.05,1.11,7.05,1.11,-1.10,-0.78,-1.42,5.95,5.95,5.94
127.29,7.06,1.15,7.05,1.15,-1.13,-0.80,-1.42,5.93,5.92,5.90
128.57,7.04,1.17,7.04,1.17,-1.15,-0.83,-1.42,5.89,5.89,5.87
129.85,7.00,1.17,7.01,1.18,-1.16,-0.85,-1.41,5.84,5.85,5.83
131.15,6.96,1.17,6.96,1.17,-1.16,-0.87,-1.40,5.80,5.80,5.79
132.46,6.89,1.15,6.89,1.15,-1.14,-0.89,-1.38,5.75,5.75,5.74
133.79,6.82,1.12,6.82,1.12,-1.12,-0.91,-1.37,5.69,5.70,5.70
135.12,6.74,1.09,6.74,1.09,-1.10,-0.93,-1.35,5.64,5.64,5.65
136.48,6.67,1.06,6.67,1.06,-1.07,-0.94,-1.33,5.60,5.60,5.61
137.84,6.61,1.03,6.61,1.03,-1.04,-0.96,-1.31,5.57,5.57,5.58
139.22,6.56,1.01,6.56,1.01,-1.02,-0.97,-1.29,5.54,5.54,5.54
140.61,6.52,1.00,6.52,1.00,-1.00,-0.98,-1.26,5.52,5.52,5.52
142.02,6.48,0.99,6.48,0.99,-0.99,-0.99,-1.24,5.49,5.49,5.49
143.44,6.44,0.98,6.44,0.98,-0.99,-1.00,-1.21,5.46,5.46,5.46
144.87,6.41,0.97,6.41,0.98,-0.99,-1.00,-1.18,5.42,5.42,5.43
146.32,6.38,0.98,6.38,0.98,-0.99,-1.01,-1.16,5.39,5.39,5.40
147.78,6.35,0.99,6.35,0.99,-1.00,-1.01,-1.13,5.35,5.36,5.36
149.26,6.33,1.01,6.33,1.01,-1.00,-1.01,-1.10,5.33,5.33,5.32
150.75,6.30,1.02,6.30,1.02,-1.01,-1.00,-1.07,5.30,5.29,5.28
152.26,6.27,1.03,6.27,1.02,-1.01,-1.00,-1.03,5.26,5.26,5.25
153.78,6.23,1.02,6.23,1.02,-1.01,-0.99,-1.00,5.22,5.22,5.21
155.32,6.19,1.01,6.19,1.01,-1.01,-0.99,-0.97,5.18,5.18,5.18
156.88,6.14,1.00,6.14,1.00,-1.01,-0.98,-0.94,5.13,5.13,5.14
158.44,6.10,1.00,6.10,1.00,-1.01,-0.97,-0.91,5.09,5.09,5.10
160.03,6.06,0.99,6.06,0.99,-1.00,-0.96,-0.88,5.06,5.06,5.07
161.63,6.03,1.00,6.03,1.00,-1.00,-0.94,-0.85,5.04,5.04,5.04
163.24,6.00,1.00,6.01,1.00,-0.99,-0.93,-0.82,5.01,5.01,5.01
164.88,5.98,1.00,5.98,1.00,-0.99,-0.92,-0.79,4.99,4.98,4.98
166.53,5.94,0.99,5.94,0.99,-0.99,-0.90,-0.76,4.95,4.95,4.95
168.19,5.90,0.99,5.90,0.99,-0.99,-0.89,-0.73,4.90,4.90,4.91
169.87,5.85,0.99,5.85,0.99,-0.99,-0.87,-0.70,4.85,4.85,4.86
171.57,5.80,0.98,5.80,0.98,-0.99,-0.85,-0.67,4.80,4.81,4.81
173.29,5.75,0.98,5.75,0.98,-0.99,-0.84,-0.65,4.76,4.76,4.77
175.02,5.71,0.98,5.71,0.98,-0.98,-0.82,-0.62,4.73,4.73,4.73
176.77,5.68,0.98,5.68,0.98,-0.97,-0.80,-0.59,4.71,4.71,4.70
178.54,5.64,0.96,5.64,0.96,-0.95,-0.78,-0.57,4.69,4.69,4.68
180.32,5.60,0.93,5.60,0.93,-0.92,-0.76,-0.54,4.68,4.68,4.66
182.13,5.55,0.89,5.55,0.89,-0.88,-0.73,-0.52,4.66,4.67,4.66
183.95,5.50,0.85,5.50,0.85,-0.85,-0.70,-0.49,4.65,4.65,4.65
185.79,5.45,0.80,5.45,0.80,-0.81,-0.67,-0.47,4.64,4.64,4.65
187.65,5.40,0.76,5.40,0.76,-0.77,-0.64,-0.44,4.63,4.63,4.64
189.52,5.35,0.72,5.35,0.72,-0.74,-0.61,-0.42,4.62,4.62,4.64
191.42,5.31,0.69,5.31,0.69,-0.71,-0.58,-0.40,4.60,4.60,4.62
193.33,5.26,0.67,5.26,0.67,-0.68,-0.54,-0.38,4.58,4.58,4.60
195.27,5.22,0.66,5.22,0.66,-0.66,-0.51,-0.35,4.56,4.56,4.56
197.22,5.17,0.65,5.17,0.65,-0.64,-0.47,-0.33,4.54,4.54,4.52
199.19,5.13,0.64,5.13,0.63,-0.61,-0.43,-0.31,4.52,4.52,4.49
201.18,5.07,0.60,5.07,0.60,-0.58,-0.39,-0.29,4.50,4.50,4.47
203.19,5.02,0.56,5.02,0.55,-0.54,-0.36,-0.27,4.48,4.48,4.47
205.23,4.97,0.50,4.97,0.50,-0.50,-0.32,-0.25,4.47,4.47,4.47
207.28,4.92,0.45,4.92,0.45,-0.46,-0.28,-0.23,4.46,4.46,4.48
209.35,4.87,0.40,4.87,0.40,-0.42,-0.25,-0.21,4.45,4.45,4.47
211.44,4.82,0.37,4.82,0.37,-0.38,-0.21,-0.20,4.44,4.44,4.46
213.56,4.77,0.34,4.77,0.34,-0.34,-0.18,-0.18,4.43,4.43,4.44
215.69,4.72,0.31,4.72,0.31,-0.31,-0.15,-0.16,4.41,4.41,4.41
217.85,4.67,0.29,4.67,0.29,-0.28,-0.11,-0.14,4.39,4.39,4.39
220.03,4.62,0.26,4.62,0.26,-0.26,-0.08,-0.12,4.37,4.37,4.36
222.23,4.57,0.23,4.57,0.23,-0.23,-0.05,-0.10,4.34,4.34,4.34
224.45,4.51,0.20,4.51,0.20,-0.20,-0.02,-0.08,4.31,4.31,4.31
226.70,4.46,0.17,4.46,0.17,-0.17,0.01,-0.07,4.29,4.29,4.29
228.96,4.40,0.14,4.40,0.14,-0.14,0.04,-0.05,4.26,4.26,4.26
231.25,4.35,0.11,4.35,0.11,-0.11,0.06,-0.03,4.24,4.24,4.24
233.57,4.29,0.07,4.29,0.07,-0.07,0.09,-0.01,4.22,4.22,4.22
235.90,4.24,0.04,4.24,0.04,-0.04,0.12,0.01,4.20,4.20,4.20
238.26,4.18,0.00,4.18,0.01,-0.00,0.14,0.03,4.18,4.18,4.18
240.64,4.13,-0.03,4.13,-0.03,0.03,0.17,0.04,4.16,4.16,4.16
243.05,4.07,-0.07,4.07,-0.07,0.07,0.19,0.06,4.14,4.14,4.14
245.48,4.01,-0.11,4.01,-0.11,0.11,0.22,0.08,4.12,4.12,4.12
247.93,3.95,-0.15,3.95,-0.15,0.15,0.24,0.10,4.09,4.09,4.10
250.41,3.89,-0.19,3.89,-0.19,0.19,0.26,0.12,4.07,4.07,4.08
252.92,3.83,-0.23,3.83,-0.23,0.23,0.29,0.14,4.05,4.05,4.05
255.45,3.76,-0.27,3.76,-0.27,0.27,0.31,0.16,4.03,4.03,4.03
258.00,3.70,-0.30,3.70,-0.30,0.31,0.33,0.18,4.01,4.01,4.01
260.58,3.64,-0.35,3.64,-0.35,0.35,0.36,0.20,3.99,3.99,3.99
263.19,3.58,-0.39,3.58,-0.39,0.40,0.38,0.22,3.97,3.97,3.97
265.82,3.51,-0.44,3.51,-0.44,0.44,0.40,0.25,3.95,3.95,3.95
268.48,3.45,-0.48,3.45,-0.48,0.49,0.42,0.27,3.93,3.93,3.93
271.16,3.38,-0.53,3.38,-0.53,0.53,0.44,0.29,3.91,3.91,3.91
273.87,3.32,-0.57,3.32,-0.57,0.57,0.47,0.31,3.89,3.89,3.89
276.61,3.26,-0.61,3.26,-0.61,0.60,0.49,0.34,3.86,3.86,3.87
279.38,3.21,-0.64,3.21,-0.64,0.63,0.51,0.36,3.84,3.84,3.85
282.17,3.17,-0.66,3.17,-0.66,0.65,0.53,0.39,3.82,3.82,3.83
284.99,3.14,-0.67,3.14,-0.67,0.66,0.55,0.41,3.80,3.80,3.81
287.84,3.12,-0.67,3.12,-0.67,0.67,0.58,0.44,3.78,3.78,3.79
290.72,3.10,-0.67,3.10,-0.67,0.66,0.60,0.46,3.77,3.77,3.77
293.63,3.09,-0.66,3.09,-0.66,0.66,0.62,0.49,3.75,3.75,3.74
296.57,3.07,-0.65,3.07,-0.65,0.66,0.64,0.51,3.73,3.73,3.72
299.53,3.05,-0.64,3.05,-0.64,0.65,0.67,0.54,3.70,3.70,3.69
302.53,3.02,-0.64,3.02,-0.64,0.65,0.69,0.57,3.67,3.67,3.66
305.55,2.98,-0.65,2.98,-0.65,0.65,0.71,0.60,3.63,3.63,3.62
308.61,2.93,-0.66,2.93,-0.66,0.66,0.74,0.63,3.59,3.59,3.59
311.69,2.88,-0.67,2.88,-0.67,0.66,0.76,0.66,3.55,3.55,3.55
314.81,2.83,-0.68,2.83,-0.68,0.67,0.78,0.69,3.50,3.50,3.51
317.96,2.78,-0.68,2.78,-0.68,0.68,0.81,0.72,3.46,3.46,3.46
321.14,2.72,-0.69,2.72,-0.69,0.69,0.83,0.75,3.41,3.41,3.41
324.35,2.67,-0.70,2.67,-0.70,0.69,0.86,0.78,3.36,3.36,3.37
327.59,2.61,-0.70,2.61,-0.70,0.70,0.88,0.81,3.32,3.32,3.32
330.87,2.56,-0.71,2.56,-0.71,0.71,0.91,0.85,3.27,3.27,3.27
334.18,2.50,-0.72,2.50,-0.72,0.73,0.93,0.88,3.23,3.23,3.23
337.52,2.45,-0.74,2.45,-0.74,0.75,0.96,0.92,3.19,3.19,3.19
340.90,2.39,-0.76,2.39,-0.76,0.77,0.98,0.95,3.16,3.16,3.16
344.30,2.34,-0.79,2.34,-0.79,0.80,1.01,0.99,3.14,3.14,3.13
347.75,2.28,-0.83,2.28,-0.83,0.83,1.04,1.03,3.12,3.12,3.11
351.23,2.23,-0.87,2.23,-0.87,0.87,1.06,1.07,3.10,3.10,3.10
354.74,2.18,-0.92,2.18,-0.92,0.92,1.09,1.10,3.09,3.09,3.09
358.28,2.12,-0.97,2.12,-0.97,0.97,1.12,1.14,3.09,3.09,3.09
361.87,2.07,-1.02,2.07,-1.02,1.02,1.15,1.19,3.09,3.09,3.09
365.49,2.01,-1.08,2.01,-1.08,1.08,1.18,1.23,3.09,3.09,3.09
369.14,1.96,-1.13,1.96,-1.13,1.13,1.21,1.27,3.09,3.09,3.09
372.83,1.90,-1.19,1.90,-1.19,1.19,1.24,1.31,3.09,3.09,3.09
376.56,1.85,-1.25,1.85,-1.25,1.24,1.27,1.36,3.09,3.09,3.09
380.33,1.80,-1.30,1.80,-1.30,1.30,1.30,1.40,3.09,3.09,3.10
384.13,1.74,-1.35,1.74,-1.35,1.35,1.33,1.45,3.09,3.09,3.10
387.97,1.69,-1.40,1.69,-1.40,1.40,1.37,1.49,3.09,3.09,3.09
391.85,1.64,-1.45,1.64,-1.45,1.45,1.40,1.54,3.09,3.09,3.09
395.77,1.59,-1.50,1.59,-1.50,1.50,1.43,1.59,3.09,3.09,3.09
399.73,1.54,-1.54,1.54,-1.54,1.54,1.47,1.63,3.08,3.08,3.08
403.72,1.48,-1.59,1.48,-1.59,1.59,1.50,1.68,3.07,3.07,3.07
407.76,1.43,-1.63,1.43,-1.63,1.63,1.54,1.73,3.06,3.06,3.06
411.84,1.38,-1.67,1.38,-1.67,1.67,1.57,1.78,3.06,3.06,3.06
415.96,1.33,-1.71,1.33,-1.71,1.71,1.61,1.83,3.05,3.05,3.05
420.12,1.28,-1.76,1.28,-1.76,1.76,1.65,1.88,3.04,3.04,3.04
424.32,1.23,-1.80,1.23,-1.80,1.80,1.68,1.93,3.03,3.03,3.03
428.56,1.18,-1.84,1.18,-1.84,1.84,1.72,1.97,3.02,3.02,3.02
432.85,1.14,-1.88,1.14,-1.88,1.88,1.76,2.02,3.01,3.01,3.01
437.18,1.09,-1.91,1.09,-1.91,1.91,1.80,2.07,3.00,3.00,3.00
441.55,1.04,-1.95,1.04,-1.95,1.95,1.84,2.12,2.99,2.99,2.99
445.96,0.99,-1.99,0.99,-1.99,1.99,1.88,2.16,2.98,2.98,2.98
450.42,0.94,-2.03,0.94,-2.03,2.03,1.92,2.21,2.97,2.97,2.97
454.93,0.89,-2.07,0.89,-2.07,2.07,1.96,2.25,2.96,2.96,2.96
459.48,0.84,-2.11,0.84,-2.11,2.11,2.00,2.29,2.95,2.95,2.95
464.07,0.79,-2.14,0.79,-2.14,2.14,2.05,2.33,2.94,2.94,2.94
468.71,0.75,-2.18,0.75,-2.18,2.18,2.09,2.37,2.93,2.93,2.93
473.40,0.70,-2.21,0.70,-2.21,2.21,2.13,2.40,2.92,2.92,2.92
478.13,0.66,-2.25,0.66,-2.25,2.25,2.17,2.44,2.91,2.91,2.91
482.91,0.61,-2.28,0.61,-2.28,2.28,2.22,2.47,2.90,2.90,2.90
487.74,0.57,-2.32,0.57,-2.32,2.32,2.26,2.50,2.89,2.89,2.89
492.62,0.52,-2.35,0.52,-2.35,2.35,2.30,2.52,2.87,2.87,2.87
497.55,0.48,-2.39,0.48,-2.39,2.39,2.34,2.55,2.86,2.86,2.86
502.52,0.43,-2.42,0.43,-2.42,2.42,2.38,2.57,2.85,2.85,2.85
507.55,0.39,-2.45,0.39,-2.45,2.45,2.43,2.59,2.84,2.84,2.84
512.62,0.35,-2.48,0.35,-2.48,2.48,2.47,2.61,2.83,2.83,2.83
517.75,0.31,-2.52,0.31,-2.52,2.52,2.51,2.62,2.82,2.82,2.82
522.93,0.26,-2.55,0.26,-2.55,2.55,2.55,2.64,2.81,2.81,2.81
528.16,0.22,-2.58,0.22,-2.58,2.58,2.59,2.65,2.80,2.80,2.80
533.44,0.18,-2.61,0.18,-2.61,2.61,2.63,2.66,2.79,2.79,2.79
