frequency,raw,error,smoothed,error_smoothed,equalization,parametric_eq,fixed_band_eq,equalized_raw,equalized_smoothed,target
20.00,11.65,3.57,11.68,3.60,-3.58,-2.84,-1.56,8.08,8.11,8.08
20.20,11.51,3.43,11.49,3.41,-3.35,-2.91,-1.61,8.16,8.14,8.08
20.40,11.34,3.25,11.30,3.22,-3.17,-2.97,-1.65,8.17,8.14,8.09
20.61,11.13,3.04,11.13,3.04,-3.01,-3.00,-1.70,8.12,8.12,8.09
20.81,10.93,2.84,10.93,2.84,-2.89,-3.03,-1.75,8.04,8.04,8.09
21.02,10.78,2.68,10.78,2.68,-2.81,-3.02,-1.80,7.97,7.97,8.10
21.23,10.69,2.59,10.71,2.61,-2.76,-3.01,-1.85,7.93,7.95,8.10
21.44,10.72,2.62,10.73,2.63,-2.74,-2.98,-1.90,7.98,7.99,8.10
21.66,10.85,2.74,10.84,2.73,-2.81,-2.96,-1.96,8.04,8.03,8.11
21.87,11.00,2.88,11.00,2.89,-2.90,-2.93,-2.01,8.10,8.10,8.11
22.09,11.18,3.06,11.18,3.06,-3.02,-2.91,-2.07,8.16,8.16,8.12
22.31,11.34,3.22,11.34,3.21,-3.13,-2.89,-2.13,8.22,8.21,8.12
22.54,11.46,3.33,11.45,3.33,-3.21,-2.88,-2.19,8.24,8.24,8.13
22.76,11.51,3.38,11.50,3.37,-3.26,-2.87,-2.25,8.24,8.24,8.13
22.99,11.49,3.36,11.48,3.35,-3.28,-2.87,-2.32,8.22,8.21,8.13
23.22,11.42,3.28,11.42,3.28,-3.26,-2.88,-2.38,8.16,8.16,8.14
23.45,11.33,3.19,11.34,3.20,-3.23,-2.88,-2.45,8.10,8.11,8.14
23.69,11.26,3.12,11.26,3.12,-3.20,-2.89,-2.52,8.06,8.06,8.14
23.92,11.22,3.07,11.22,3.08,-3.18,-2.91,-2.59,8.04,8.05,8.14
24.16,11.23,3.09,11.24,3.09,-3.18,-2.93,-2.66,8.05,8.06,8.14
24.40,11.29,3.15,11.30,3.15,-3.19,-2.95,-2.73,8.10,8.10,8.15
24.65,11.38,3.24,11.38,3.23,-3.23,-2.97,-2.80,8.16,8.15,8.15
24.89,11.47,3.32,11.46,3.32,-3.26,-2.99,-2.87,8.21,8.20,8.15
25.14,11.52,3.38,11.52,3.38,-3.30,-3.02,-2.95,8.23,8.23,8.15
25.39,11.56,3.41,11.54,3.40,-3.32,-3.05,-3.02,8.23,8.22,8.15
25.65,11.53,3.38,11.53,3.38,-3.34,-3.08,-3.10,8.19,8.19,8.14
25.91,11.49,3.35,11.49,3.34,-3.35,-3.11,-3.18,8.14,8.14,8.14
26.16,11.44,3.30,11.45,3.31,-3.36,-3.15,-3.25,8.09,8.09,8.14
26.43,11.43,3.29,11.44,3.30,-3.38,-3.18,-3.33,8.06,8.07,8.14
26.69,11.47,3.33,11.47,3.33,-3.40,-3.21,-3.40,8.07,8.07,8.14
26.96,11.53,3.40,11.54,3.40,-3.44,-3.25,-3.48,8.09,8.10,8.14
27.23,11.63,3.49,11.63,3.49,-3.48,-3.28,-3.55,8.14,8.14,8.13
27.50,11.71,3.58,11.71,3.58,-3.53,-3.32,-3.63,8.19,8.18,8.13
27.77,11.77,3.64,11.77,3.64,-3.56,-3.36,-3.70,8.21,8.20,8.13
28.05,11.80,3.67,11.79,3.66,-3.59,-3.40,-3.77,8.21,8.20,8.13
28.33,11.77,3.65,11.77,3.65,-3.61,-3.44,-3.83,8.17,8.17,8.13
28.62,11.75,3.62,11.75,3.62,-3.62,-3.47,-3.90,8.13,8.13,8.12
28.90,11.71,3.59,11.72,3.60,-3.64,-3.51,-3.96,8.08,8.08,8.12
29.19,11.72,3.60,11.72,3.60,-3.67,-3.55,-4.02,8.05,8.05,8.12
29.48,11.75,3.63,11.76,3.65,-3.72,-3.59,-4.07,8.02,8.04,8.12
29.78,11.85,3.74,11.85,3.74,-3.80,-3.64,-4.12,8.05,8.05,8.11
30.08,11.97,3.86,11.98,3.87,-3.91,-3.68,-4.17,8.07,8.07,8.11
30.38,12.13,4.02,12.13,4.02,-4.02,-3.72,-4.21,8.10,8.11,8.11
30.68,12.28,4.18,12.28,4.17,-4.14,-3.76,-4.25,8.14,8.13,8.10
30.99,12.41,4.31,12.41,4.30,-4.25,-3.80,-4.29,8.16,8.15,8.10
31.30,12.50,4.40,12.50,4.40,-4.34,-3.84,-4.31,8.16,8.16,8.10
31.61,12.54,4.45,12.54,4.44,-4.39,-3.88,-4.34,8.16,8.15,8.10
31.93,12.55,4.45,12.54,4.45,-4.41,-3.93,-4.36,8.14,8.14,8.09
32.24,12.51,4.42,12.51,4.42,-4.40,-3.97,-4.38,8.11,8.11,8.09
32.57,12.45,4.36,12.45,4.36,-4.36,-4.01,-4.39,8.09,8.08,8.09
32.89,12.38,4.29,12.38,4.30,-4.32,-4.06,-4.40,8.06,8.06,8.09
33.22,12.32,4.24,12.32,4.24,-4.28,-4.10,-4.41,8.04,8.04,8.08
33.55,12.27,4.19,12.28,4.20,-4.24,-4.14,-4.41,8.04,8.04,8.08
33.89,12.26,4.18,12.26,4.18,-4.21,-4.18,-4.41,8.05,8.05,8.08
34.23,12.26,4.18,12.26,4.18,-4.19,-4.23,-4.41,8.06,8.06,8.07
34.57,12.27,4.20,12.27,4.20,-4.19,-4.27,-4.40,8.08,8.08,8.07
34.92,12.28,4.22,12.28,4.21,-4.19,-4.31,-4.39,8.09,8.09,8.07
35.27,12.29,4.23,12.29,4.23,-4.21,-4.35,-4.38,8.09,8.08,8.06
35.62,12.30,4.24,12.30,4.24,-4.23,-4.40,-4.37,8.07,8.07,8.06
35.97,12.30,4.25,12.31,4.25,-4.26,-4.44,-4.36,8.04,8.04,8.05
36.33,12.32,4.27,12.32,4.27,-4.31,-4.48,-4.35,8.02,8.02,8.05
36.70,12.36,4.31,12.36,4.32,-4.35,-4.52,-4.34,8.01,8.01,8.04
37.06,12.41,4.37,12.41,4.37,-4.39,-4.56,-4.33,8.02,8.02,8.04
37.43,12.48,4.45,12.48,4.44,-4.44,-4.61,-4.32,8.04,8.04,8.03
37.81,12.53,4.51,12.54,4.51,-4.47,-4.65,-4.31,8.06,8.06,8.03
38.19,12.58,4.56,12.57,4.55,-4.50,-4.69,-4.30,8.08,8.07,8.02
38.57,12.58,4.57,12.58,4.57,-4.52,-4.73,-4.30,8.06,8.05,8.01
38.95,12.56,4.55,12.56,4.55,-4.54,-4.77,-4.29,8.02,8.02,8.01
39.34,12.53,4.53,12.53,4.53,-4.54,-4.81,-4.29,7.98,7.99,8.00
39.74,12.50,4.51,12.51,4.52,-4.55,-4.85,-4.29,7.96,7.96,7.99
40.14,12.50,4.52,12.50,4.52,-4.55,-4.89,-4.29,7.95,7.95,7.98
40.54,12.51,4.54,12.51,4.54,-4.56,-4.92,-4.30,7.95,7.95,7.97
40.94,12.53,4.57,12.53,4.57,-4.58,-4.96,-4.31,7.95,7.95,7.96
41.35,12.56,4.61,12.56,4.61,-4.61,-5.00,-4.32,7.95,7.95,7.96
41.76,12.59,4.65,12.59,4.65,-4.65,-5.03,-4.33,7.94,7.94,7.95
42.18,12.63,4.69,12.63,4.69,-4.69,-5.07,-4.35,7.94,7.94,7.94
42.60,12.67,4.74,12.67,4.74,-4.72,-5.11,-4.37,7.95,7.95,7.93
43.03,12.70,4.78,12.70,4.78,-4.75,-5.14,-4.40,7.95,7.95,7.92
43.46,12.71,4.80,12.71,4.80,-4.77,-5.17,-4.42,7.94,7.94,7.91
43.90,12.71,4.81,12.70,4.80,-4.79,-5.20,-4.45,7.91,7.91,7.90
44.33,12.69,4.80,12.69,4.80,-4.81,-5.24,-4.49,7.87,7.88,7.89
44.78,12.68,4.80,12.69,4.81,-4.84,-5.27,-4.53,7.84,7.85,7.88
45.23,12.70,4.83,12.70,4.83,-4.87,-5.30,-4.57,7.83,7.83,7.87
45.68,12.74,4.88,12.74,4.88,-4.91,-5.32,-4.61,7.83,7.83,7.86
46.13,12.79,4.94,12.79,4.94,-4.95,-5.35,-4.66,7.85,7.85,7.86
46.60,12.85,5.00,12.85,5.00,-4.98,-5.38,-4.71,7.86,7.86,7.85
47.06,12.89,5.05,12.89,5.05,-5.02,-5.40,-4.76,7.87,7.87,7.84
47.53,12.91,5.08,12.91,5.08,-5.04,-5.43,-4.82,7.87,7.87,7.83
48.01,12.91,5.09,12.91,5.09,-5.05,-5.45,-4.88,7.86,7.85,7.82
48.49,12.89,5.08,12.89,5.07,-5.05,-5.47,-4.95,7.84,7.84,7.81
48.97,12.85,5.05,12.85,5.05,-5.04,-5.49,-5.01,7.81,7.81,7.81
49.46,12.81,5.01,12.81,5.01,-5.02,-5.50,-5.08,7.79,7.79,7.80
49.96,12.77,4.98,12.77,4.98,-5.00,-5.52,-5.15,7.77,7.77,7.79
50.46,12.74,4.96,12.74,4.96,-4.98,-5.54,-5.22,7.76,7.76,7.78
50.96,12.73,4.96,12.73,4.96,-4.98,-5.55,-5.29,7.74,7.74,7.77
51.47,12.73,4.97,12.73,4.97,-5.00,-5.56,-5.37,7.73,7.73,7.76
51.99,12.75,5.01,12.75,5.01,-5.03,-5.57,-5.44,7.72,7.72,7.74
52.51,12.80,5.07,12.80,5.06,-5.08,-5.58,-5.52,7.72,7.72,7.73
53.03,12.85,5.13,12.86,5.13,-5.14,-5.58,-5.60,7.71,7.71,7.72
53.56,12.92,5.21,12.92,5.21,-5.21,-5.58,-5.67,7.71,7.71,7.71
54.10,12.98,5.29,12.98,5.29,-5.28,-5.59,-5.74,7.70,7.70,7.69
54.64,13.04,5.36,13.04,5.36,-5.34,-5.58,-5.81,7.70,7.70,7.68
55.18,13.09,5.43,13.08,5.42,-5.40,-5.58,-5.88,7.69,7.69,7.66
55.74,13.11,5.47,13.11,5.47,-5.44,-5.58,-5.95,7.67,7.67,7.64
56.29,13.12,5.49,13.12,5.49,-5.48,-5.57,-6.01,7.64,7.64,7.63
56.86,13.12,5.51,13.11,5.51,-5.50,-5.56,-6.06,7.61,7.61,7.61
57.42,13.10,5.51,13.10,5.51,-5.52,-5.55,-6.11,7.58,7.58,7.59
58.00,13.09,5.52,13.09,5.52,-5.54,-5.53,-6.16,7.55,7.55,7.57
58.58,13.08,5.53,13.08,5.53,-5.55,-5.51,-6.19,7.53,7.53,7.55
59.16,13.08,5.55,13.08,5.55,-5.56,-5.49,-6.22,7.52,7.52,7.53
59.76,13.08,5.57,13.08,5.57,-5.57,-5.47,-6.24,7.51,7.51,7.51
60.35,13.08,5.59,13.08,5.59,-5.58,-5.45,-6.26,7.50,7.50,7.49
60.96,13.08,5.61,13.08,5.61,-5.60,-5.42,-6.26,7.48,7.48,7.47
61.57,13.06,5.62,13.06,5.62,-5.61,-5.39,-6.25,7.46,7.46,7.45
62.18,13.05,5.62,13.05,5.62,-5.62,-5.35,-6.23,7.43,7.43,7.43
62.80,13.03,5.62,13.03,5.62,-5.63,-5.32,-6.20,7.40,7.40,7.41
63.43,13.01,5.63,13.01,5.63,-5.64,-5.28,-6.17,7.38,7.38,7.39
64.07,13.00,5.63,13.00,5.63,-5.64,-5.24,-6.12,7.36,7.36,7.36
64.71,12.99,5.64,12.99,5.64,-5.65,-5.19,-6.06,7.34,7.34,7.34
65.35,12.97,5.65,12.97,5.65,-5.65,-5.14,-5.99,7.32,7.32,7.32
66.01,12.96,5.65,12.96,5.65,-5.65,-5.09,-5.91,7.30,7.30,7.30
66.67,12.93,5.65,12.93,5.65,-5.65,-5.04,-5.83,7.29,7.29,7.28
67.33,12.90,5.64,12.91,5.64,-5.64,-4.98,-5.74,7.27,7.27,7.26
68.01,12.87,5.62,12.87,5.62,-5.61,-4.92,-5.63,7.26,7.25,7.25
68.69,12.82,5.59,12.82,5.59,-5.58,-4.86,-5.53,7.24,7.24,7.23
69.37,12.75,5.54,12.75,5.55,-5.54,-4.79,-5.41,7.22,7.22,7.21
70.07,12.68,5.49,12.68,5.49,-5.48,-4.72,-5.29,7.19,7.19,7.19
70.77,12.59,5.42,12.59,5.42,-5.42,-4.65,-5.17,7.17,7.17,7.17
71.48,12.49,5.34,12.49,5.34,-5.35,-4.57,-5.04,7.14,7.15,7.15
72.19,12.39,5.26,12.39,5.26,-5.27,-4.49,-4.90,7.12,7.13,7.14
72.91,12.29,5.17,12.29,5.17,-5.18,-4.41,-4.77,7.11,7.11,7.12
73.64,12.19,5.08,12.19,5.08,-5.09,-4.33,-4.63,7.10,7.10,7.10
74.38,12.07,4.99,12.07,4.99,-4.99,-4.24,-4.49,7.09,7.09,7.09
75.12,11.95,4.88,11.95,4.88,-4.88,-4.15,-4.35,7.07,7.07,7.07
75.87,11.82,4.76,11.82,4.76,-4.76,-4.06,-4.20,7.06,7.06,7.05
76.63,11.67,4.63,11.67,4.63,-4.63,-3.96,-4.06,7.04,7.04,7.04
77.40,11.52,4.49,11.52,4.49,-4.48,-3.87,-3.91,7.03,7.03,7.02
78.17,11.34,4.33,11.35,4.33,-4.33,-3.77,-3.77,7.02,7.02,7.01
78.95,11.16,4.17,11.16,4.17,-4.16,-3.66,-3.63,7.01,7.00,7.00
79.74,10.97,3.98,10.97,3.98,-3.98,-3.56,-3.48,6.99,6.99,6.98
80.54,10.76,3.79,10.76,3.79,-3.79,-3.45,-3.34,6.97,6.97,6.97
81.35,10.54,3.59,10.54,3.59,-3.59,-3.34,-3.20,6.96,6.96,6.96
82.16,10.33,3.38,10.33,3.38,-3.38,-3.23,-3.06,6.94,6.94,6.94
82.98,10.11,3.18,10.11,3.18,-3.18,-3.11,-2.92,6.93,6.93,6.93
83.81,9.88,2.97,9.88,2.97,-2.97,-2.99,-2.78,6.91,6.91,6.92
84.65,9.66,2.76,9.66,2.76,-2.77,-2.88,-2.65,6.89,6.89,6.90
85.50,9.45,2.56,9.45,2.56,-2.57,-2.75,-2.51,6.88,6.88,6.88
86.35,9.24,2.37,9.24,2.37,-2.37,-2.63,-2.38,6.86,6.86,6.87
87.22,9.03,2.18,9.03,2.18,-2.18,-2.51,-2.25,6.85,6.85,6.85
88.09,8.82,1.99,8.82,1.99,-1.99,-2.38,-2.12,6.83,6.83,6.83
88.97,8.61,1.81,8.61,1.81,-1.81,-2.26,-1.99,6.80,6.80,6.80
89.86,8.40,1.63,8.40,1.63,-1.63,-2.13,-1.86,6.78,6.78,6.78
90.76,8.20,1.45,8.20,1.45,-1.45,-2.00,-1.73,6.75,6.75,6.75
91.66,8.00,1.28,8.00,1.28,-1.28,-1.87,-1.61,6.72,6.72,6.72
92.58,7.80,1.12,7.80,1.12,-1.11,-1.75,-1.48,6.69,6.69,6.68
93.51,7.61,0.96,7.61,0.96,-0.96,-1.62,-1.36,6.65,6.65,6.65
94.44,7.42,0.81,7.42,0.81,-0.81,-1.49,-1.24,6.61,6.61,6.61
95.39,7.24,0.66,7.24,0.66,-0.67,-1.36,-1.12,6.57,6.57,6.57
96.34,7.06,0.53,7.06,0.53,-0.54,-1.23,-1.01,6.52,6.53,6.53
97.30,6.90,0.41,6.90,0.41,-0.42,-1.10,-0.89,6.49,6.49,6.49
98.28,6.75,0.31,6.75,0.31,-0.31,-0.97,-0.78,6.45,6.45,6.45
99.26,6.61,0.21,6.61,0.21,-0.20,-0.84,-0.66,6.41,6.41,6.40
100.25,6.48,0.11,6.47,0.11,-0.11,-0.72,-0.55,6.37,6.37,6.36
101.25,6.34,0.03,6.34,0.03,-0.02,-0.59,-0.44,6.32,6.32,6.32
102.27,6.22,-0.05,6.22,-0.05,0.05,-0.47,-0.34,6.27,6.27,6.27
103.29,6.10,-0.13,6.10,-0.13,0.12,-0.35,-0.23,6.22,6.22,6.23
104.32,5.99,-0.19,5.99,-0.19,0.18,-0.23,-0.13,6.17,6.17,6.18
105.37,5.90,-0.24,5.89,-0.24,0.24,-0.12,-0.03,6.13,6.13,6.14
106.42,5.81,-0.29,5.81,-0.29,0.28,-0.00,0.07,6.09,6.09,6.09
107.48,5.72,-0.32,5.72,-0.32,0.32,0.11,0.16,6.05,6.05,6.05
108.56,5.64,-0.36,5.64,-0.36,0.36,0.21,0.25,6.01,6.01,6.00
109.64,5.57,-0.39,5.57,-0.39,0.40,0.32,0.34,5.96,5.96,5.96
110.74,5.49,-0.43,5.49,-0.43,0.43,0.41,0.43,5.92,5.92,5.92
111.85,5.41,-0.46,5.41,-0.46,0.47,0.51,0.51,5.88,5.88,5.87
112.97,5.33,-0.50,5.33,-0.50,0.51,0.60,0.58,5.84,5.84,5.83
114.10,5.25,-0.54,5.25,-0.54,0.54,0.69,0.66,5.80,5.80,5.79
115.24,5.17,-0.58,5.17,-0.58,0.58,0.77,0.72,5.75,5.75,5.75
116.39,5.09,-0.62,5.09,-0.62,0.62,0.85,0.79,5.71,5.71,5.71
117.55,5.01,-0.66,5.02,-0.66,0.65,0.92,0.85,5.67,5.67,5.68
118.73,4.95,-0.70,4.95,-0.70,0.69,0.99,0.90,5.63,5.63,5.64
119.92,4.88,-0.72,4.88,-0.72,0.72,1.05,0.95,5.61,5.61,5.61
121.12,4.82,-0.75,4.82,-0.75,0.76,1.11,0.99,5.58,5.58,5.57
122.33,4.76,-0.78,4.76,-0.78,0.79,1.16,1.03,5.55,5.55,5.54
123.55,4.70,-0.82,4.70,-0.82,0.82,1.21,1.06,5.52,5.52,5.51
124.79,4.63,-0.85,4.63,-0.85,0.85,1.25,1.09,5.48,5.48,5.48
126.03,4.56,-0.89,4.56,-0.89,0.89,1.29,1.11,5.45,5.45,5.45
127.29,4.50,-0.93,4.50,-0.93,0.92,1.32,1.12,5.42,5.42,5.42
128.57,4.43,-0.96,4.43,-0.96,0.96,1.35,1.13,5.39,5.39,5.39
129.85,4.37,-1.00,4.37,-1.00,0.99,1.37,1.13,5.37,5.36,5.37
131.15,4.31,-1.03,4.31,-1.03,1.03,1.39,1.13,5.34,5.34,5.34
132.46,4.25,-1.06,4.25,-1.06,1.06,1.40,1.12,5.31,5.31,5.31
133.79,4.19,-1.09,4.19,-1.09,1.10,1.41,1.11,5.29,5.29,5.29
135.12,4.13,-1.12,4.13,-1.12,1.13,1.41,1.10,5.26,5.26,5.26
136.48,4.07,-1.16,4.07,-1.16,1.16,1.41,1.08,5.23,5.23,5.23
137.84,4.01,-1.19,4.01,-1.19,1.19,1.40,1.05,5.20,5.20,5.20
139.22,3.96,-1.21,3.96,-1.21,1.21,1.39,1.02,5.17,5.17,5.17
140.61,3.91,-1.24,3.91,-1.24,1.23,1.37,0.99,5.14,5.14,5.14
142.02,3.86,-1.25,3.86,-1.25,1.25,1.36,0.95,5.11,5.11,5.11
143.44,3.82,-1.26,3.82,-1.26,1.26,1.34,0.91,5.08,5.08,5.08
144.87,3.78,-1.27,3.79,-1.27,1.26,1.31,0.87,5.05,5.05,5.05
146.32,3.76,-1.26,3.75,-1.26,1.26,1.28,0.83,5.02,5.02,5.02
147.78,3.73,-1.26,3.73,-1.26,1.26,1.25,0.78,4.98,4.98,4.98
149.26,3.70,-1.25,3.70,-1.25,1.25,1.22,0.73,4.95,4.95,4.95
150.75,3.68,-1.23,3.68,-1.23,1.24,1.18,0.68,4.92,4.92,4.92
152.26,3.66,-1.22,3.66,-1.22,1.22,1.15,0.63,4.88,4.88,4.88
153.78,3.64,-1.20,3.64,-1.20,1.20,1.11,0.58,4.85,4.85,4.84
155.32,3.63,-1.18,3.63,-1.18,1.18,1.06,0.52,4.81,4.81,4.81
156.88,3.61,-1.16,3.61,-1.16,1.16,1.02,0.47,4.77,4.77,4.77
158.44,3.60,-1.13,3.60,-1.13,1.13,0.97,0.41,4.73,4.73,4.73
160.03,3.59,-1.11,3.59,-1.11,1.10,0.92,0.36,4.69,4.69,4.69
161.63,3.58,-1.07,3.58,-1.07,1.07,0.87,0.30,4.65,4.65,4.65
163.24,3.58,-1.04,3.58,-1.04,1.04,0.82,0.24,4.62,4.62,4.62
164.88,3.58,-1.00,3.58,-1.00,1.00,0.77,0.18,4.58,4.58,4.58
166.53,3.58,-0.96,3.58,-0.96,0.96,0.72,0.13,4.54,4.54,4.54
168.19,3.58,-0.92,3.58,-0.92,0.92,0.66,0.07,4.50,4.50,4.50
169.87,3.58,-0.87,3.58,-0.87,0.87,0.61,0.01,4.46,4.46,4.46
171.57,3.59,-0.83,3.59,-0.83,0.82,0.55,-0.05,4.41,4.41,4.42
173.29,3.60,-0.77,3.60,-0.77,0.77,0.49,-0.11,4.37,4.37,4.38
175.02,3.62,-0.72,3.62,-0.71,0.71,0.44,-0.17,4.33,4.33,4.33
176.77,3.64,-0.65,3.64,-0.65,0.65,0.38,-0.22,4.29,4.29,4.29
178.54,3.67,-0.58,3.67,-0.58,0.58,0.32,-0.28,4.25,4.25,4.25
180.32,3.70,-0.51,3.70,-0.51,0.51,0.26,-0.34,4.21,4.21,4.21
182.13,3.73,-0.44,3.73,-0.44,0.44,0.20,-0.40,4.17,4.17,4.17
183.95,3.76,-0.36,3.76,-0.36,0.36,0.14,-0.46,4.12,4.12,4.12
185.79,3.80,-0.28,3.80,-0.28,0.28,0.07,-0.52,4.08,4.08,4.08
187.65,3.84,-0.20,3.84,-0.20,0.19,0.01,-0.58,4.03,4.04,4.04
189.52,3.88,-0.11,3.88,-0.11,0.11,-0.05,-0.64,3.99,3.99,3.99
191.42,3.93,-0.02,3.93,-0.02,0.02,-0.12,-0.69,3.95,3.95,3.95
193.33,3.97,0.07,3.97,0.07,-0.06,-0.18,-0.75,3.91,3.91,3.91
195.27,4.02,0.15,4.01,0.15,-0.15,-0.25,-0.81,3.87,3.86,3.86
197.22,4.05,0.24,4.05,0.24,-0.24,-0.31,-0.87,3.82,3.82,3.81
199.19,4.09,0.32,4.09,0.32,-0.32,-0.38,-0.93,3.77,3.77,3.77
201.18,4.13,0.41,4.13,0.41,-0.41,-0.44,-0.99,3.72,3.72,3.72
203.19,4.17,0.50,4.17,0.50,-0.50,-0.51,-1.04,3.67,3.67,3.68
205.23,4.21,0.59,4.21,0.59,-0.59,-0.58,-1.10,3.63,3.63,3.63
207.28,4.26,0.68,4.26,0.68,-0.68,-0.65,-1.16,3.58,3.58,3.58
209.35,4.30,0.77,4.30,0.77,-0.77,-0.71,-1.21,3.53,3.53,3.53
211.44,4.34,0.86,4.34,0.86,-0.86,-0.78,-1.27,3.49,3.49,3.48
213.56,4.38,0.95,4.38,0.95,-0.94,-0.85,-1.32,3.44,3.44,3.44
215.69,4.42,1.03,4.42,1.03,-1.03,-0.92,-1.38,3.39,3.39,3.39
217.85,4.46,1.12,4.46,1.12,-1.12,-1.00,-1.43,3.34,3.34,3.34
220.03,4.50,1.21,4.50,1.21,-1.21,-1.07,-1.48,3.29,3.29,3.29
222.23,4.54,1.29,4.54,1.29,-1.29,-1.14,-1.53,3.25,3.25,3.25
224.45,4.58,1.38,4.58,1.38,-1.38,-1.21,-1.58,3.20,3.20,3.20
226.70,4.62,1.46,4.62,1.46,-1.46,-1.29,-1.63,3.16,3.16,3.16
228.96,4.66,1.54,4.66,1.54,-1.54,-1.36,-1.68,3.12,3.12,3.12
231.25,4.69,1.62,4.69,1.62,-1.61,-1.43,-1.72,3.08,3.08,3.08
233.57,4.73,1.69,4.73,1.69,-1.69,-1.51,-1.76,3.04,3.04,3.04
235.90,4.76,1.76,4.76,1.76,-1.76,-1.58,-1.80,3.01,3.01,3.00
238.26,4.79,1.82,4.79,1.82,-1.82,-1.66,-1.84,2.97,2.97,2.97
240.64,4.82,1.88,4.82,1.88,-1.88,-1.73,-1.88,2.94,2.94,2.94
243.05,4.85,1.94,4.85,1.94,-1.94,-1.81,-1.91,2.91,2.91,2.91
245.48,4.88,1.99,4.88,1.99,-1.99,-1.88,-1.94,2.88,2.88,2.88
247.93,4.90,2.04,4.90,2.04,-2.05,-1.95,-1.97,2.86,2.86,2.86
250.41,4.92,2.09,4.92,2.09,-2.10,-2.03,-2.00,2.83,2.83,2.83
252.92,4.95,2.14,4.95,2.14,-2.14,-2.10,-2.02,2.80,2.80,2.81
255.45,4.97,2.19,4.97,2.19,-2.19,-2.17,-2.05,2.78,2.78,2.78
258.00,5.00,2.24,5.00,2.24,-2.24,-2.24,-2.07,2.75,2.75,2.75
260.58,5.02,2.29,5.02,2.29,-2.29,-2.31,-2.08,2.73,2.73,2.73
263.19,5.03,2.34,5.03,2.34,-2.34,-2.38,-2.10,2.70,2.70,2.70
265.82,5.05,2.38,5.05,2.38,-2.38,-2.44,-2.11,2.67,2.67,2.67
268.48,5.06,2.43,5.06,2.43,-2.43,-2.51,-2.13,2.64,2.64,2.64
271.16,5.08,2.47,5.08,2.47,-2.47,-2.57,-2.14,2.60,2.60,2.60
273.87,5.09,2.52,5.09,2.52,-2.52,-2.62,-2.15,2.57,2.57,2.57
276.61,5.10,2.56,5.10,2.56,-2.57,-2.68,-2.16,2.53,2.53,2.53
279.38,5.11,2.61,5.11,2.61,-2.61,-2.73,-2.17,2.49,2.49,2.49
282.17,5.12,2.66,5.12,2.66,-2.66,-2.78,-2.17,2.46,2.46,2.46
284.99,5.12,2.71,5.12,2.71,-2.71,-2.83,-2.18,2.42,2.42,2.42
287.84,5.13,2.75,5.13,2.75,-2.75,-2.87,-2.19,2.38,2.38,2.38
290.72,5.14,2.80,5.14,2.80,-2.80,-2.91,-2.19,2.34,2.34,2.34
293.63,5.14,2.84,5.14,2.84,-2.84,-2.95,-2.20,2.30,2.30,2.30
296.57,5.14,2.89,5.14,2.89,-2.89,-2.99,-2.20,2.26,2.26,2.26
299.53,5.14,2.93,5.14,2.93,-2.93,-3.02,-2.21,2.21,2.21,2.21
302.53,5.14,2.97,5.14,2.97,-2.97,-3.05,-2.22,2.17,2.17,2.17
305.55,5.14,3.01,5.14,3.01,-3.01,-3.08,-2.23,2.13,2.13,2.13
308.61,5.14,3.05,5.14,3.05,-3.05,-3.10,-2.24,2.09,2.09,2.09
311.69,5.13,3.08,5.13,3.08,-3.08,-3.13,-2.25,2.05,2.05,2.05
314.81,5.13,3.12,5.13,3.12,-3.12,-3.15,-2.26,2.01,2.01,2.01
317.96,5.12,3.16,5.12,3.16,-3.16,-3.17,-2.27,1.97,1.97,1.97
321.14,5.12,3.19,5.12,3.19,-3.19,-3.19,-2.29,1.93,1.93,1.93
324.35,5.11,3.22,5.11,3.22,-3.22,-3.21,-2.30,1.89,1.89,1.89
327.59,5.10,3.26,5.10,3.26,-3.26,-3.23,-2.32,1.85,1.85,1.85
330.87,5.10,3.29,5.10,3.29,-3.29,-3.24,-2.34,1.81,1.81,1.81
334.18,5.09,3.32,5.08,3.32,-3.32,-3.26,-2.36,1.77,1.77,1.77
337.52,5.07,3.34,5.07,3.34,-3.34,-3.28,-2.38,1.73,1.73,1.73
340.90,5.06,3.37,5.06,3.37,-3.37,-3.29,-2.41,1.69,1.69,1.69
344.30,5.04,3.39,5.04,3.39,-3.39,-3.31,-2.43,1.65,1.65,1.65
347.75,5.02,3.41,5.02,3.41,-3.41,-3.32,-2.46,1.61,1.61,1.61
351.23,5.00,3.43,5.00,3.43,-3.43,-3.34,-2.49,1.57,1.57,1.57
354.74,4.98,3.45,4.98,3.45,-3.45,-3.35,-2.53,1.53,1.53,1.53
358.28,4.96,3.47,4.96,3.47,-3.47,-3.37,-2.56,1.49,1.49,1.49
361.87,4.94,3.49,4.94,3.49,-3.49,-3.38,-2.60,1.45,1.45,1.45
365.49,4.91,3.50,4.91,3.50,-3.50,-3.40,-2.64,1.41,1.41,1.41
369.14,4.89,3.52,4.89,3.52,-3.52,-3.41,-2.68,1.37,1.37,1.37
372.83,4.86,3.53,4.86,3.53,-3.53,-3.43,-2.72,1.33,1.33,1.33
376.56,4.84,3.55,4.84,3.55,-3.55,-3.44,-2.76,1.29,1.29,1.29
380.33,4.81,3.56,4.81,3.56,-3.56,-3.46,-2.81,1.25,1.25,1.25
384.13,4.79,3.58,4.79,3.58,-3.58,-3.47,-2.86,1.21,1.21,1.21
387.97,4.76,3.59,4.76,3.59,-3.59,-3.48,-2.91,1.17,1.17,1.17
391.85,4.73,3.60,4.73,3.60,-3.60,-3.49,-2.96,1.13,1.13,1.13
395.77,4.70,3.61,4.70,3.61,-3.61,-3.51,-3.01,1.09,1.09,1.09
399.73,4.67,3.62,4.67,3.62,-3.62,-3.52,-3.06,1.05,1.05,1.05
403.72,4.64,3.63,4.64,3.63,-3.63,-3.53,-3.11,1.01,1.01,1.01
407.76,4.60,3.63,4.60,3.63,-3.63,-3.54,-3.17,0.97,0.97,0.97
411.84,4.57,3.64,4.57,3.64,-3.63,-3.55,-3.22,0.94,0.94,0.93
415.96,4.53,3.63,4.53,3.63,-3.63,-3.55,-3.28,0.90,0.90,0.90
420.12,4.50,3.63,4.50,3.63,-3.63,-3.56,-3.33,0.87,0.87,0.87
424.32,4.46,3.62,4.46,3.62,-3.62,-3.56,-3.38,0.84,0.84,0.84
428.56,4.42,3.61,4.42,3.61,-3.61,-3.57,-3.44,0.81,0.81,0.81
432.85,4.38,3.60,4.38,3.60,-3.59,-3.57,-3.49,0.79,0.79,0.79
437.18,4.34,3.58,4.34,3.58,-3.58,-3.57,-3.54,0.77,0.77,0.76
441.55,4.30,3.55,4.30,3.55,-3.55,-3.56,-3.58,0.75,0.75,0.75
445.96,4.26,3.53,4.26,3.53,-3.53,-3.56,-3.63,0.73,0.73,0.73
450.42,4.22,3.50,4.22,3.50,-3.50,-3.55,-3.67,0.72,0.72,0.72
454.93,4.18,3.47,4.18,3.47,-3.48,-3.55,-3.71,0.70,0.70,0.71
459.48,4.14,3.44,4.14,3.44,-3.45,-3.54,-3.74,0.69,0.69,0.70
464.07,4.10,3.42,4.10,3.42,-3.42,-3.52,-3.77,0.68,0.68,0.68
468.71,4.06,3.39,4.06,3.39,-3.39,-3.51,-3.79,0.67,0.67,0.67
473.40,4.02,3.36,4.02,3.36,-3.36,-3.49,-3.81,0.66,0.66,0.66
478.13,3.98,3.33,3.98,3.33,-3.33,-3.47,-3.82,0.65,0.65,0.65
482.91,3.94,3.30,3.94,3.30,-3.30,-3.45,-3.83,0.64,0.64,0.64
487.74,3.89,3.27,3.89,3.27,-3.27,-3.43,-3.83,0.62,0.62,0.62
492.62,3.84,3.24,3.84,3.24,-3.24,-3.40,-3.82,0.61,0.61,0.60
497.55,3.79,3.20,3.79,3.20,-3.21,-3.37,-3.81,0.59,0.59,0.59
502.52,3.74,3.17,3.74,3.17,-3.17,-3.34,-3.79,0.57,0.57,0.57
507.55,3.69,3.13,3.69,3.14,-3.14,-3.31,-3.77,0.55,0.55,0.55
512.62,3.64,3.10,3.64,3.10,-3.10,-3.28,-3.73,0.53,0.53,0.54
517.75,3.58,3.07,3.58,3.07,-3.07,-3.24,-3.69,0.52,0.52,0.52
522.93,3.53,3.03,3.53,3.03,-3.03,-3.20,-3.65,0.50,0.50,0.50
