frequency,raw,error,smoothed,error_smoothed,equalization,parametric_eq,fixed_band_eq,equalized_raw,equalized_smoothed,target
20.00,1.82,-7.46,1.82,-7.46,6.00,6.76,2.30,7.82,7.82,9.28
20.20,1.88,-7.40,1.88,-7.40,6.00,6.75,2.37,7.88,7.88,9.28
20.40,1.94,-7.34,1.94,-7.34,6.00,6.75,2.44,7.94,7.94,9.28
20.61,2.00,-7.28,2.00,-7.28,6.00,6.64,2.51,8.00,8.00,9.28
20.81,2.06,-7.22,2.06,-7.22,6.00,6.54,2.58,8.06,8.06,9.28
21.02,2.12,-7.16,2.12,-7.16,6.00,6.40,2.66,8.12,8.12,9.27
21.23,2.17,-7.09,2.17,-7.09,6.00,6.26,2.74,8.17,8.17,9.27
21.44,2.23,-7.03,2.23,-7.03,6.00,6.14,2.82,8.23,8.23,9.26
21.66,2.29,-6.97,2.29,-6.97,6.00,6.02,2.90,8.29,8.29,9.26
21.87,2.35,-6.91,2.35,-6.91,6.00,5.93,2.98,8.35,8.35,9.25
22.09,2.40,-6.85,2.40,-6.85,6.00,5.84,3.07,8.40,8.40,9.25
22.31,2.46,-6.78,2.46,-6.78,6.00,5.78,3.16,8.46,8.46,9.24
22.54,2.51,-6.72,2.51,-6.72,6.00,5.72,3.25,8.51,8.51,9.23
22.76,2.56,-6.66,2.56,-6.66,6.00,5.69,3.34,8.56,8.56,9.23
22.99,2.61,-6.61,2.61,-6.61,6.00,5.65,3.44,8.61,8.61,9.22
23.22,2.66,-6.55,2.66,-6.55,6.00,5.64,3.54,8.66,8.66,9.21
23.45,2.71,-6.49,2.71,-6.49,6.00,5.62,3.64,8.71,8.71,9.20
23.69,2.77,-6.43,2.77,-6.43,6.00,5.61,3.74,8.77,8.77,9.20
23.92,2.82,-6.37,2.82,-6.37,6.00,5.60,3.84,8.82,8.82,9.19
24.16,2.87,-6.31,2.87,-6.31,6.01,5.60,3.95,8.88,8.88,9.18
24.40,2.92,-6.26,2.92,-6.26,6.01,5.60,4.06,8.93,8.93,9.18
24.65,2.97,-6.20,2.97,-6.20,6.01,5.60,4.17,8.98,8.98,9.17
24.89,3.02,-6.14,3.02,-6.14,6.00,5.60,4.28,9.02,9.02,9.16
25.14,3.07,-6.08,3.07,-6.08,5.99,5.60,4.39,9.06,9.06,9.15
25.39,3.12,-6.02,3.12,-6.02,5.97,5.60,4.50,9.09,9.09,9.14
25.65,3.17,-5.96,3.17,-5.96,5.94,5.60,4.62,9.10,9.10,9.12
25.91,3.21,-5.90,3.21,-5.90,5.90,5.60,4.73,9.11,9.11,9.11
26.16,3.26,-5.84,3.26,-5.84,5.85,5.60,4.84,9.11,9.11,9.10
26.43,3.31,-5.79,3.31,-5.79,5.80,5.59,4.95,9.11,9.11,9.10
26.69,3.36,-5.73,3.36,-5.73,5.74,5.58,5.06,9.10,9.10,9.09
26.96,3.41,-5.67,3.41,-5.67,5.68,5.57,5.17,9.08,9.08,9.08
27.23,3.45,-5.61,3.45,-5.61,5.61,5.55,5.28,9.07,9.07,9.07
27.50,3.50,-5.55,3.50,-5.55,5.55,5.54,5.38,9.05,9.05,9.06
27.77,3.55,-5.49,3.55,-5.49,5.49,5.52,5.48,9.04,9.04,9.04
28.05,3.59,-5.43,3.59,-5.43,5.43,5.49,5.58,9.03,9.03,9.03
28.33,3.64,-5.37,3.64,-5.37,5.38,5.47,5.66,9.01,9.01,9.01
28.62,3.68,-5.32,3.68,-5.32,5.32,5.44,5.75,9.00,9.00,9.00
28.90,3.72,-5.26,3.72,-5.26,5.26,5.40,5.82,8.98,8.98,8.98
29.19,3.76,-5.20,3.76,-5.20,5.20,5.37,5.90,8.97,8.97,8.97
29.48,3.80,-5.15,3.80,-5.15,5.15,5.33,5.95,8.95,8.95,8.95
29.78,3.84,-5.09,3.84,-5.09,5.09,5.29,6.01,8.94,8.94,8.94
30.08,3.88,-5.04,3.88,-5.04,5.04,5.24,6.05,8.92,8.92,8.92
30.38,3.92,-4.99,3.92,-4.99,4.99,5.20,6.09,8.90,8.90,8.90
30.68,3.96,-4.93,3.96,-4.93,4.93,5.15,6.11,8.89,8.89,8.89
30.99,3.99,-4.88,3.99,-4.88,4.88,5.10,6.12,8.87,8.87,8.87
31.30,4.03,-4.82,4.03,-4.82,4.82,5.04,6.12,8.85,8.85,8.85
31.61,4.07,-4.76,4.07,-4.76,4.76,4.99,6.12,8.83,8.83,8.83
31.93,4.11,-4.70,4.11,-4.70,4.70,4.93,6.10,8.81,8.81,8.81
32.24,4.15,-4.65,4.15,-4.65,4.64,4.87,6.07,8.79,8.79,8.79
32.57,4.18,-4.59,4.18,-4.59,4.58,4.81,6.03,8.77,8.77,8.77
32.89,4.22,-4.53,4.22,-4.53,4.53,4.75,5.99,8.74,8.74,8.74
33.22,4.25,-4.47,4.25,-4.47,4.47,4.68,5.93,8.72,8.72,8.72
33.55,4.29,-4.41,4.29,-4.41,4.41,4.62,5.86,8.70,8.70,8.69
33.89,4.32,-4.35,4.32,-4.35,4.35,4.55,5.79,8.67,8.67,8.67
34.23,4.36,-4.29,4.36,-4.29,4.29,4.49,5.71,8.65,8.65,8.65
34.57,4.39,-4.24,4.39,-4.24,4.24,4.42,5.62,8.63,8.63,8.63
34.92,4.42,-4.18,4.42,-4.18,4.18,4.35,5.53,8.60,8.60,8.60
35.27,4.45,-4.13,4.45,-4.13,4.13,4.28,5.43,8.58,8.58,8.58
35.62,4.48,-4.08,4.48,-4.08,4.07,4.22,5.33,8.56,8.56,8.56
35.97,4.51,-4.02,4.51,-4.02,4.02,4.15,5.22,8.53,8.53,8.53
36.33,4.54,-3.96,4.54,-3.97,3.96,4.08,5.11,8.51,8.51,8.51
36.70,4.57,-3.91,4.57,-3.91,3.91,4.01,5.00,8.48,8.48,8.48
37.06,4.60,-3.85,4.60,-3.85,3.85,3.94,4.89,8.45,8.45,8.45
37.43,4.63,-3.79,4.63,-3.79,3.80,3.87,4.77,8.42,8.42,8.42
37.81,4.66,-3.74,4.66,-3.74,3.74,3.81,4.66,8.39,8.39,8.39
38.19,4.68,-3.68,4.68,-3.68,3.68,3.74,4.54,8.37,8.37,8.37
38.57,4.71,-3.63,4.71,-3.63,3.63,3.67,4.43,8.34,8.34,8.34
38.95,4.74,-3.57,4.74,-3.57,3.57,3.61,4.31,8.31,8.31,8.31
39.34,4.76,-3.52,4.76,-3.52,3.52,3.54,4.20,8.28,8.28,8.28
39.74,4.79,-3.47,4.79,-3.47,3.47,3.47,4.09,8.26,8.26,8.26
40.14,4.81,-3.42,4.81,-3.42,3.42,3.41,3.97,8.23,8.23,8.23
40.54,4.83,-3.37,4.83,-3.37,3.37,3.35,3.86,8.20,8.20,8.20
40.94,4.85,-3.32,4.85,-3.32,3.32,3.28,3.76,8.17,8.17,8.17
41.35,4.88,-3.27,4.88,-3.27,3.27,3.22,3.65,8.15,8.15,8.15
41.76,4.90,-3.22,4.90,-3.22,3.22,3.16,3.54,8.12,8.12,8.12
42.18,4.92,-3.17,4.92,-3.17,3.18,3.10,3.44,8.09,8.09,8.09
42.60,4.94,-3.13,4.94,-3.13,3.13,3.04,3.34,8.06,8.07,8.06
43.03,4.96,-3.08,4.96,-3.08,3.08,2.98,3.24,8.04,8.04,8.04
43.46,4.98,-3.04,4.98,-3.04,3.03,2.92,3.14,8.01,8.01,8.01
43.90,4.99,-2.99,4.99,-2.99,2.99,2.87,3.05,7.98,7.98,7.98
44.33,5.01,-2.94,5.01,-2.94,2.94,2.81,2.96,7.95,7.95,7.95
44.78,5.03,-2.89,5.03,-2.89,2.89,2.75,2.87,7.92,7.92,7.92
45.23,5.04,-2.84,5.04,-2.84,2.84,2.70,2.78,7.88,7.88,7.88
45.68,5.05,-2.79,5.06,-2.79,2.79,2.65,2.70,7.85,7.85,7.85
46.13,5.07,-2.74,5.07,-2.74,2.74,2.60,2.61,7.81,7.81,7.81
46.60,5.08,-2.69,5.08,-2.70,2.70,2.54,2.53,7.78,7.78,7.77
47.06,5.09,-2.65,5.09,-2.65,2.65,2.49,2.45,7.74,7.74,7.74
47.53,5.10,-2.61,5.10,-2.61,2.61,2.45,2.38,7.71,7.71,7.70
48.01,5.11,-2.56,5.11,-2.56,2.56,2.40,2.30,7.67,7.67,7.67
48.49,5.12,-2.52,5.12,-2.52,2.52,2.35,2.23,7.63,7.63,7.64
48.97,5.12,-2.48,5.12,-2.48,2.47,2.30,2.16,7.60,7.60,7.60
49.46,5.13,-2.43,5.13,-2.43,2.43,2.26,2.09,7.56,7.56,7.56
49.96,5.14,-2.39,5.14,-2.39,2.39,2.21,2.02,7.53,7.53,7.53
50.46,5.15,-2.34,5.15,-2.34,2.35,2.17,1.96,7.49,7.49,7.49
50.96,5.15,-2.30,5.15,-2.30,2.30,2.13,1.90,7.45,7.45,7.45
51.47,5.15,-2.26,5.15,-2.26,2.26,2.09,1.84,7.41,7.41,7.41
51.99,5.16,-2.22,5.16,-2.22,2.22,2.05,1.78,7.38,7.38,7.38
52.51,5.16,-2.18,5.16,-2.18,2.18,2.01,1.72,7.34,7.34,7.34
53.03,5.17,-2.14,5.17,-2.14,2.14,1.97,1.67,7.30,7.30,7.31
53.56,5.17,-2.10,5.17,-2.10,2.10,1.93,1.61,7.27,7.27,7.27
54.10,5.18,-2.06,5.18,-2.06,2.06,1.89,1.56,7.23,7.23,7.23
54.64,5.18,-2.02,5.18,-2.02,2.02,1.86,1.51,7.20,7.20,7.20
55.18,5.18,-1.98,5.18,-1.98,1.98,1.82,1.47,7.16,7.16,7.16
55.74,5.18,-1.94,5.18,-1.94,1.94,1.79,1.42,7.12,7.12,7.12
56.29,5.18,-1.90,5.18,-1.90,1.90,1.76,1.38,7.08,7.08,7.08
56.86,5.17,-1.87,5.17,-1.87,1.86,1.72,1.34,7.04,7.04,7.04
57.42,5.17,-1.83,5.17,-1.83,1.82,1.69,1.30,6.99,6.99,6.99
58.00,5.16,-1.79,5.16,-1.79,1.79,1.66,1.26,6.95,6.95,6.95
58.58,5.16,-1.75,5.16,-1.75,1.75,1.63,1.22,6.91,6.91,6.91
59.16,5.15,-1.71,5.15,-1.71,1.72,1.60,1.19,6.87,6.87,6.87
59.76,5.15,-1.68,5.15,-1.68,1.68,1.57,1.16,6.83,6.83,6.82
60.35,5.14,-1.65,5.14,-1.65,1.65,1.54,1.13,6.79,6.79,6.78
60.96,5.13,-1.62,5.13,-1.62,1.62,1.52,1.10,6.75,6.75,6.74
61.57,5.12,-1.59,5.12,-1.59,1.59,1.49,1.07,6.71,6.71,6.71
62.18,5.11,-1.56,5.11,-1.56,1.56,1.46,1.05,6.67,6.67,6.67
62.80,5.10,-1.53,5.10,-1.53,1.53,1.44,1.02,6.63,6.63,6.63
63.43,5.08,-1.50,5.08,-1.50,1.50,1.41,1.00,6.58,6.58,6.59
64.07,5.07,-1.47,5.07,-1.47,1.47,1.39,0.98,6.54,6.54,6.54
64.71,5.06,-1.44,5.06,-1.44,1.44,1.37,0.97,6.50,6.50,6.50
65.35,5.04,-1.41,5.04,-1.41,1.41,1.35,0.95,6.45,6.45,6.45
66.01,5.02,-1.38,5.02,-1.38,1.38,1.32,0.94,6.40,6.40,6.40
66.67,5.00,-1.35,5.00,-1.35,1.35,1.30,0.92,6.35,6.35,6.35
67.33,4.98,-1.32,4.98,-1.32,1.33,1.28,0.91,6.30,6.30,6.30
68.01,4.96,-1.30,4.96,-1.30,1.30,1.26,0.90,6.25,6.25,6.26
68.69,4.93,-1.27,4.93,-1.27,1.27,1.24,0.90,6.21,6.21,6.21
69.37,4.91,-1.25,4.91,-1.25,1.24,1.22,0.89,6.16,6.16,6.16
70.07,4.89,-1.22,4.89,-1.22,1.22,1.21,0.89,6.11,6.11,6.11
70.77,4.86,-1.19,4.87,-1.19,1.19,1.19,0.88,6.06,6.06,6.06
71.48,4.84,-1.17,4.84,-1.17,1.17,1.17,0.88,6.01,6.01,6.01
72.19,4.81,-1.15,4.81,-1.15,1.15,1.16,0.88,5.96,5.96,5.96
72.91,4.79,-1.13,4.79,-1.13,1.13,1.14,0.88,5.92,5.92,5.92
73.64,4.76,-1.11,4.76,-1.11,1.11,1.13,0.88,5.87,5.87,5.87
74.38,4.73,-1.09,4.73,-1.09,1.09,1.11,0.88,5.83,5.83,5.83
75.12,4.71,-1.08,4.71,-1.08,1.08,1.10,0.89,5.78,5.78,5.78
75.87,4.68,-1.06,4.68,-1.06,1.06,1.09,0.89,5.74,5.74,5.74
76.63,4.65,-1.04,4.65,-1.04,1.04,1.07,0.90,5.69,5.69,5.69
77.40,4.61,-1.03,4.61,-1.03,1.03,1.06,0.90,5.65,5.64,5.65
78.17,4.58,-1.02,4.58,-1.02,1.02,1.05,0.91,5.60,5.60,5.60
78.95,4.55,-1.00,4.55,-1.00,1.00,1.04,0.92,5.55,5.55,5.55
79.74,4.51,-0.99,4.51,-0.99,0.99,1.03,0.93,5.50,5.50,5.50
80.54,4.48,-0.97,4.48,-0.97,0.97,1.02,0.94,5.45,5.45,5.45
81.35,4.44,-0.96,4.44,-0.96,0.95,1.01,0.95,5.39,5.39,5.39
82.16,4.40,-0.94,4.40,-0.94,0.94,1.00,0.96,5.33,5.33,5.34
82.98,4.36,-0.92,4.36,-0.92,0.92,1.00,0.97,5.27,5.27,5.28
83.81,4.32,-0.90,4.31,-0.90,0.90,0.99,0.99,5.21,5.21,5.22
84.65,4.27,-0.88,4.27,-0.88,0.88,0.98,1.00,5.15,5.15,5.16
85.50,4.23,-0.86,4.23,-0.86,0.87,0.98,1.02,5.10,5.10,5.09
86.35,4.19,-0.85,4.19,-0.85,0.85,0.97,1.03,5.04,5.04,5.04
87.22,4.14,-0.84,4.14,-0.84,0.85,0.97,1.05,4.99,4.99,4.98
88.09,4.10,-0.83,4.10,-0.83,0.84,0.96,1.07,4.94,4.94,4.93
88.97,4.05,-0.84,4.05,-0.84,0.84,0.96,1.08,4.89,4.89,4.89
89.86,4.00,-0.85,4.00,-0.84,0.84,0.96,1.10,4.84,4.84,4.85
90.76,3.95,-0.85,3.95,-0.85,0.84,0.95,1.12,4.79,4.79,4.80
91.66,3.90,-0.85,3.90,-0.85,0.85,0.95,1.14,4.74,4.74,4.75
92.58,3.84,-0.85,3.84,-0.85,0.85,0.95,1.16,4.69,4.69,4.69
93.51,3.78,-0.85,3.78,-0.85,0.86,0.95,1.18,4.64,4.64,4.64
94.44,3.73,-0.86,3.73,-0.86,0.86,0.95,1.21,4.59,4.59,4.58
95.39,3.67,-0.86,3.67,-0.86,0.86,0.95,1.23,4.53,4.53,4.53
96.34,3.61,-0.87,3.61,-0.87,0.87,0.95,1.25,4.48,4.48,4.48
97.30,3.55,-0.88,3.55,-0.88,0.88,0.96,1.28,4.43,4.43,4.43
98.28,3.49,-0.88,3.49,-0.88,0.88,0.96,1.30,4.37,4.37,4.37
99.26,3.43,-0.89,3.43,-0.89,0.89,0.96,1.32,4.32,4.32,4.32
100.25,3.36,-0.90,3.36,-0.90,0.90,0.97,1.35,4.26,4.26,4.26
101.25,3.30,-0.91,3.30,-0.91,0.90,0.98,1.37,4.20,4.20,4.20
102.27,3.23,-0.91,3.23,-0.91,0.91,0.98,1.40,4.14,4.15,4.15
103.29,3.16,-0.92,3.16,-0.92,0.92,0.99,1.43,4.09,4.09,4.09
104.32,3.10,-0.93,3.10,-0.93,0.93,1.00,1.45,4.03,4.03,4.03
105.37,3.03,-0.94,3.03,-0.94,0.94,1.01,1.48,3.97,3.97,3.97
106.42,2.95,-0.96,2.95,-0.96,0.96,1.02,1.50,3.91,3.91,3.91
107.48,2.88,-0.97,2.88,-0.97,0.98,1.03,1.53,3.86,3.86,3.86
108.56,2.81,-1.00,2.81,-0.99,1.00,1.04,1.55,3.81,3.81,3.80
109.64,2.73,-1.02,2.73,-1.02,1.02,1.06,1.58,3.76,3.76,3.75
110.74,2.66,-1.04,2.66,-1.04,1.05,1.07,1.60,3.71,3.70,3.70
111.85,2.58,-1.07,2.58,-1.07,1.07,1.09,1.62,3.65,3.65,3.65
112.97,2.50,-1.10,2.50,-1.10,1.09,1.10,1.64,3.60,3.60,3.60
114.10,2.42,-1.13,2.42,-1.13,1.12,1.12,1.67,3.54,3.54,3.55
115.24,2.34,-1.15,2.34,-1.15,1.14,1.14,1.69,3.48,3.48,3.50
116.39,2.26,-1.17,2.26,-1.17,1.16,1.16,1.70,3.42,3.42,3.43
117.55,2.18,-1.18,2.18,-1.18,1.19,1.18,1.72,3.37,3.36,3.36
118.73,2.10,-1.19,2.10,-1.20,1.21,1.21,1.74,3.31,3.31,3.29
119.92,2.01,-1.22,2.01,-1.23,1.24,1.23,1.75,3.25,3.25,3.23
121.12,1.92,-1.27,1.92,-1.27,1.27,1.26,1.76,3.19,3.19,3.19
122.33,1.83,-1.31,1.83,-1.31,1.30,1.29,1.77,3.14,3.14,3.14
123.55,1.74,-1.35,1.74,-1.35,1.34,1.32,1.78,3.09,3.09,3.09
124.79,1.65,-1.38,1.65,-1.39,1.39,1.35,1.79,3.04,3.04,3.03
126.03,1.56,-1.43,1.56,-1.43,1.43,1.38,1.80,2.99,2.99,2.99
127.29,1.47,-1.48,1.47,-1.48,1.47,1.42,1.80,2.94,2.94,2.94
128.57,1.37,-1.52,1.37,-1.52,1.52,1.45,1.80,2.89,2.89,2.90
129.85,1.28,-1.57,1.28,-1.57,1.57,1.49,1.80,2.85,2.85,2.85
131.15,1.19,-1.61,1.19,-1.61,1.61,1.53,1.80,2.80,2.80,2.80
132.46,1.09,-1.65,1.09,-1.65,1.66,1.57,1.80,2.75,2.75,2.75
133.79,1.00,-1.70,1.00,-1.70,1.70,1.62,1.80,2.70,2.70,2.70
135.12,0.90,-1.75,0.90,-1.75,1.74,1.66,1.79,2.64,2.65,2.65
136.48,0.81,-1.80,0.81,-1.79,1.78,1.71,1.78,2.59,2.59,2.60
137.84,0.71,-1.83,0.71,-1.83,1.82,1.76,1.78,2.52,2.52,2.53
139.22,0.61,-1.86,0.61,-1.86,1.85,1.81,1.77,2.46,2.46,2.46
140.61,0.51,-1.88,0.51,-1.89,1.89,1.86,1.76,2.40,2.40,2.39
142.02,0.41,-1.92,0.41,-1.92,1.93,1.92,1.75,2.34,2.34,2.33
143.44,0.31,-1.96,0.31,-1.96,1.97,1.97,1.74,2.29,2.29,2.28
144.87,0.22,-2.01,0.22,-2.01,2.02,2.03,1.73,2.23,2.23,2.23
146.32,0.12,-2.07,0.12,-2.07,2.06,2.08,1.72,2.18,2.18,2.19
147.78,0.02,-2.12,0.02,-2.12,2.11,2.14,1.71,2.14,2.14,2.14
149.26,-0.07,-2.18,-0.07,-2.17,2.17,2.20,1.70,2.09,2.09,2.10
150.75,-0.17,-2.22,-0.17,-2.22,2.22,2.26,1.69,2.05,2.05,2.05
152.26,-0.26,-2.27,-0.26,-2.27,2.27,2.31,1.68,2.01,2.01,2.01
153.78,-0.36,-2.32,-0.36,-2.32,2.33,2.37,1.67,1.97,1.97,1.97
155.32,-0.45,-2.38,-0.45,-2.38,2.38,2.42,1.66,1.93,1.93,1.93
156.88,-0.54,-2.43,-0.54,-2.43,2.43,2.48,1.65,1.89,1.89,1.89
158.44,-0.63,-2.49,-0.63,-2.49,2.49,2.53,1.65,1.85,1.85,1.86
160.03,-0.72,-2.54,-0.72,-2.54,2.54,2.58,1.64,1.82,1.82,1.82
161.63,-0.81,-2.59,-0.81,-2.59,2.60,2.62,1.63,1.79,1.79,1.79
163.24,-0.89,-2.65,-0.89,-2.65,2.66,2.66,1.63,1.77,1.77,1.76
164.88,-0.97,-2.71,-0.97,-2.71,2.71,2.70,1.63,1.74,1.74,1.73
166.53,-1.05,-2.76,-1.05,-2.76,2.76,2.73,1.62,1.72,1.72,1.71
168.19,-1.12,-2.81,-1.12,-2.81,2.81,2.75,1.62,1.68,1.68,1.69
169.87,-1.20,-2.86,-1.20,-2.85,2.84,2.78,1.62,1.64,1.65,1.66
171.57,-1.27,-2.88,-1.27,-2.88,2.86,2.79,1.62,1.60,1.60,1.62
173.29,-1.34,-2.89,-1.34,-2.89,2.88,2.81,1.63,1.54,1.54,1.56
175.02,-1.40,-2.89,-1.40,-2.89,2.88,2.81,1.63,1.47,1.47,1.49
176.77,-1.46,-2.87,-1.46,-2.87,2.87,2.81,1.64,1.40,1.40,1.40
178.54,-1.52,-2.84,-1.52,-2.84,2.85,2.80,1.64,1.33,1.33,1.32
180.32,-1.58,-2.82,-1.58,-2.82,2.83,2.80,1.65,1.25,1.25,1.24
182.13,-1.63,-2.79,-1.63,-2.79,2.80,2.78,1.66,1.17,1.17,1.16
183.95,-1.68,-2.77,-1.68,-2.77,2.78,2.76,1.67,1.10,1.10,1.09
185.79,-1.73,-2.76,-1.73,-2.75,2.76,2.74,1.68,1.03,1.03,1.03
187.65,-1.77,-2.74,-1.77,-2.74,2.74,2.72,1.69,0.97,0.97,0.97
189.52,-1.81,-2.72,-1.81,-2.72,2.72,2.69,1.71,0.91,0.91,0.91
191.42,-1.84,-2.70,-1.84,-2.70,2.70,2.66,1.72,0.85,0.85,0.86
193.33,-1.88,-2.68,-1.88,-2.68,2.68,2.63,1.74,0.80,0.80,0.81
195.27,-1.90,-2.65,-1.90,-2.65,2.65,2.61,1.75,0.75,0.75,0.75
197.22,-1.92,-2.62,-1.92,-2.62,2.62,2.58,1.77,0.70,0.70,0.70
199.19,-1.94,-2.59,-1.94,-2.59,2.59,2.55,1.79,0.65,0.65,0.65
201.18,-1.96,-2.55,-1.96,-2.55,2.56,2.52,1.81,0.60,0.60,0.59
203.19,-1.97,-2.52,-1.97,-2.52,2.52,2.49,1.83,0.55,0.55,0.55
205.23,-1.98,-2.48,-1.98,-2.48,2.48,2.46,1.85,0.50,0.50,0.50
207.28,-1.99,-2.44,-1.99,-2.44,2.45,2.43,1.87,0.46,0.46,0.45
209.35,-2.00,-2.41,-2.00,-2.41,2.41,2.40,1.89,0.41,0.41,0.41
211.44,-2.00,-2.37,-2.00,-2.37,2.37,2.37,1.91,0.37,0.37,0.37
213.56,-2.00,-2.33,-2.00,-2.33,2.33,2.34,1.93,0.32,0.32,0.33
215.69,-2.00,-2.29,-2.00,-2.29,2.28,2.31,1.95,0.28,0.28,0.28
217.85,-2.00,-2.24,-2.00,-2.24,2.24,2.28,1.97,0.24,0.24,0.24
220.03,-1.99,-2.19,-1.99,-2.19,2.19,2.24,1.99,0.20,0.20,0.20
222.23,-1.98,-2.14,-1.98,-2.14,2.14,2.20,2.00,0.16,0.16,0.16
224.45,-1.97,-2.09,-1.97,-2.09,2.09,2.16,2.02,0.11,0.11,0.12
226.70,-1.96,-2.04,-1.96,-2.03,2.03,2.11,2.03,0.07,0.07,0.07
228.96,-1.95,-1.98,-1.95,-1.98,1.98,2.06,2.05,0.03,0.03,0.03
231.25,-1.94,-1.92,-1.94,-1.92,1.93,2.01,2.06,-0.01,-0.01,-0.02
233.57,-1.92,-1.87,-1.92,-1.87,1.88,1.95,2.07,-0.05,-0.05,-0.05
235.90,-1.91,-1.83,-1.91,-1.83,1.83,1.89,2.08,-0.08,-0.08,-0.08
238.26,-1.89,-1.78,-1.89,-1.78,1.78,1.83,2.09,-0.12,-0.12,-0.11
240.64,-1.88,-1.73,-1.88,-1.73,1.73,1.77,2.09,-0.15,-0.15,-0.15
243.05,-1.86,-1.68,-1.86,-1.68,1.68,1.71,2.09,-0.18,-0.18,-0.18
245.48,-1.85,-1.63,-1.85,-1.63,1.64,1.64,2.09,-0.21,-0.21,-0.21
247.93,-1.83,-1.59,-1.83,-1.59,1.59,1.58,2.09,-0.24,-0.24,-0.24
250.41,-1.81,-1.54,-1.81,-1.54,1.54,1.52,2.08,-0.27,-0.27,-0.27
252.92,-1.80,-1.50,-1.80,-1.50,1.50,1.46,2.07,-0.30,-0.30,-0.30
255.45,-1.78,-1.45,-1.78,-1.45,1.45,1.41,2.06,-0.33,-0.33,-0.33
258.00,-1.77,-1.40,-1.77,-1.40,1.40,1.35,2.05,-0.37,-0.37,-0.36
260.58,-1.75,-1.36,-1.75,-1.36,1.35,1.30,2.03,-0.40,-0.40,-0.39
263.19,-1.74,-1.31,-1.74,-1.31,1.31,1.25,2.02,-0.43,-0.43,-0.43
265.82,-1.72,-1.26,-1.72,-1.26,1.26,1.20,1.99,-0.46,-0.46,-0.46
268.48,-1.71,-1.21,-1.71,-1.22,1.22,1.16,1.97,-0.49,-0.49,-0.49
271.16,-1.70,-1.17,-1.70,-1.17,1.18,1.11,1.95,-0.52,-0.52,-0.52
273.87,-1.68,-1.13,-1.68,-1.13,1.13,1.07,1.92,-0.55,-0.55,-0.55
276.61,-1.67,-1.10,-1.67,-1.09,1.09,1.03,1.89,-0.58,-0.58,-0.58
279.38,-1.66,-1.05,-1.66,-1.05,1.05,1.00,1.86,-0.61,-0.61,-0.61
282.17,-1.65,-1.01,-1.65,-1.01,1.01,0.96,1.83,-0.64,-0.64,-0.64
284.99,-1.64,-0.97,-1.64,-0.97,0.98,0.93,1.80,-0.66,-0.66,-0.67
287.84,-1.63,-0.94,-1.63,-0.94,0.94,0.90,1.76,-0.69,-0.69,-0.69
290.72,-1.62,-0.91,-1.62,-0.91,0.91,0.87,1.73,-0.72,-0.72,-0.72
293.63,-1.61,-0.87,-1.61,-0.87,0.87,0.84,1.69,-0.74,-0.74,-0.74
296.57,-1.61,-0.84,-1.61,-0.84,0.84,0.82,1.66,-0.77,-0.77,-0.76
299.53,-1.60,-0.81,-1.60,-0.81,0.81,0.80,1.62,-0.79,-0.79,-0.79
302.53,-1.59,-0.78,-1.59,-0.78,0.78,0.77,1.59,-0.81,-0.81,-0.81
305.55,-1.59,-0.75,-1.59,-0.75,0.76,0.75,1.55,-0.83,-0.83,-0.83
308.61,-1.58,-0.73,-1.58,-0.73,0.73,0.73,1.51,-0.85,-0.85,-0.85
311.69,-1.58,-0.71,-1.58,-0.71,0.71,0.71,1.48,-0.88,-0.88,-0.87
314.81,-1.58,-0.68,-1.58,-0.68,0.68,0.69,1.44,-0.89,-0.89,-0.89
317.96,-1.58,-0.66,-1.58,-0.66,0.66,0.68,1.41,-0.91,-0.91,-0.91
321.14,-1.57,-0.64,-1.57,-0.64,0.64,0.66,1.37,-0.93,-0.93,-0.93
324.35,-1.57,-0.62,-1.57,-0.62,0.63,0.65,1.34,-0.95,-0.95,-0.95
327.59,-1.57,-0.61,-1.57,-0.61,0.61,0.63,1.30,-0.96,-0.96,-0.96
330.87,-1.57,-0.60,-1.57,-0.60,0.60,0.62,1.27,-0.98,-0.98,-0.98
334.18,-1.58,-0.59,-1.58,-0.59,0.58,0.61,1.24,-0.99,-0.99,-0.99
337.52,-1.58,-0.57,-1.58,-0.57,0.57,0.60,1.20,-1.01,-1.01,-1.00
340.90,-1.58,-0.56,-1.58,-0.56,0.56,0.59,1.17,-1.02,-1.02,-1.02
344.30,-1.58,-0.55,-1.58,-0.55,0.55,0.58,1.14,-1.04,-1.04,-1.04
347.75,-1.59,-0.53,-1.59,-0.53,0.53,0.57,1.11,-1.05,-1.05,-1.05
351.23,-1.59,-0.52,-1.59,-0.52,0.52,0.56,1.08,-1.07,-1.07,-1.07
354.74,-1.59,-0.51,-1.59,-0.51,0.51,0.55,1.06,-1.08,-1.08,-1.09
358.28,-1.60,-0.50,-1.60,-0.50,0.50,0.54,1.03,-1.10,-1.10,-1.10
361.87,-1.61,-0.49,-1.61,-0.49,0.49,0.54,1.00,-1.11,-1.11,-1.11
365.49,-1.61,-0.49,-1.61,-0.49,0.49,0.53,0.98,-1.12,-1.12,-1.12
369.14,-1.62,-0.48,-1.62,-0.48,0.48,0.53,0.95,-1.14,-1.14,-1.14
372.83,-1.63,-0.48,-1.63,-0.48,0.48,0.52,0.93,-1.15,-1.15,-1.15
376.56,-1.63,-0.47,-1.63,-0.47,0.47,0.52,0.90,-1.16,-1.16,-1.16
380.33,-1.64,-0.47,-1.64,-0.47,0.47,0.51,0.88,-1.17,-1.17,-1.17
384.13,-1.65,-0.47,-1.65,-0.47,0.47,0.51,0.86,-1.18,-1.18,-1.18
387.97,-1.66,-0.46,-1.66,-0.46,0.46,0.51,0.84,-1.20,-1.20,-1.20
391.85,-1.67,-0.46,-1.67,-0.46,0.46,0.51,0.82,-1.21,-1.21,-1.21
395.77,-1.68,-0.46,-1.68,-0.46,0.46,0.51,0.80,-1.22,-1.22,-1.22
399.73,-1.69,-0.46,-1.69,-0.46,0.46,0.51,0.78,-1.23,-1.23,-1.23
403.72,-1.69,-0.46,-1.69,-0.46,0.46,0.50,0.76,-1.24,-1.24,-1.24
407.76,-1.70,-0.46,-1.70,-0.46,0.46,0.51,0.75,-1.24,-1.24,-1.24
411.84,-1.71,-0.46,-1.71,-0.46,0.46,0.51,0.73,-1.25,-1.25,-1.25
415.96,-1.72,-0.47,-1.72,-0.47,0.47,0.51,0.71,-1.25,-1.25,-1.25
420.12,-1.73,-0.47,-1.73,-0.47,0.47,0.51,0.70,-1.26,-1.26,-1.26
424.32,-1.74,-0.48,-1.74,-0.48,0.48,0.51,0.68,-1.26,-1.26,-1.26
428.56,-1.75,-0.49,-1.75,-0.49,0.49,0.51,0.67,-1.26,-1.26,-1.26
432.85,-1.76,-0.50,-1.76,-0.50,0.50,0.52,0.66,-1.26,-1.26,-1.26
437.18,-1.77,-0.51,-1.77,-0.51,0.51,0.52,0.64,-1.26,-1.26,-1.26
441.55,-1.78,-0.52,-1.78,-0.52,0.52,0.53,0.63,-1.26,-1.26,-1.26
445.96,-1.79,-0.53,-1.79,-0.53,0.53,0.53,0.62,-1.26,-1.26,-1.26
450.42,-1.80,-0.55,-1.80,-0.55,0.55,0.54,0.61,-1.26,-1.26,-1.26
454.93,-1.81,-0.56,-1.81,-0.56,0.56,0.54,0.60,-1.25,-1.25,-1.25
459.48,-1.82,-0.58,-1.82,-0.58,0.58,0.55,0.59,-1.25,-1.25,-1.25
464.07,-1.83,-0.59,-1.83,-0.59,0.59,0.56,0.58,-1.24,-1.24,-1.24
468.71,-1.84,-0.61,-1.84,-0.61,0.61,0.57,0.57,-1.23,-1.23,-1.23
473.40,-1.85,-0.63,-1.85,-0.63,0.62,0.58,0.56,-1.23,-1.23,-1.23
478.13,-1.86,-0.64,-1.86,-0.64,0.64,0.59,0.56,-1.22,-1.22,-1.22
482.91,-1.87,-0.66,-1.87,-0.66,0.65,0.60,0.55,-1.21,-1.21,-1.21
487.74,-1.88,-0.67,-1.88,-0.67,0.67,0.61,0.54,-1.21,-1.21,-1.21
492.62,-1.88,-0.68,-1.89,-0.68,0.68,0.62,0.54,-1.20,-1.20,-1.20
497.55,-1.89,-0.70,-1.89,-0.70,0.70,0.63,0.53,-1.20,-1.20,-1.20
502.52,-1.90,-0.71,-1.90,-0.71,0.71,0.64,0.53,-1.19,-1.19,-1.19
507.55,-1.91,-0.73,-1.91,-0.73,0.73,0.66,0.53,-1.18,-1.18,-1.18
512.62,-1.92,-0.74,-1.92,-0.74,0.74,0.67,0.52,-1.18,-1.18,-1.18
517.75,-1.92,-0.75,-1.92,-0.75,0.75,0.68,0.52,-1.17,-1.17,-1.17
522.93,-1.93,-0.76,-1.93,-0.76,0.76,0.70,0.52,-1.16,-1.16,-1.16
528.16,-1.93,-0.77,-1.93,-0.78,0.78,0.71,0.52,-1.16,-1.16,-1.16
