frequency,raw,error,smoothed,error_smoothed,equalization,parametric_eq,fixed_band_eq,equalized_raw,equalized_smoothed,target
20.00,6.92,1.22,6.92,1.22,-1.23,0.12,-0.11,5.70,5.69,5.70
20.20,6.92,1.19,6.92,1.19,-1.19,0.13,-0.12,5.72,5.73,5.73
20.40,6.91,1.16,6.91,1.16,-1.16,0.13,-0.12,5.75,5.75,5.75
20.61,6.90,1.13,6.90,1.13,-1.12,0.13,-0.13,5.78,5.77,5.77
20.81,6.88,1.09,6.88,1.09,-1.09,0.14,-0.13,5.79,5.79,5.79
21.02,6.86,1.06,6.86,1.06,-1.06,0.14,-0.14,5.80,5.81,5.80
21.23,6.84,1.03,6.84,1.03,-1.03,0.14,-0.14,5.82,5.82,5.81
21.44,6.82,1.00,6.82,0.99,-0.99,0.14,-0.15,5.82,5.82,5.82
21.66,6.80,0.96,6.80,0.96,-0.96,0.15,-0.15,5.83,5.83,5.83
21.87,6.77,0.93,6.77,0.93,-0.93,0.15,-0.16,5.84,5.84,5.84
22.09,6.75,0.90,6.75,0.90,-0.90,0.15,-0.17,5.84,5.84,5.84
22.31,6.72,0.88,6.72,0.88,-0.88,0.16,-0.17,5.84,5.84,5.84
22.54,6.69,0.85,6.69,0.85,-0.85,0.16,-0.18,5.84,5.84,5.84
22.76,6.67,0.83,6.67,0.83,-0.83,0.16,-0.19,5.84,5.84,5.84
22.99,6.64,0.81,6.64,0.81,-0.81,0.17,-0.19,5.83,5.83,5.83
23.22,6.62,0.80,6.62,0.80,-0.80,0.17,-0.20,5.82,5.82,5.82
23.45,6.60,0.78,6.60,0.78,-0.78,0.17,-0.21,5.81,5.81,5.81
23.69,6.58,0.78,6.58,0.78,-0.78,0.18,-0.21,5.80,5.80,5.80
23.92,6.57,0.77,6.57,0.77,-0.78,0.18,-0.22,5.79,5.79,5.80
24.16,6.56,0.78,6.56,0.78,-0.78,0.19,-0.23,5.78,5.78,5.79
24.40,6.57,0.78,6.57,0.78,-0.79,0.19,-0.24,5.77,5.77,5.78
24.65,6.57,0.79,6.57,0.79,-0.80,0.19,-0.24,5.77,5.77,5.78
24.89,6.59,0.81,6.59,0.81,-0.82,0.20,-0.25,5.76,5.77,5.77
25.14,6.60,0.83,6.60,0.83,-0.84,0.20,-0.26,5.77,5.77,5.77
25.39,6.62,0.85,6.62,0.85,-0.85,0.21,-0.26,5.77,5.77,5.77
25.65,6.64,0.86,6.64,0.86,-0.86,0.21,-0.27,5.79,5.79,5.78
25.91,6.65,0.87,6.65,0.87,-0.85,0.22,-0.28,5.80,5.80,5.79
26.16,6.66,0.86,6.65,0.85,-0.84,0.22,-0.29,5.82,5.82,5.80
26.43,6.64,0.83,6.64,0.82,-0.81,0.22,-0.29,5.84,5.83,5.82
26.69,6.61,0.78,6.61,0.78,-0.76,0.23,-0.30,5.85,5.85,5.84
26.96,6.57,0.72,6.57,0.72,-0.71,0.23,-0.30,5.86,5.86,5.85
27.23,6.52,0.65,6.52,0.65,-0.65,0.24,-0.31,5.87,5.87,5.87
27.50,6.46,0.57,6.46,0.57,-0.58,0.24,-0.31,5.88,5.88,5.89
27.77,6.40,0.50,6.40,0.50,-0.51,0.25,-0.32,5.89,5.89,5.90
28.05,6.34,0.43,6.34,0.43,-0.44,0.26,-0.32,5.90,5.90,5.91
28.33,6.29,0.37,6.29,0.37,-0.38,0.26,-0.32,5.91,5.91,5.91
28.62,6.24,0.32,6.24,0.32,-0.32,0.27,-0.32,5.92,5.92,5.92
28.90,6.19,0.27,6.19,0.27,-0.26,0.27,-0.32,5.93,5.93,5.92
29.19,6.15,0.22,6.14,0.22,-0.21,0.28,-0.32,5.93,5.93,5.93
29.48,6.10,0.17,6.10,0.17,-0.17,0.28,-0.32,5.93,5.93,5.93
29.78,6.07,0.13,6.07,0.13,-0.13,0.29,-0.32,5.94,5.93,5.93
30.08,6.03,0.10,6.03,0.10,-0.10,0.30,-0.31,5.93,5.93,5.94
30.38,6.01,0.07,6.01,0.07,-0.08,0.30,-0.30,5.93,5.93,5.94
30.68,5.99,0.05,5.99,0.05,-0.06,0.31,-0.30,5.92,5.92,5.94
30.99,5.97,0.04,5.97,0.04,-0.05,0.32,-0.29,5.92,5.92,5.93
31.30,5.97,0.04,5.97,0.04,-0.05,0.32,-0.28,5.92,5.92,5.92
31.61,5.96,0.04,5.96,0.04,-0.04,0.33,-0.27,5.92,5.92,5.91
31.93,5.95,0.05,5.95,0.04,-0.03,0.34,-0.25,5.92,5.92,5.90
32.24,5.93,0.04,5.93,0.03,-0.01,0.35,-0.24,5.91,5.91,5.89
32.57,5.90,0.02,5.89,0.01,0.00,0.35,-0.22,5.90,5.90,5.88
32.89,5.85,-0.02,5.85,-0.02,0.02,0.36,-0.21,5.87,5.87,5.87
33.22,5.81,-0.05,5.81,-0.05,0.04,0.37,-0.19,5.85,5.85,5.86
33.55,5.76,-0.08,5.77,-0.08,0.06,0.38,-0.17,5.82,5.82,5.85
33.89,5.73,-0.10,5.74,-0.10,0.07,0.39,-0.15,5.81,5.81,5.84
34.23,5.72,-0.11,5.72,-0.11,0.09,0.40,-0.13,5.81,5.81,5.83
34.57,5.71,-0.11,5.72,-0.10,0.10,0.41,-0.10,5.81,5.82,5.82
34.92,5.71,-0.10,5.71,-0.10,0.12,0.42,-0.08,5.83,5.83,5.82
35.27,5.70,-0.11,5.70,-0.11,0.14,0.42,-0.05,5.84,5.84,5.81
35.62,5.68,-0.13,5.67,-0.13,0.17,0.43,-0.03,5.84,5.84,5.81
35.97,5.63,-0.17,5.63,-0.18,0.20,0.44,-0.00,5.84,5.83,5.81
36.33,5.57,-0.24,5.57,-0.24,0.25,0.45,0.03,5.82,5.82,5.80
36.70,5.50,-0.30,5.50,-0.30,0.30,0.47,0.06,5.80,5.80,5.80
37.06,5.43,-0.36,5.43,-0.36,0.35,0.48,0.09,5.78,5.78,5.80
37.43,5.38,-0.42,5.38,-0.42,0.39,0.49,0.12,5.76,5.77,5.79
37.81,5.34,-0.45,5.34,-0.45,0.42,0.50,0.15,5.76,5.76,5.79
38.19,5.31,-0.48,5.32,-0.47,0.45,0.51,0.18,5.76,5.76,5.79
38.57,5.30,-0.48,5.30,-0.48,0.46,0.52,0.21,5.77,5.77,5.78
38.95,5.30,-0.47,5.30,-0.47,0.47,0.53,0.25,5.77,5.77,5.77
39.34,5.29,-0.47,5.29,-0.47,0.49,0.55,0.28,5.77,5.77,5.76
39.74,5.26,-0.48,5.26,-0.48,0.51,0.56,0.31,5.77,5.77,5.74
40.14,5.22,-0.50,5.22,-0.50,0.54,0.57,0.35,5.76,5.76,5.73
40.54,5.17,-0.55,5.16,-0.55,0.58,0.59,0.38,5.74,5.74,5.71
40.94,5.09,-0.61,5.09,-0.61,0.63,0.60,0.42,5.72,5.72,5.70
41.35,5.01,-0.69,5.01,-0.69,0.69,0.62,0.45,5.69,5.69,5.69
41.76,4.92,-0.76,4.92,-0.76,0.75,0.63,0.49,5.67,5.67,5.68
42.18,4.85,-0.82,4.85,-0.82,0.80,0.65,0.53,5.65,5.65,5.67
42.60,4.79,-0.87,4.79,-0.87,0.84,0.66,0.57,5.63,5.63,5.66
43.03,4.75,-0.90,4.75,-0.90,0.87,0.68,0.60,5.62,5.62,5.65
43.46,4.73,-0.90,4.73,-0.90,0.89,0.70,0.64,5.62,5.62,5.63
43.90,4.72,-0.90,4.72,-0.90,0.89,0.71,0.68,5.61,5.61,5.62
44.33,4.72,-0.88,4.72,-0.88,0.88,0.73,0.72,5.61,5.61,5.61
44.78,4.73,-0.86,4.73,-0.87,0.87,0.75,0.76,5.60,5.60,5.59
45.23,4.73,-0.85,4.73,-0.85,0.86,0.77,0.80,5.59,5.59,5.58
45.68,4.72,-0.85,4.72,-0.85,0.86,0.79,0.84,5.58,5.58,5.57
46.13,4.70,-0.85,4.70,-0.85,0.86,0.81,0.88,5.56,5.56,5.55
46.60,4.67,-0.87,4.67,-0.87,0.88,0.83,0.93,5.55,5.55,5.54
47.06,4.62,-0.90,4.62,-0.90,0.91,0.85,0.97,5.53,5.53,5.52
47.53,4.56,-0.94,4.56,-0.94,0.96,0.87,1.01,5.52,5.52,5.50
48.01,4.49,-1.00,4.49,-1.00,1.01,0.89,1.06,5.50,5.50,5.49
48.49,4.41,-1.07,4.41,-1.07,1.07,0.92,1.10,5.48,5.48,5.47
48.97,4.32,-1.14,4.32,-1.14,1.13,0.94,1.14,5.45,5.45,5.46
49.46,4.24,-1.21,4.24,-1.21,1.20,0.96,1.19,5.43,5.43,5.45
49.96,4.16,-1.28,4.16,-1.27,1.26,0.99,1.23,5.42,5.42,5.44
50.46,4.09,-1.33,4.09,-1.33,1.32,1.02,1.28,5.41,5.41,5.42
50.96,4.03,-1.37,4.03,-1.37,1.37,1.04,1.32,5.40,5.40,5.41
51.47,3.98,-1.42,3.98,-1.42,1.42,1.07,1.37,5.40,5.40,5.39
51.99,3.92,-1.46,3.92,-1.46,1.47,1.10,1.41,5.39,5.39,5.38
52.51,3.86,-1.50,3.86,-1.50,1.52,1.13,1.46,5.37,5.37,5.36
53.03,3.80,-1.55,3.80,-1.55,1.56,1.16,1.50,5.35,5.35,5.34
53.56,3.73,-1.60,3.73,-1.60,1.60,1.19,1.55,5.33,5.32,5.33
54.10,3.66,-1.64,3.66,-1.64,1.63,1.23,1.59,5.29,5.29,5.31
54.64,3.61,-1.68,3.61,-1.68,1.66,1.26,1.64,5.26,5.27,5.29
55.18,3.56,-1.71,3.56,-1.70,1.69,1.29,1.68,5.24,5.25,5.27
55.74,3.53,-1.71,3.53,-1.71,1.71,1.33,1.72,5.24,5.24,5.24
56.29,3.50,-1.72,3.50,-1.72,1.73,1.37,1.76,5.23,5.23,5.22
56.86,3.48,-1.73,3.47,-1.73,1.75,1.40,1.80,5.23,5.23,5.20
57.42,3.43,-1.75,3.43,-1.75,1.78,1.44,1.84,5.21,5.21,5.19
58.00,3.38,-1.78,3.38,-1.78,1.80,1.48,1.88,5.18,5.18,5.17
58.58,3.33,-1.82,3.33,-1.82,1.81,1.53,1.91,5.14,5.14,5.15
59.16,3.28,-1.85,3.28,-1.85,1.83,1.57,1.95,5.11,5.11,5.13
59.76,3.24,-1.88,3.24,-1.87,1.85,1.61,1.98,5.09,5.09,5.11
60.35,3.21,-1.89,3.21,-1.88,1.87,1.66,2.01,5.07,5.07,5.09
60.96,3.19,-1.89,3.19,-1.88,1.88,1.70,2.04,5.07,5.07,5.07
61.57,3.17,-1.88,3.17,-1.88,1.89,1.75,2.07,5.06,5.06,5.05
62.18,3.14,-1.89,3.14,-1.89,1.91,1.80,2.10,5.05,5.05,5.03
62.80,3.09,-1.91,3.09,-1.91,1.93,1.85,2.12,5.02,5.02,5.00
63.43,3.03,-1.95,3.03,-1.95,1.95,1.90,2.15,4.98,4.98,4.98
64.07,2.96,-1.99,2.97,-1.99,1.99,1.95,2.17,4.95,4.95,4.95
64.71,2.89,-2.03,2.90,-2.03,2.03,2.01,2.19,4.92,4.92,4.93
65.35,2.82,-2.07,2.83,-2.07,2.08,2.06,2.21,4.90,4.90,4.90
66.01,2.75,-2.12,2.75,-2.12,2.13,2.11,2.22,4.89,4.89,4.87
66.67,2.67,-2.18,2.67,-2.18,2.19,2.17,2.24,4.86,4.86,4.85
67.33,2.58,-2.24,2.58,-2.24,2.24,2.22,2.25,4.82,4.82,4.82
68.01,2.49,-2.31,2.49,-2.30,2.29,2.28,2.27,4.78,4.78,4.80
68.69,2.42,-2.36,2.42,-2.36,2.33,2.33,2.28,4.74,4.74,4.77
69.37,2.36,-2.39,2.36,-2.39,2.36,2.39,2.29,4.72,4.72,4.75
70.07,2.32,-2.41,2.32,-2.40,2.39,2.44,2.30,4.71,4.72,4.73
70.77,2.29,-2.41,2.29,-2.41,2.43,2.50,2.31,4.72,4.72,4.70
71.48,2.25,-2.42,2.25,-2.43,2.46,2.55,2.33,4.71,4.71,4.68
72.19,2.20,-2.45,2.19,-2.46,2.49,2.60,2.34,4.69,4.68,4.65
72.91,2.12,-2.50,2.12,-2.50,2.52,2.65,2.35,4.64,4.64,4.62
73.64,2.04,-2.56,2.04,-2.56,2.55,2.70,2.36,4.59,4.59,4.59
74.38,1.96,-2.61,1.96,-2.61,2.58,2.75,2.37,4.54,4.54,4.57
75.12,1.89,-2.65,1.89,-2.65,2.62,2.79,2.39,4.51,4.51,4.54
75.87,1.84,-2.67,1.84,-2.67,2.66,2.84,2.40,4.50,4.50,4.51
76.63,1.80,-2.69,1.80,-2.69,2.69,2.88,2.41,4.49,4.49,4.48
77.40,1.75,-2.70,1.75,-2.71,2.72,2.91,2.43,4.48,4.47,4.45
78.17,1.69,-2.74,1.69,-2.74,2.75,2.95,2.45,4.44,4.44,4.43
78.95,1.62,-2.78,1.62,-2.78,2.78,2.98,2.47,4.40,4.40,4.40
79.74,1.55,-2.82,1.55,-2.82,2.81,3.01,2.49,4.36,4.36,4.37
80.54,1.48,-2.86,1.48,-2.86,2.85,3.04,2.51,4.33,4.33,4.34
81.35,1.42,-2.89,1.42,-2.89,2.88,3.07,2.53,4.30,4.30,4.31
82.16,1.36,-2.92,1.36,-2.92,2.92,3.09,2.56,4.28,4.28,4.28
82.98,1.29,-2.96,1.29,-2.96,2.96,3.11,2.59,4.25,4.25,4.25
83.81,1.22,-3.00,1.22,-3.00,3.00,3.13,2.62,4.22,4.22,4.22
84.65,1.15,-3.03,1.15,-3.03,3.04,3.15,2.65,4.19,4.19,4.18
85.50,1.08,-3.07,1.08,-3.07,3.08,3.16,2.68,4.16,4.16,4.15
86.35,1.01,-3.11,1.01,-3.11,3.11,3.18,2.72,4.12,4.12,4.12
87.22,0.94,-3.15,0.94,-3.15,3.15,3.19,2.76,4.09,4.09,4.09
88.09,0.87,-3.19,0.87,-3.19,3.18,3.20,2.80,4.05,4.05,4.06
88.97,0.80,-3.22,0.80,-3.22,3.21,3.21,2.84,4.02,4.02,4.02
89.86,0.74,-3.25,0.74,-3.25,3.24,3.22,2.89,3.98,3.98,3.99
90.76,0.69,-3.27,0.69,-3.27,3.26,3.23,2.93,3.95,3.95,3.95
91.66,0.63,-3.29,0.63,-3.29,3.29,3.25,2.98,3.92,3.92,3.92
92.58,0.58,-3.30,0.58,-3.30,3.31,3.26,3.03,3.89,3.89,3.88
93.51,0.52,-3.33,0.52,-3.33,3.33,3.27,3.09,3.85,3.85,3.84
94.44,0.46,-3.35,0.46,-3.35,3.36,3.28,3.14,3.81,3.81,3.81
95.39,0.39,-3.38,0.39,-3.38,3.39,3.29,3.20,3.78,3.78,3.77
96.34,0.32,-3.41,0.32,-3.41,3.41,3.31,3.26,3.74,3.74,3.74
97.30,0.26,-3.45,0.26,-3.45,3.44,3.32,3.32,3.70,3.70,3.70
98.28,0.19,-3.48,0.19,-3.48,3.48,3.34,3.38,3.67,3.67,3.67
99.26,0.13,-3.51,0.13,-3.51,3.51,3.36,3.44,3.63,3.63,3.64
100.25,0.06,-3.54,0.06,-3.54,3.54,3.37,3.51,3.60,3.60,3.60
101.25,0.00,-3.57,0.00,-3.57,3.57,3.39,3.57,3.57,3.57,3.57
102.27,-0.06,-3.60,-0.06,-3.60,3.60,3.41,3.64,3.54,3.53,3.54
103.29,-0.12,-3.62,-0.12,-3.62,3.62,3.43,3.71,3.50,3.50,3.50
104.32,-0.19,-3.65,-0.19,-3.65,3.65,3.46,3.78,3.46,3.46,3.47
105.37,-0.24,-3.67,-0.24,-3.67,3.67,3.48,3.84,3.43,3.43,3.43
106.42,-0.30,-3.70,-0.30,-3.70,3.69,3.50,3.91,3.39,3.39,3.39
107.48,-0.36,-3.72,-0.36,-3.72,3.72,3.53,3.98,3.36,3.36,3.36
108.56,-0.42,-3.74,-0.42,-3.74,3.74,3.55,4.04,3.32,3.32,3.32
109.64,-0.47,-3.76,-0.47,-3.76,3.77,3.58,4.10,3.29,3.29,3.29
110.74,-0.53,-3.78,-0.53,-3.78,3.79,3.60,4.17,3.26,3.26,3.25
111.85,-0.59,-3.81,-0.59,-3.81,3.82,3.63,4.22,3.22,3.22,3.22
112.97,-0.66,-3.84,-0.66,-3.84,3.84,3.66,4.28,3.19,3.19,3.18
114.10,-0.72,-3.87,-0.72,-3.87,3.87,3.69,4.33,3.15,3.15,3.15
115.24,-0.78,-3.89,-0.78,-3.89,3.89,3.71,4.38,3.11,3.11,3.11
116.39,-0.84,-3.92,-0.84,-3.92,3.91,3.74,4.43,3.07,3.07,3.08
117.55,-0.89,-3.93,-0.89,-3.93,3.92,3.77,4.47,3.03,3.03,3.04
118.73,-0.93,-3.94,-0.93,-3.94,3.93,3.80,4.50,3.00,3.00,3.01
119.92,-0.97,-3.94,-0.97,-3.94,3.94,3.82,4.53,2.97,2.97,2.97
121.12,-1.01,-3.94,-1.01,-3.94,3.94,3.85,4.56,2.94,2.94,2.93
122.33,-1.04,-3.93,-1.04,-3.94,3.94,3.88,4.57,2.90,2.90,2.89
123.55,-1.08,-3.93,-1.08,-3.94,3.94,3.90,4.59,2.86,2.86,2.85
124.79,-1.12,-3.94,-1.12,-3.94,3.94,3.93,4.59,2.82,2.82,2.81
126.03,-1.17,-3.94,-1.17,-3.94,3.94,3.95,4.60,2.77,2.77,2.77
127.29,-1.21,-3.94,-1.21,-3.94,3.94,3.97,4.59,2.73,2.73,2.73
128.57,-1.25,-3.94,-1.25,-3.94,3.94,3.99,4.58,2.69,2.69,2.69
129.85,-1.28,-3.94,-1.28,-3.94,3.94,4.01,4.56,2.66,2.66,2.66
131.15,-1.32,-3.94,-1.32,-3.94,3.94,4.03,4.54,2.63,2.63,2.62
132.46,-1.36,-3.94,-1.36,-3.94,3.95,4.05,4.51,2.59,2.59,2.58
133.79,-1.40,-3.95,-1.40,-3.94,3.95,4.07,4.48,2.55,2.55,2.55
135.12,-1.44,-3.95,-1.44,-3.95,3.95,4.08,4.44,2.51,2.51,2.51
136.48,-1.49,-3.96,-1.49,-3.96,3.95,4.09,4.40,2.47,2.47,2.47
137.84,-1.53,-3.96,-1.53,-3.96,3.95,4.10,4.35,2.42,2.42,2.43
139.22,-1.57,-3.96,-1.57,-3.96,3.95,4.11,4.30,2.38,2.38,2.39
140.61,-1.61,-3.95,-1.61,-3.95,3.95,4.12,4.25,2.34,2.34,2.34
142.02,-1.65,-3.95,-1.65,-3.95,3.94,4.12,4.20,2.30,2.30,2.30
143.44,-1.69,-3.94,-1.68,-3.94,3.94,4.12,4.14,2.25,2.25,2.25
144.87,-1.72,-3.93,-1.72,-3.93,3.93,4.12,4.08,2.21,2.21,2.21
146.32,-1.76,-3.92,-1.76,-3.92,3.93,4.12,4.02,2.17,2.17,2.17
147.78,-1.79,-3.92,-1.79,-3.92,3.92,4.12,3.96,2.13,2.13,2.13
149.26,-1.83,-3.92,-1.83,-3.92,3.92,4.11,3.90,2.09,2.09,2.09
150.75,-1.87,-3.92,-1.87,-3.92,3.92,4.10,3.84,2.05,2.05,2.04
152.26,-1.91,-3.92,-1.91,-3.92,3.92,4.09,3.78,2.00,2.00,2.00
153.78,-1.95,-3.92,-1.95,-3.92,3.91,4.08,3.72,1.96,1.96,1.96
155.32,-1.99,-3.91,-1.99,-3.91,3.91,4.06,3.66,1.91,1.91,1.92
156.88,-2.03,-3.91,-2.03,-3.91,3.90,4.05,3.60,1.87,1.87,1.88
158.44,-2.07,-3.90,-2.07,-3.90,3.90,4.03,3.55,1.83,1.83,1.83
160.03,-2.10,-3.89,-2.10,-3.89,3.89,4.01,3.49,1.79,1.79,1.79
161.63,-2.14,-3.88,-2.14,-3.88,3.88,3.98,3.44,1.74,1.74,1.74
163.24,-2.17,-3.87,-2.17,-3.87,3.87,3.96,3.39,1.70,1.70,1.70
164.88,-2.21,-3.86,-2.21,-3.86,3.87,3.94,3.34,1.66,1.66,1.65
166.53,-2.25,-3.85,-2.25,-3.85,3.86,3.91,3.29,1.61,1.61,1.61
168.19,-2.28,-3.85,-2.28,-3.85,3.85,3.88,3.24,1.57,1.57,1.57
169.87,-2.32,-3.84,-2.31,-3.84,3.84,3.85,3.20,1.52,1.52,1.53
171.57,-2.34,-3.83,-2.34,-3.83,3.82,3.82,3.16,1.48,1.48,1.49
173.29,-2.37,-3.81,-2.37,-3.81,3.81,3.79,3.12,1.44,1.44,1.45
175.02,-2.39,-3.79,-2.39,-3.79,3.79,3.76,3.09,1.40,1.40,1.41
176.77,-2.40,-3.77,-2.40,-3.77,3.77,3.72,3.05,1.36,1.36,1.36
178.54,-2.42,-3.74,-2.42,-3.74,3.74,3.69,3.02,1.32,1.32,1.32
180.32,-2.44,-3.72,-2.44,-3.72,3.72,3.65,2.99,1.28,1.28,1.28
182.13,-2.46,-3.69,-2.46,-3.69,3.69,3.62,2.97,1.24,1.24,1.23
183.95,-2.48,-3.67,-2.48,-3.67,3.67,3.58,2.94,1.19,1.19,1.19
185.79,-2.50,-3.64,-2.50,-3.65,3.65,3.55,2.92,1.15,1.15,1.15
187.65,-2.52,-3.62,-2.52,-3.62,3.62,3.51,2.90,1.10,1.11,1.10
189.52,-2.53,-3.60,-2.53,-3.60,3.60,3.48,2.88,1.07,1.07,1.06
191.42,-2.55,-3.57,-2.55,-3.57,3.58,3.44,2.87,1.03,1.03,1.02
193.33,-2.56,-3.55,-2.56,-3.55,3.55,3.41,2.85,0.98,0.98,0.98
195.27,-2.57,-3.52,-2.58,-3.52,3.52,3.37,2.84,0.94,0.94,0.95
197.22,-2.58,-3.49,-2.58,-3.49,3.48,3.34,2.83,0.90,0.90,0.91
199.19,-2.58,-3.45,-2.58,-3.45,3.44,3.30,2.82,0.86,0.86,0.87
201.18,-2.57,-3.40,-2.57,-3.40,3.40,3.27,2.82,0.82,0.82,0.83
203.19,-2.56,-3.35,-2.56,-3.35,3.35,3.23,2.81,0.79,0.79,0.79
205.23,-2.54,-3.29,-2.54,-3.29,3.30,3.20,2.80,0.76,0.76,0.75
207.28,-2.53,-3.24,-2.53,-3.24,3.25,3.16,2.80,0.72,0.72,0.71
209.35,-2.52,-3.19,-2.52,-3.19,3.20,3.13,2.80,0.68,0.68,0.68
211.44,-2.51,-3.15,-2.51,-3.15,3.15,3.09,2.80,0.64,0.64,0.64
213.56,-2.50,-3.10,-2.50,-3.10,3.10,3.06,2.79,0.60,0.60,0.60
215.69,-2.48,-3.05,-2.48,-3.05,3.05,3.03,2.79,0.56,0.56,0.57
217.85,-2.47,-3.01,-2.47,-3.00,3.00,2.99,2.79,0.53,0.53,0.53
220.03,-2.46,-2.95,-2.46,-2.95,2.95,2.96,2.79,0.49,0.49,0.50
222.23,-2.44,-2.90,-2.44,-2.90,2.90,2.92,2.78,0.46,0.46,0.46
224.45,-2.43,-2.85,-2.43,-2.85,2.86,2.89,2.78,0.43,0.43,0.42
226.70,-2.42,-2.80,-2.43,-2.81,2.81,2.85,2.77,0.39,0.39,0.38
228.96,-2.43,-2.77,-2.43,-2.77,2.77,2.81,2.76,0.35,0.35,0.34
231.25,-2.43,-2.73,-2.43,-2.73,2.73,2.77,2.75,0.30,0.30,0.30
233.57,-2.44,-2.70,-2.44,-2.70,2.69,2.73,2.74,0.25,0.25,0.25
235.90,-2.45,-2.66,-2.45,-2.66,2.66,2.69,2.73,0.21,0.21,0.21
238.26,-2.45,-2.62,-2.45,-2.62,2.62,2.65,2.71,0.16,0.16,0.17
240.64,-2.46,-2.58,-2.46,-2.58,2.58,2.60,2.69,0.12,0.12,0.12
243.05,-2.46,-2.54,-2.46,-2.54,2.53,2.55,2.67,0.08,0.08,0.08
245.48,-2.45,-2.49,-2.45,-2.49,2.48,2.50,2.65,0.03,0.03,0.03
247.93,-2.45,-2.44,-2.45,-2.44,2.43,2.45,2.62,-0.02,-0.02,-0.01
250.41,-2.45,-2.38,-2.44,-2.38,2.38,2.40,2.59,-0.06,-0.06,-0.06
252.92,-2.44,-2.33,-2.44,-2.33,2.33,2.35,2.55,-0.11,-0.11,-0.11
255.45,-2.43,-2.27,-2.43,-2.27,2.27,2.29,2.52,-0.16,-0.16,-0.16
258.00,-2.42,-2.21,-2.42,-2.21,2.22,2.24,2.47,-0.20,-0.20,-0.21
260.58,-2.41,-2.16,-2.41,-2.16,2.16,2.18,2.43,-0.25,-0.25,-0.26
263.19,-2.41,-2.10,-2.41,-2.10,2.10,2.12,2.38,-0.31,-0.31,-0.31
265.82,-2.40,-2.05,-2.40,-2.05,2.04,2.05,2.33,-0.36,-0.36,-0.36
268.48,-2.40,-1.99,-2.40,-1.99,1.99,1.99,2.28,-0.41,-0.41,-0.41
271.16,-2.39,-1.93,-2.39,-1.93,1.93,1.93,2.22,-0.46,-0.46,-0.46
273.87,-2.38,-1.87,-2.38,-1.87,1.87,1.87,2.16,-0.50,-0.50,-0.51
276.61,-2.37,-1.81,-2.37,-1.81,1.82,1.80,2.10,-0.55,-0.55,-0.56
279.38,-2.36,-1.76,-2.36,-1.76,1.76,1.74,2.04,-0.61,-0.61,-0.61
282.17,-2.36,-1.70,-2.36,-1.70,1.70,1.67,1.97,-0.66,-0.66,-0.66
284.99,-2.36,-1.65,-2.36,-1.64,1.64,1.61,1.91,-0.72,-0.71,-0.71
287.84,-2.35,-1.59,-2.35,-1.59,1.59,1.55,1.84,-0.77,-0.77,-0.77
290.72,-2.35,-1.53,-2.35,-1.53,1.53,1.48,1.77,-0.82,-0.82,-0.82
293.63,-2.34,-1.47,-2.34,-1.47,1.47,1.42,1.69,-0.87,-0.87,-0.87
296.57,-2.33,-1.41,-2.33,-1.41,1.41,1.35,1.62,-0.92,-0.92,-0.92
299.53,-2.32,-1.35,-2.32,-1.35,1.34,1.29,1.55,-0.98,-0.97,-0.97
302.53,-2.31,-1.28,-2.31,-1.28,1.28,1.23,1.47,-1.02,-1.02,-1.03
305.55,-2.29,-1.21,-2.29,-1.21,1.22,1.17,1.40,-1.07,-1.07,-1.08
308.61,-2.28,-1.15,-2.28,-1.15,1.16,1.10,1.32,-1.13,-1.13,-1.13
311.69,-2.27,-1.09,-2.27,-1.09,1.09,1.04,1.25,-1.18,-1.18,-1.18
314.81,-2.27,-1.03,-2.27,-1.03,1.03,0.98,1.17,-1.24,-1.24,-1.24
317.96,-2.26,-0.97,-2.26,-0.97,0.97,0.92,1.10,-1.29,-1.29,-1.29
321.14,-2.26,-0.91,-2.26,-0.91,0.91,0.86,1.02,-1.35,-1.35,-1.34
324.35,-2.25,-0.85,-2.25,-0.85,0.84,0.80,0.94,-1.40,-1.40,-1.40
327.59,-2.23,-0.79,-2.23,-0.79,0.78,0.74,0.87,-1.45,-1.45,-1.45
330.87,-2.22,-0.72,-2.22,-0.72,0.72,0.69,0.79,-1.50,-1.50,-1.50
334.18,-2.20,-0.65,-2.20,-0.65,0.66,0.63,0.71,-1.55,-1.55,-1.55
337.52,-2.19,-0.59,-2.19,-0.59,0.60,0.57,0.64,-1.60,-1.60,-1.60
340.90,-2.18,-0.53,-2.18,-0.53,0.53,0.51,0.56,-1.65,-1.65,-1.65
344.30,-2.18,-0.47,-2.18,-0.47,0.47,0.45,0.49,-1.70,-1.70,-1.70
347.75,-2.17,-0.41,-2.17,-0.41,0.41,0.39,0.41,-1.76,-1.76,-1.76
351.23,-2.16,-0.36,-2.16,-0.35,0.35,0.34,0.33,-1.82,-1.81,-1.81
354.74,-2.15,-0.29,-2.15,-0.29,0.28,0.28,0.26,-1.87,-1.87,-1.86
358.28,-2.14,-0.22,-2.14,-0.22,0.22,0.22,0.18,-1.92,-1.92,-1.91
361.87,-2.12,-0.15,-2.12,-0.15,0.15,0.16,0.11,-1.97,-1.97,-1.97
365.49,-2.11,-0.08,-2.11,-0.08,0.09,0.11,0.03,-2.02,-2.02,-2.02
369.14,-2.09,-0.02,-2.09,-0.02,0.02,0.05,-0.04,-2.07,-2.07,-2.08
372.83,-2.09,0.05,-2.09,0.05,-0.04,-0.01,-0.12,-2.13,-2.13,-2.13
376.56,-2.08,0.11,-2.08,0.11,-0.11,-0.07,-0.19,-2.19,-2.19,-2.19
380.33,-2.07,0.17,-2.07,0.17,-0.17,-0.13,-0.26,-2.24,-2.24,-2.24
384.13,-2.07,0.23,-2.07,0.23,-0.23,-0.19,-0.34,-2.30,-2.30,-2.30
387.97,-2.06,0.29,-2.06,0.29,-0.29,-0.24,-0.41,-2.35,-2.35,-2.35
391.85,-2.05,0.35,-2.05,0.35,-0.35,-0.30,-0.48,-2.41,-2.41,-2.41
395.77,-2.05,0.42,-2.05,0.41,-0.42,-0.36,-0.56,-2.46,-2.46,-2.46
399.73,-2.04,0.48,-2.04,0.48,-0.48,-0.42,-0.63,-2.52,-2.52,-2.51
403.72,-2.03,0.54,-2.03,0.54,-0.54,-0.48,-0.70,-2.57,-2.57,-2.57
407.76,-2.02,0.60,-2.02,0.60,-0.60,-0.54,-0.77,-2.62,-2.62,-2.62
411.84,-2.01,0.66,-2.01,0.66,-0.66,-0.60,-0.84,-2.67,-2.67,-2.67
415.96,-2.00,0.73,-2.00,0.73,-0.73,-0.66,-0.91,-2.72,-2.72,-2.72
420.12,-1.98,0.79,-1.99,0.79,-0.79,-0.73,-0.97,-2.77,-2.77,-2.77
424.32,-1.98,0.85,-1.98,0.85,-0.85,-0.79,-1.04,-2.82,-2.82,-2.82
428.56,-1.97,0.91,-1.97,0.91,-0.90,-0.85,-1.10,-2.87,-2.87,-2.87
432.85,-1.96,0.96,-1.96,0.96,-0.96,-0.91,-1.17,-2.92,-2.92,-2.92
437.18,-1.95,1.02,-1.95,1.02,-1.02,-0.97,-1.23,-2.97,-2.97,-2.97
441.55,-1.95,1.07,-1.95,1.07,-1.07,-1.03,-1.29,-3.02,-3.02,-3.02
445.96,-1.94,1.12,-1.94,1.12,-1.12,-1.09,-1.34,-3.06,-3.06,-3.06
450.42,-1.93,1.17,-1.93,1.17,-1.17,-1.14,-1.40,-3.11,-3.11,-3.10
454.93,-1.92,1.22,-1.92,1.22,-1.22,-1.20,-1.45,-3.15,-3.15,-3.14
459.48,-1.91,1.27,-1.91,1.27,-1.27,-1.26,-1.49,-3.19,-3.19,-3.18
464.07,-1.90,1.32,-1.90,1.32,-1.32,-1.31,-1.54,-3.22,-3.22,-3.22
468.71,-1.89,1.37,-1.89,1.37,-1.37,-1.37,-1.58,-3.26,-3.26,-3.26
473.40,-1.88,1.42,-1.88,1.42,-1.41,-1.42,-1.62,-3.29,-3.29,-3.30
478.13,-1.87,1.46,-1.87,1.46,-1.46,-1.47,-1.65,-3.33,-3.33,-3.33
482.91,-1.86,1.50,-1.86,1.50,-1.50,-1.52,-1.68,-3.36,-3.36,-3.36
487.74,-1.86,1.53,-1.86,1.53,-1.53,-1.56,-1.71,-3.39,-3.39,-3.39
492.62,-1.85,1.57,-1.85,1.57,-1.57,-1.60,-1.73,-3.42,-3.42,-3.42
497.55,-1.84,1.60,-1.84,1.60,-1.60,-1.64,-1.75,-3.45,-3.45,-3.44
502.52,-1.83,1.63,-1.83,1.63,-1.63,-1.68,-1.76,-3.47,-3.47,-3.46
507.55,-1.82,1.66,-1.82,1.66,-1.66,-1.71,-1.77,-3.48,-3.48,-3.48
512.62,-1.81,1.69,-1.81,1.69,-1.69,-1.74,-1.77,-3.50,-3.50,-3.50
517.75,-1.80,1.71,-1.80,1.71,-1.71,-1.77,-1.78,-3.51,-3.51,-3.51
522.93,-1.79,1.74,-1.79,1.73,-1.73,-1.79,-1.77,-3.52,-3.52,-3.52
