frequency,raw,error,smoothed,error_smoothed,equalization,parametric_eq,fixed_band_eq,equalized_raw,equalized_smoothed,target
20.00,11.65,3.69,11.68,3.72,-3.73,-3.37,-1.93,7.93,7.95,7.96
20.20,11.51,3.56,11.49,3.54,-3.50,-3.41,-1.98,8.01,7.99,7.95
20.40,11.34,3.40,11.30,3.37,-3.31,-3.44,-2.04,8.03,8.00,7.94
20.61,11.13,3.21,11.13,3.20,-3.15,-3.46,-2.10,7.98,7.98,7.92
20.81,10.93,3.01,10.93,3.01,-3.03,-3.48,-2.15,7.90,7.90,7.92
21.02,10.78,2.85,10.78,2.84,-2.94,-3.48,-2.22,7.84,7.84,7.93
21.23,10.69,2.73,10.71,2.76,-2.89,-3.47,-2.28,7.79,7.82,7.95
21.44,10.72,2.75,10.73,2.76,-2.88,-3.46,-2.34,7.84,7.85,7.97
21.66,10.85,2.86,10.84,2.85,-2.94,-3.44,-2.41,7.91,7.90,7.99
21.87,11.00,3.00,11.00,3.00,-3.03,-3.42,-2.48,7.97,7.97,8.00
22.09,11.18,3.18,11.18,3.18,-3.15,-3.40,-2.55,8.03,8.03,8.00
22.31,11.34,3.36,11.34,3.35,-3.27,-3.37,-2.62,8.07,8.06,7.99
22.54,11.46,3.49,11.45,3.48,-3.37,-3.35,-2.69,8.08,8.08,7.97
22.76,11.51,3.56,11.50,3.56,-3.44,-3.32,-2.77,8.06,8.06,7.94
22.99,11.49,3.57,11.48,3.56,-3.48,-3.30,-2.85,8.01,8.01,7.92
23.22,11.42,3.51,11.42,3.52,-3.48,-3.29,-2.93,7.94,7.94,7.90
23.45,11.33,3.44,11.34,3.44,-3.47,-3.27,-3.01,7.86,7.87,7.89
23.69,11.26,3.37,11.26,3.38,-3.45,-3.26,-3.09,7.81,7.81,7.89
23.92,11.22,3.34,11.22,3.34,-3.44,-3.25,-3.17,7.78,7.79,7.88
24.16,11.23,3.35,11.24,3.36,-3.44,-3.26,-3.26,7.79,7.80,7.88
24.40,11.29,3.41,11.30,3.42,-3.46,-3.26,-3.35,7.83,7.84,7.88
24.65,11.38,3.50,11.38,3.50,-3.49,-3.27,-3.44,7.89,7.89,7.88
24.89,11.47,3.59,11.46,3.59,-3.53,-3.28,-3.53,7.94,7.93,7.88
25.14,11.52,3.65,11.52,3.65,-3.57,-3.31,-3.62,7.96,7.96,7.88
25.39,11.56,3.68,11.54,3.67,-3.60,-3.33,-3.71,7.96,7.94,7.87
25.65,11.53,3.66,11.53,3.66,-3.63,-3.37,-3.80,7.90,7.90,7.86
25.91,11.49,3.64,11.49,3.64,-3.65,-3.40,-3.90,7.84,7.83,7.85
26.16,11.44,3.62,11.45,3.62,-3.68,-3.45,-3.99,7.76,7.77,7.83
26.43,11.43,3.63,11.44,3.64,-3.72,-3.50,-4.08,7.71,7.72,7.80
26.69,11.47,3.70,11.47,3.70,-3.77,-3.56,-4.17,7.70,7.71,7.77
26.96,11.53,3.79,11.54,3.80,-3.82,-3.61,-4.27,7.71,7.72,7.74
27.23,11.63,3.90,11.63,3.90,-3.88,-3.68,-4.36,7.75,7.75,7.72
27.50,11.71,4.00,11.71,4.00,-3.93,-3.75,-4.45,7.78,7.77,7.71
27.77,11.77,4.06,11.77,4.06,-3.98,-3.82,-4.53,7.79,7.79,7.71
28.05,11.80,4.09,11.79,4.08,-4.01,-3.90,-4.62,7.78,7.78,7.71
28.33,11.77,4.07,11.77,4.07,-4.04,-3.99,-4.70,7.74,7.74,7.71
28.62,11.75,4.05,11.75,4.05,-4.05,-4.07,-4.78,7.69,7.69,7.70
28.90,11.71,4.03,11.72,4.03,-4.08,-4.16,-4.85,7.63,7.64,7.69
29.19,11.72,4.05,11.72,4.05,-4.12,-4.25,-4.93,7.60,7.60,7.67
29.48,11.75,4.10,11.76,4.12,-4.19,-4.34,-4.99,7.56,7.57,7.64
29.78,11.85,4.23,11.85,4.23,-4.28,-4.43,-5.06,7.57,7.57,7.62
30.08,11.97,4.37,11.98,4.37,-4.40,-4.53,-5.11,7.57,7.58,7.60
30.38,12.13,4.54,12.13,4.54,-4.53,-4.62,-5.17,7.60,7.60,7.59
30.68,12.28,4.70,12.28,4.70,-4.66,-4.70,-5.22,7.62,7.62,7.58
30.99,12.41,4.83,12.41,4.83,-4.78,-4.79,-5.26,7.63,7.63,7.57
31.30,12.50,4.93,12.50,4.93,-4.87,-4.86,-5.30,7.63,7.62,7.57
31.61,12.54,4.99,12.54,4.98,-4.94,-4.94,-5.33,7.61,7.61,7.56
31.93,12.55,5.00,12.54,5.00,-4.97,-5.00,-5.36,7.58,7.58,7.54
32.24,12.51,4.98,12.51,4.98,-4.97,-5.06,-5.38,7.54,7.54,7.52
32.57,12.45,4.95,12.45,4.95,-4.95,-5.11,-5.39,7.50,7.50,7.50
32.89,12.38,4.90,12.38,4.90,-4.93,-5.16,-5.41,7.45,7.46,7.48
33.22,12.32,4.86,12.32,4.87,-4.90,-5.19,-5.41,7.42,7.42,7.46
33.55,12.27,4.84,12.28,4.84,-4.87,-5.22,-5.42,7.40,7.40,7.44
33.89,12.26,4.83,12.26,4.84,-4.86,-5.24,-5.42,7.39,7.40,7.42
34.23,12.26,4.85,12.26,4.85,-4.86,-5.25,-5.42,7.40,7.40,7.41
34.57,12.27,4.87,12.27,4.87,-4.87,-5.25,-5.41,7.40,7.40,7.40
34.92,12.28,4.91,12.28,4.90,-4.89,-5.26,-5.40,7.40,7.40,7.38
35.27,12.29,4.94,12.29,4.93,-4.91,-5.25,-5.39,7.38,7.38,7.36
35.62,12.30,4.96,12.30,4.96,-4.95,-5.25,-5.38,7.35,7.35,7.34
35.97,12.30,4.98,12.31,4.98,-4.99,-5.24,-5.37,7.31,7.31,7.32
36.33,12.32,5.01,12.32,5.02,-5.04,-5.23,-5.36,7.28,7.28,7.31
36.70,12.36,5.06,12.36,5.07,-5.10,-5.22,-5.35,7.26,7.26,7.29
37.06,12.41,5.13,12.41,5.13,-5.16,-5.21,-5.33,7.25,7.25,7.28
37.43,12.48,5.22,12.48,5.22,-5.22,-5.20,-5.32,7.26,7.26,7.26
37.81,12.53,5.30,12.54,5.30,-5.27,-5.19,-5.31,7.26,7.26,7.24
38.19,12.58,5.37,12.57,5.36,-5.32,-5.19,-5.31,7.27,7.25,7.21
38.57,12.58,5.41,12.58,5.40,-5.36,-5.19,-5.30,7.23,7.22,7.18
38.95,12.56,5.41,12.56,5.41,-5.39,-5.19,-5.30,7.17,7.18,7.15
39.34,12.53,5.40,12.53,5.40,-5.41,-5.19,-5.30,7.12,7.12,7.13
39.74,12.50,5.40,12.51,5.40,-5.42,-5.20,-5.30,7.08,7.08,7.11
40.14,12.50,5.41,12.50,5.41,-5.44,-5.22,-5.30,7.06,7.06,7.09
40.54,12.51,5.43,12.51,5.43,-5.46,-5.23,-5.31,7.05,7.05,7.08
40.94,12.53,5.47,12.53,5.47,-5.49,-5.25,-5.32,7.04,7.04,7.06
41.35,12.56,5.52,12.56,5.52,-5.53,-5.28,-5.34,7.03,7.03,7.04
41.76,12.59,5.57,12.59,5.57,-5.58,-5.30,-5.35,7.01,7.02,7.02
42.18,12.63,5.63,12.63,5.63,-5.63,-5.34,-5.38,7.00,7.00,7.00
42.60,12.67,5.69,12.67,5.69,-5.67,-5.37,-5.40,6.99,7.00,6.97
43.03,12.70,5.75,12.70,5.75,-5.71,-5.41,-5.43,6.99,6.98,6.95
43.46,12.71,5.79,12.71,5.78,-5.75,-5.45,-5.47,6.96,6.96,6.93
43.90,12.71,5.80,12.70,5.80,-5.79,-5.49,-5.51,6.92,6.92,6.90
44.33,12.69,5.81,12.69,5.81,-5.83,-5.54,-5.55,6.86,6.87,6.88
44.78,12.68,5.83,12.69,5.83,-5.87,-5.59,-5.60,6.82,6.82,6.86
45.23,12.70,5.87,12.70,5.87,-5.92,-5.64,-5.65,6.78,6.79,6.83
45.68,12.74,5.94,12.74,5.94,-5.97,-5.70,-5.70,6.77,6.77,6.80
46.13,12.79,6.02,12.79,6.02,-6.03,-5.75,-5.76,6.77,6.77,6.78
46.60,12.85,6.10,12.85,6.10,-6.08,-5.81,-5.82,6.76,6.76,6.75
47.06,12.89,6.16,12.89,6.17,-6.14,-5.87,-5.89,6.75,6.75,6.72
47.53,12.91,6.22,12.91,6.22,-6.18,-5.94,-5.96,6.73,6.73,6.69
48.01,12.91,6.24,12.91,6.24,-6.21,-6.00,-6.04,6.70,6.70,6.67
48.49,12.89,6.25,12.89,6.25,-6.23,-6.06,-6.11,6.66,6.66,6.64
48.97,12.85,6.24,12.85,6.24,-6.23,-6.13,-6.20,6.62,6.62,6.61
49.46,12.81,6.22,12.81,6.22,-6.23,-6.20,-6.28,6.58,6.58,6.59
49.96,12.77,6.21,12.77,6.21,-6.22,-6.26,-6.37,6.55,6.55,6.56
50.46,12.74,6.21,12.74,6.21,-6.22,-6.33,-6.46,6.52,6.52,6.53
50.96,12.73,6.22,12.73,6.22,-6.24,-6.40,-6.55,6.49,6.49,6.51
51.47,12.73,6.24,12.73,6.24,-6.27,-6.47,-6.65,6.46,6.46,6.49
51.99,12.75,6.29,12.75,6.29,-6.31,-6.53,-6.74,6.44,6.44,6.46
52.51,12.80,6.36,12.80,6.36,-6.38,-6.60,-6.84,6.42,6.42,6.44
53.03,12.85,6.44,12.86,6.44,-6.45,-6.66,-6.93,6.40,6.40,6.41
53.56,12.92,6.54,12.92,6.53,-6.53,-6.72,-7.03,6.39,6.38,6.38
54.10,12.98,6.63,12.98,6.63,-6.62,-6.78,-7.12,6.37,6.37,6.36
54.64,13.04,6.72,13.04,6.72,-6.69,-6.84,-7.22,6.35,6.35,6.33
55.18,13.09,6.79,13.08,6.79,-6.76,-6.90,-7.30,6.33,6.32,6.30
55.74,13.11,6.85,13.11,6.85,-6.82,-6.95,-7.39,6.29,6.29,6.26
56.29,13.12,6.89,13.12,6.88,-6.87,-7.00,-7.47,6.25,6.25,6.23
56.86,13.12,6.91,13.11,6.91,-6.91,-7.05,-7.55,6.21,6.21,6.21
57.42,13.10,6.93,13.10,6.93,-6.94,-7.09,-7.62,6.17,6.17,6.18
58.00,13.09,6.94,13.09,6.95,-6.97,-7.13,-7.68,6.12,6.12,6.15
58.58,13.08,6.97,13.08,6.97,-7.00,-7.17,-7.74,6.09,6.09,6.11
59.16,13.08,7.01,13.08,7.01,-7.03,-7.20,-7.78,6.05,6.05,6.07
59.76,13.08,7.05,13.08,7.05,-7.06,-7.22,-7.82,6.03,6.03,6.03
60.35,13.08,7.09,13.08,7.09,-7.09,-7.24,-7.85,6.00,6.00,5.99
60.96,13.08,7.13,13.08,7.13,-7.11,-7.25,-7.86,5.97,5.96,5.95
61.57,13.06,7.16,13.06,7.16,-7.14,-7.26,-7.87,5.93,5.93,5.90
62.18,13.05,7.17,13.05,7.17,-7.16,-7.27,-7.86,5.89,5.89,5.87
62.80,13.03,7.17,13.03,7.17,-7.17,-7.26,-7.84,5.86,5.86,5.86
63.43,13.01,7.17,13.01,7.17,-7.19,-7.25,-7.81,5.82,5.82,5.84
64.07,13.00,7.18,13.00,7.18,-7.20,-7.24,-7.76,5.80,5.80,5.82
64.71,12.99,7.19,12.99,7.19,-7.22,-7.22,-7.71,5.77,5.77,5.80
65.35,12.97,7.21,12.97,7.22,-7.23,-7.19,-7.64,5.74,5.74,5.76
66.01,12.96,7.24,12.96,7.24,-7.24,-7.15,-7.56,5.72,5.72,5.71
66.67,12.93,7.27,12.93,7.26,-7.25,-7.12,-7.48,5.69,5.69,5.67
67.33,12.90,7.27,12.91,7.27,-7.25,-7.07,-7.38,5.65,5.66,5.63
68.01,12.87,7.26,12.87,7.26,-7.25,-7.02,-7.28,5.62,5.62,5.61
68.69,12.82,7.23,12.82,7.24,-7.23,-6.96,-7.16,5.58,5.58,5.58
69.37,12.75,7.20,12.75,7.20,-7.21,-6.90,-7.05,5.54,5.54,5.55
70.07,12.68,7.17,12.68,7.17,-7.18,-6.83,-6.92,5.50,5.50,5.51
70.77,12.59,7.13,12.59,7.13,-7.13,-6.76,-6.79,5.45,5.46,5.46
71.48,12.49,7.09,12.49,7.08,-7.08,-6.68,-6.66,5.41,5.41,5.41
72.19,12.39,7.03,12.39,7.03,-7.03,-6.60,-6.52,5.37,5.37,5.36
72.91,12.29,6.96,12.29,6.96,-6.96,-6.51,-6.38,5.33,5.33,5.33
73.64,12.19,6.88,12.19,6.89,-6.89,-6.42,-6.24,5.30,5.30,5.30
74.38,12.07,6.81,12.07,6.81,-6.81,-6.32,-6.09,5.26,5.26,5.27
75.12,11.95,6.73,11.95,6.72,-6.72,-6.23,-5.95,5.23,5.23,5.23
75.87,11.82,6.63,11.82,6.63,-6.62,-6.12,-5.81,5.19,5.19,5.19
76.63,11.67,6.52,11.67,6.52,-6.52,-6.02,-5.66,5.16,5.16,5.15
77.40,11.52,6.40,11.52,6.40,-6.40,-5.91,-5.52,5.12,5.12,5.12
78.17,11.34,6.27,11.35,6.27,-6.27,-5.80,-5.38,5.08,5.08,5.07
78.95,11.16,6.14,11.16,6.13,-6.12,-5.69,-5.24,5.04,5.04,5.03
79.74,10.97,5.98,10.97,5.98,-5.97,-5.58,-5.10,5.00,5.00,4.98
80.54,10.76,5.81,10.76,5.81,-5.81,-5.46,-4.96,4.95,4.95,4.95
81.35,10.54,5.63,10.54,5.64,-5.64,-5.35,-4.82,4.91,4.91,4.91
82.16,10.33,5.45,10.33,5.46,-5.46,-5.23,-4.69,4.86,4.86,4.87
82.98,10.11,5.28,10.11,5.28,-5.28,-5.11,-4.56,4.82,4.82,4.83
83.81,9.88,5.10,9.88,5.10,-5.10,-4.99,-4.43,4.78,4.78,4.79
84.65,9.66,4.92,9.66,4.92,-4.93,-4.87,-4.31,4.74,4.74,4.74
85.50,9.45,4.75,9.45,4.75,-4.75,-4.75,-4.19,4.70,4.70,4.70
86.35,9.24,4.57,9.24,4.58,-4.58,-4.63,-4.06,4.66,4.66,4.66
87.22,9.03,4.41,9.03,4.41,-4.41,-4.51,-3.95,4.62,4.62,4.62
88.09,8.82,4.24,8.82,4.24,-4.24,-4.39,-3.83,4.58,4.58,4.58
88.97,8.61,4.07,8.61,4.08,-4.07,-4.27,-3.72,4.54,4.54,4.54
89.86,8.40,3.91,8.40,3.91,-3.91,-4.15,-3.61,4.49,4.49,4.49
90.76,8.20,3.75,8.20,3.75,-3.75,-4.03,-3.51,4.45,4.45,4.45
91.66,8.00,3.59,8.00,3.59,-3.59,-3.91,-3.40,4.41,4.41,4.40
92.58,7.80,3.44,7.80,3.44,-3.44,-3.79,-3.30,4.36,4.36,4.36
93.51,7.61,3.29,7.61,3.29,-3.29,-3.68,-3.20,4.32,4.32,4.32
94.44,7.42,3.15,7.42,3.15,-3.15,-3.56,-3.11,4.27,4.27,4.27
95.39,7.24,3.01,7.24,3.01,-3.01,-3.45,-3.01,4.22,4.22,4.23
96.34,7.06,2.88,7.06,2.88,-2.89,-3.33,-2.92,4.18,4.18,4.18
97.30,6.90,2.76,6.90,2.76,-2.77,-3.22,-2.83,4.13,4.13,4.14
98.28,6.75,2.66,6.75,2.66,-2.66,-3.11,-2.75,4.09,4.09,4.10
99.26,6.61,2.56,6.61,2.56,-2.56,-3.00,-2.66,4.05,4.05,4.05
100.25,6.48,2.47,6.47,2.47,-2.46,-2.90,-2.58,4.01,4.01,4.00
101.25,6.34,2.39,6.34,2.39,-2.38,-2.80,-2.51,3.96,3.96,3.96
102.27,6.22,2.31,6.22,2.30,-2.31,-2.69,-2.43,3.91,3.91,3.91
103.29,6.10,2.23,6.10,2.23,-2.24,-2.60,-2.36,3.86,3.86,3.87
104.32,5.99,2.17,5.99,2.17,-2.18,-2.50,-2.29,3.81,3.81,3.83
105.37,5.90,2.12,5.89,2.12,-2.13,-2.41,-2.22,3.77,3.77,3.78
106.42,5.81,2.08,5.81,2.08,-2.08,-2.32,-2.15,3.73,3.73,3.73
107.48,5.72,2.04,5.72,2.04,-2.04,-2.23,-2.09,3.68,3.68,3.68
108.56,5.64,2.01,5.64,2.01,-2.00,-2.15,-2.03,3.64,3.64,3.64
109.64,5.57,1.98,5.57,1.98,-1.97,-2.07,-1.97,3.60,3.60,3.59
110.74,5.49,1.94,5.49,1.94,-1.94,-1.99,-1.92,3.55,3.55,3.54
111.85,5.41,1.91,5.41,1.91,-1.90,-1.92,-1.87,3.51,3.51,3.50
112.97,5.33,1.87,5.33,1.87,-1.87,-1.85,-1.82,3.47,3.47,3.46
114.10,5.25,1.84,5.25,1.84,-1.83,-1.78,-1.77,3.42,3.42,3.41
115.24,5.17,1.80,5.17,1.80,-1.80,-1.73,-1.73,3.37,3.37,3.37
116.39,5.09,1.76,5.09,1.76,-1.77,-1.67,-1.69,3.32,3.32,3.33
117.55,5.01,1.73,5.02,1.73,-1.74,-1.62,-1.65,3.27,3.28,3.29
118.73,4.95,1.71,4.95,1.71,-1.71,-1.57,-1.62,3.23,3.23,3.24
119.92,4.88,1.69,4.88,1.69,-1.69,-1.53,-1.59,3.19,3.19,3.19
121.12,4.82,1.67,4.82,1.67,-1.67,-1.49,-1.56,3.15,3.15,3.15
122.33,4.76,1.66,4.76,1.66,-1.65,-1.45,-1.53,3.11,3.11,3.10
123.55,4.70,1.64,4.70,1.64,-1.63,-1.42,-1.51,3.06,3.06,3.06
124.79,4.63,1.62,4.63,1.62,-1.61,-1.40,-1.49,3.02,3.02,3.01
126.03,4.56,1.60,4.56,1.60,-1.60,-1.37,-1.48,2.97,2.97,2.97
127.29,4.50,1.58,4.50,1.58,-1.58,-1.36,-1.47,2.92,2.92,2.92
128.57,4.43,1.56,4.43,1.56,-1.56,-1.34,-1.46,2.87,2.87,2.87
129.85,4.37,1.54,4.37,1.54,-1.55,-1.33,-1.45,2.82,2.82,2.83
131.15,4.31,1.53,4.31,1.53,-1.53,-1.33,-1.45,2.78,2.78,2.78
132.46,4.25,1.52,4.25,1.52,-1.52,-1.33,-1.45,2.73,2.73,2.73
133.79,4.19,1.51,4.19,1.51,-1.51,-1.33,-1.45,2.68,2.68,2.68
135.12,4.13,1.51,4.13,1.50,-1.50,-1.33,-1.46,2.63,2.63,2.63
136.48,4.07,1.50,4.07,1.49,-1.49,-1.34,-1.47,2.58,2.58,2.58
137.84,4.01,1.48,4.01,1.49,-1.49,-1.36,-1.48,2.53,2.53,2.53
139.22,3.96,1.48,3.96,1.48,-1.48,-1.37,-1.49,2.48,2.48,2.48
140.61,3.91,1.48,3.91,1.48,-1.48,-1.39,-1.51,2.43,2.43,2.43
142.02,3.86,1.48,3.86,1.48,-1.49,-1.41,-1.53,2.38,2.38,2.38
143.44,3.82,1.49,3.82,1.49,-1.49,-1.43,-1.55,2.33,2.33,2.33
144.87,3.78,1.50,3.79,1.50,-1.51,-1.46,-1.57,2.28,2.28,2.28
146.32,3.76,1.52,3.75,1.52,-1.52,-1.49,-1.60,2.23,2.23,2.24
147.78,3.73,1.54,3.73,1.54,-1.55,-1.52,-1.63,2.18,2.18,2.19
149.26,3.70,1.57,3.70,1.57,-1.57,-1.55,-1.66,2.14,2.14,2.14
150.75,3.68,1.59,3.68,1.59,-1.59,-1.58,-1.69,2.09,2.09,2.09
152.26,3.66,1.62,3.66,1.62,-1.61,-1.62,-1.73,2.05,2.05,2.04
153.78,3.64,1.64,3.64,1.64,-1.63,-1.66,-1.76,2.01,2.01,2.00
155.32,3.63,1.66,3.63,1.66,-1.65,-1.70,-1.80,1.98,1.98,1.96
156.88,3.61,1.67,3.61,1.67,-1.67,-1.74,-1.84,1.95,1.95,1.94
158.44,3.60,1.68,3.60,1.68,-1.68,-1.78,-1.88,1.92,1.92,1.92
160.03,3.59,1.69,3.59,1.69,-1.69,-1.82,-1.93,1.90,1.90,1.89
161.63,3.58,1.70,3.58,1.70,-1.70,-1.86,-1.97,1.88,1.88,1.88
163.24,3.58,1.71,3.58,1.71,-1.72,-1.91,-2.02,1.86,1.86,1.86
164.88,3.58,1.73,3.58,1.73,-1.74,-1.96,-2.07,1.84,1.84,1.85
166.53,3.58,1.76,3.58,1.76,-1.76,-2.00,-2.12,1.82,1.82,1.82
168.19,3.58,1.79,3.58,1.78,-1.79,-2.05,-2.17,1.79,1.79,1.79
169.87,3.58,1.82,3.58,1.82,-1.82,-2.10,-2.23,1.76,1.76,1.77
171.57,3.59,1.86,3.59,1.86,-1.86,-2.15,-2.28,1.73,1.73,1.73
173.29,3.60,1.91,3.60,1.91,-1.91,-2.20,-2.34,1.69,1.69,1.69
175.02,3.62,1.97,3.62,1.97,-1.96,-2.25,-2.40,1.66,1.66,1.65
176.77,3.64,2.03,3.64,2.02,-2.02,-2.30,-2.46,1.62,1.62,1.62
178.54,3.67,2.08,3.67,2.09,-2.09,-2.36,-2.53,1.58,1.58,1.58
180.32,3.70,2.15,3.70,2.15,-2.16,-2.41,-2.59,1.54,1.54,1.55
182.13,3.73,2.23,3.73,2.23,-2.23,-2.47,-2.66,1.50,1.50,1.50
183.95,3.76,2.31,3.76,2.31,-2.31,-2.52,-2.73,1.45,1.45,1.45
185.79,3.80,2.39,3.80,2.39,-2.39,-2.58,-2.80,1.41,1.41,1.41
187.65,3.84,2.47,3.84,2.47,-2.47,-2.63,-2.87,1.37,1.37,1.37
189.52,3.88,2.56,3.88,2.56,-2.56,-2.69,-2.94,1.32,1.32,1.32
191.42,3.93,2.65,3.93,2.65,-2.64,-2.75,-3.01,1.28,1.28,1.28
193.33,3.97,2.73,3.97,2.73,-2.73,-2.81,-3.09,1.24,1.24,1.24
195.27,4.02,2.82,4.01,2.82,-2.81,-2.86,-3.17,1.20,1.20,1.20
197.22,4.05,2.90,4.05,2.90,-2.90,-2.92,-3.25,1.16,1.16,1.16
199.19,4.09,2.98,4.09,2.98,-2.98,-2.98,-3.32,1.12,1.12,1.11
201.18,4.13,3.06,4.13,3.06,-3.06,-3.04,-3.41,1.07,1.07,1.08
203.19,4.17,3.13,4.17,3.14,-3.14,-3.10,-3.49,1.03,1.03,1.04
205.23,4.21,3.22,4.21,3.22,-3.22,-3.17,-3.57,0.99,0.99,1.00
207.28,4.26,3.30,4.26,3.30,-3.30,-3.23,-3.65,0.96,0.96,0.96
209.35,4.30,3.38,4.30,3.38,-3.38,-3.29,-3.73,0.92,0.92,0.92
211.44,4.34,3.46,4.34,3.46,-3.46,-3.35,-3.81,0.88,0.88,0.88
213.56,4.38,3.54,4.38,3.54,-3.54,-3.42,-3.89,0.84,0.84,0.84
215.69,4.42,3.62,4.42,3.62,-3.62,-3.48,-3.97,0.80,0.80,0.80
217.85,4.46,3.70,4.46,3.70,-3.70,-3.55,-4.05,0.76,0.76,0.76
220.03,4.50,3.78,4.50,3.78,-3.78,-3.61,-4.12,0.72,0.72,0.72
222.23,4.54,3.85,4.54,3.85,-3.85,-3.68,-4.20,0.69,0.69,0.69
224.45,4.58,3.93,4.58,3.93,-3.93,-3.74,-4.27,0.65,0.65,0.65
226.70,4.62,4.00,4.62,4.00,-4.00,-3.81,-4.34,0.61,0.61,0.61
228.96,4.66,4.08,4.66,4.08,-4.08,-3.87,-4.40,0.58,0.58,0.58
231.25,4.69,4.15,4.69,4.15,-4.15,-3.94,-4.47,0.54,0.54,0.54
233.57,4.73,4.22,4.73,4.22,-4.22,-4.01,-4.52,0.51,0.51,0.51
235.90,4.76,4.29,4.76,4.29,-4.29,-4.07,-4.58,0.47,0.47,0.47
238.26,4.79,4.36,4.79,4.36,-4.36,-4.14,-4.63,0.44,0.44,0.44
240.64,4.82,4.42,4.82,4.42,-4.42,-4.21,-4.67,0.40,0.40,0.40
243.05,4.85,4.48,4.85,4.48,-4.48,-4.27,-4.71,0.37,0.37,0.37
245.48,4.88,4.54,4.88,4.54,-4.54,-4.34,-4.74,0.34,0.34,0.34
247.93,4.90,4.59,4.90,4.59,-4.60,-4.41,-4.77,0.30,0.30,0.31
250.41,4.92,4.65,4.92,4.65,-4.65,-4.47,-4.80,0.27,0.27,0.27
252.92,4.95,4.71,4.95,4.71,-4.71,-4.54,-4.81,0.24,0.24,0.24
255.45,4.97,4.76,4.97,4.76,-4.76,-4.60,-4.83,0.21,0.21,0.21
258.00,5.00,4.82,5.00,4.82,-4.82,-4.67,-4.83,0.18,0.18,0.18
260.58,5.02,4.87,5.02,4.87,-4.87,-4.73,-4.84,0.15,0.15,0.15
263.19,5.03,4.92,5.03,4.92,-4.92,-4.79,-4.83,0.12,0.12,0.12
265.82,5.05,4.97,5.05,4.96,-4.96,-4.85,-4.83,0.09,0.09,0.08
268.48,5.06,5.00,5.06,5.01,-5.00,-4.92,-4.82,0.06,0.06,0.06
271.16,5.08,5.05,5.08,5.05,-5.05,-4.97,-4.80,0.03,0.03,0.03
273.87,5.09,5.08,5.09,5.08,-5.09,-5.03,-4.78,-0.00,-0.00,0.00
276.61,5.10,5.12,5.10,5.12,-5.12,-5.09,-4.76,-0.03,-0.03,-0.03
279.38,5.11,5.16,5.11,5.16,-5.16,-5.15,-4.74,-0.05,-0.05,-0.05
282.17,5.12,5.19,5.12,5.20,-5.19,-5.20,-4.71,-0.08,-0.08,-0.08
284.99,5.12,5.23,5.12,5.23,-5.23,-5.25,-4.68,-0.10,-0.10,-0.11
287.84,5.13,5.26,5.13,5.26,-5.26,-5.30,-4.65,-0.13,-0.13,-0.13
290.72,5.14,5.28,5.14,5.28,-5.29,-5.35,-4.63,-0.15,-0.15,-0.15
293.63,5.14,5.31,5.14,5.31,-5.31,-5.40,-4.60,-0.17,-0.17,-0.17
296.57,5.14,5.34,5.14,5.34,-5.33,-5.44,-4.57,-0.19,-0.19,-0.19
299.53,5.14,5.36,5.14,5.36,-5.35,-5.48,-4.54,-0.21,-0.21,-0.22
302.53,5.14,5.37,5.14,5.38,-5.37,-5.52,-4.51,-0.23,-0.23,-0.23
305.55,5.14,5.39,5.14,5.39,-5.39,-5.56,-4.48,-0.25,-0.25,-0.25
308.61,5.14,5.40,5.14,5.40,-5.40,-5.59,-4.45,-0.27,-0.27,-0.27
311.69,5.13,5.41,5.13,5.42,-5.42,-5.62,-4.43,-0.29,-0.29,-0.28
314.81,5.13,5.43,5.13,5.43,-5.43,-5.65,-4.41,-0.30,-0.30,-0.30
317.96,5.12,5.44,5.12,5.44,-5.44,-5.67,-4.39,-0.32,-0.32,-0.32
321.14,5.12,5.46,5.12,5.46,-5.46,-5.69,-4.37,-0.34,-0.34,-0.34
324.35,5.11,5.47,5.11,5.47,-5.47,-5.71,-4.35,-0.35,-0.35,-0.35
327.59,5.10,5.48,5.10,5.48,-5.48,-5.73,-4.34,-0.37,-0.37,-0.37
330.87,5.10,5.49,5.10,5.49,-5.48,-5.74,-4.33,-0.39,-0.39,-0.39
334.18,5.09,5.49,5.08,5.49,-5.49,-5.75,-4.32,-0.40,-0.40,-0.41
337.52,5.07,5.49,5.07,5.49,-5.49,-5.75,-4.32,-0.42,-0.42,-0.42
340.90,5.06,5.49,5.06,5.49,-5.49,-5.75,-4.32,-0.44,-0.44,-0.43
344.30,5.04,5.49,5.04,5.49,-5.49,-5.75,-4.32,-0.45,-0.45,-0.45
347.75,5.02,5.49,5.02,5.49,-5.49,-5.75,-4.33,-0.47,-0.47,-0.47
351.23,5.00,5.49,5.00,5.49,-5.48,-5.74,-4.34,-0.48,-0.48,-0.48
354.74,4.98,5.48,4.98,5.48,-5.48,-5.73,-4.35,-0.49,-0.49,-0.49
358.28,4.96,5.47,4.96,5.47,-5.47,-5.71,-4.37,-0.51,-0.51,-0.51
361.87,4.94,5.45,4.94,5.45,-5.46,-5.70,-4.39,-0.52,-0.52,-0.52
365.49,4.91,5.44,4.91,5.44,-5.44,-5.68,-4.41,-0.53,-0.53,-0.53
369.14,4.89,5.43,4.89,5.43,-5.43,-5.65,-4.44,-0.55,-0.55,-0.55
372.83,4.86,5.42,4.86,5.42,-5.42,-5.63,-4.47,-0.56,-0.56,-0.56
376.56,4.84,5.40,4.84,5.40,-5.40,-5.60,-4.50,-0.57,-0.57,-0.57
380.33,4.81,5.39,4.81,5.39,-5.39,-5.57,-4.54,-0.58,-0.58,-0.58
384.13,4.79,5.37,4.79,5.37,-5.37,-5.54,-4.57,-0.59,-0.59,-0.59
387.97,4.76,5.36,4.76,5.36,-5.35,-5.50,-4.62,-0.60,-0.60,-0.60
391.85,4.73,5.34,4.73,5.34,-5.33,-5.46,-4.66,-0.60,-0.60,-0.61
395.77,4.70,5.32,4.70,5.32,-5.31,-5.42,-4.71,-0.61,-0.61,-0.62
399.73,4.67,5.29,4.67,5.29,-5.29,-5.38,-4.75,-0.62,-0.62,-0.62
403.72,4.64,5.26,4.64,5.27,-5.27,-5.34,-4.80,-0.63,-0.63,-0.63
407.76,4.60,5.24,4.60,5.24,-5.24,-5.30,-4.85,-0.64,-0.64,-0.63
411.84,4.57,5.21,4.57,5.21,-5.21,-5.25,-4.91,-0.64,-0.64,-0.64
415.96,4.53,5.18,4.53,5.19,-5.19,-5.21,-4.96,-0.65,-0.65,-0.65
420.12,4.50,5.15,4.50,5.16,-5.15,-5.16,-5.01,-0.66,-0.66,-0.66
424.32,4.46,5.13,4.46,5.12,-5.12,-5.11,-5.07,-0.66,-0.66,-0.67
428.56,4.42,5.09,4.42,5.09,-5.09,-5.06,-5.12,-0.67,-0.67,-0.67
432.85,4.38,5.05,4.38,5.05,-5.05,-5.01,-5.17,-0.67,-0.67,-0.67
437.18,4.34,5.02,4.34,5.02,-5.02,-4.96,-5.22,-0.67,-0.67,-0.67
441.55,4.30,4.98,4.30,4.98,-4.98,-4.91,-5.27,-0.68,-0.68,-0.68
445.96,4.26,4.94,4.26,4.94,-4.94,-4.86,-5.31,-0.68,-0.68,-0.68
450.42,4.22,4.90,4.22,4.90,-4.90,-4.81,-5.35,-0.68,-0.68,-0.68
454.93,4.18,4.86,4.18,4.86,-4.86,-4.75,-5.39,-0.69,-0.68,-0.68
459.48,4.14,4.82,4.14,4.82,-4.83,-4.70,-5.42,-0.69,-0.69,-0.68
464.07,4.10,4.78,4.10,4.79,-4.79,-4.65,-5.45,-0.69,-0.69,-0.68
468.71,4.06,4.75,4.06,4.75,-4.75,-4.60,-5.46,-0.69,-0.69,-0.68
473.40,4.02,4.71,4.02,4.71,-4.71,-4.55,-5.48,-0.68,-0.68,-0.69
478.13,3.98,4.67,3.98,4.67,-4.67,-4.50,-5.48,-0.68,-0.68,-0.69
482.91,3.94,4.63,3.94,4.62,-4.62,-4.44,-5.48,-0.68,-0.68,-0.69
487.74,3.89,4.58,3.89,4.58,-4.57,-4.39,-5.47,-0.68,-0.68,-0.68
492.62,3.84,4.52,3.84,4.52,-4.52,-4.34,-5.45,-0.68,-0.68,-0.68
497.55,3.79,4.47,3.79,4.47,-4.47,-4.29,-5.42,-0.68,-0.68,-0.68
502.52,3.74,4.41,3.74,4.41,-4.41,-4.24,-5.39,-0.67,-0.67,-0.67
507.55,3.69,4.36,3.69,4.36,-4.36,-4.19,-5.34,-0.67,-0.67,-0.67
