frequency,raw,error,smoothed,error_smoothed,equalization,parametric_eq,fixed_band_eq,equalized_raw,equalized_smoothed,target
20.00,2.38,-5.66,2.38,-5.66,5.69,-0.01,2.09,8.07,8.07,8.05
20.20,2.41,-5.64,2.41,-5.64,5.65,-0.01,2.15,8.05,8.05,8.04
20.40,2.44,-5.61,2.44,-5.61,5.60,-0.01,2.21,8.03,8.03,8.04
20.61,2.47,-5.57,2.47,-5.57,5.55,-0.01,2.28,8.02,8.02,8.04
20.81,2.50,-5.53,2.50,-5.53,5.51,-0.01,2.35,8.01,8.01,8.04
21.02,2.54,-5.49,2.54,-5.49,5.47,-0.01,2.42,8.01,8.01,8.03
21.23,2.58,-5.44,2.58,-5.44,5.43,-0.01,2.49,8.01,8.01,8.02
21.44,2.62,-5.39,2.62,-5.39,5.39,-0.01,2.56,8.01,8.01,8.00
21.66,2.65,-5.34,2.65,-5.34,5.35,-0.01,2.63,7.99,7.99,7.99
21.87,2.68,-5.30,2.68,-5.30,5.31,-0.01,2.71,7.98,7.98,7.97
22.09,2.70,-5.26,2.70,-5.26,5.27,-0.01,2.79,7.97,7.97,7.96
22.31,2.72,-5.23,2.72,-5.23,5.24,-0.01,2.87,7.96,7.96,7.95
22.54,2.73,-5.22,2.73,-5.22,5.22,-0.01,2.96,7.95,7.95,7.95
22.76,2.75,-5.20,2.75,-5.20,5.20,-0.01,3.04,7.95,7.95,7.95
22.99,2.76,-5.19,2.76,-5.19,5.19,-0.01,3.13,7.95,7.95,7.95
23.22,2.78,-5.18,2.78,-5.18,5.18,-0.01,3.22,7.96,7.96,7.96
23.45,2.79,-5.18,2.79,-5.18,5.17,-0.01,3.31,7.96,7.96,7.97
23.69,2.82,-5.16,2.82,-5.16,5.16,-0.01,3.40,7.97,7.98,7.98
23.92,2.84,-5.15,2.84,-5.15,5.14,-0.01,3.50,7.99,7.99,7.99
24.16,2.87,-5.13,2.87,-5.13,5.13,-0.01,3.60,8.00,8.00,8.00
24.40,2.89,-5.11,2.89,-5.11,5.11,-0.01,3.70,8.00,8.00,8.00
24.65,2.92,-5.08,2.92,-5.08,5.08,-0.01,3.80,8.01,8.00,8.00
24.89,2.94,-5.06,2.94,-5.06,5.06,-0.01,3.90,8.00,8.00,8.00
25.14,2.97,-5.03,2.97,-5.03,5.04,-0.01,4.00,8.00,8.00,8.00
25.39,2.99,-5.01,2.99,-5.01,5.01,-0.01,4.10,8.00,8.00,7.99
25.65,3.01,-4.98,3.01,-4.98,4.98,-0.01,4.21,7.99,7.99,7.99
25.91,3.03,-4.96,3.03,-4.96,4.96,-0.01,4.31,7.99,7.99,7.99
26.16,3.05,-4.93,3.05,-4.93,4.93,-0.01,4.41,7.99,7.99,7.99
26.43,3.08,-4.91,3.08,-4.91,4.91,-0.01,4.51,7.98,7.98,7.98
26.69,3.10,-4.88,3.10,-4.88,4.88,-0.01,4.61,7.98,7.98,7.99
26.96,3.13,-4.86,3.13,-4.86,4.85,-0.01,4.71,7.98,7.98,7.98
27.23,3.16,-4.83,3.15,-4.83,4.83,-0.02,4.81,7.98,7.98,7.98
27.50,3.18,-4.80,3.18,-4.80,4.80,-0.02,4.91,7.98,7.98,7.98
27.77,3.20,-4.77,3.20,-4.77,4.77,-0.02,5.00,7.97,7.97,7.97
28.05,3.22,-4.74,3.22,-4.74,4.74,-0.02,5.08,7.96,7.96,7.96
28.33,3.24,-4.71,3.24,-4.71,4.71,-0.02,5.16,7.95,7.95,7.95
28.62,3.26,-4.68,3.26,-4.68,4.68,-0.02,5.24,7.94,7.94,7.94
28.90,3.28,-4.64,3.28,-4.64,4.64,-0.02,5.31,7.93,7.93,7.93
29.19,3.30,-4.61,3.30,-4.61,4.61,-0.02,5.38,7.92,7.92,7.92
29.48,3.33,-4.58,3.33,-4.58,4.58,-0.02,5.44,7.91,7.91,7.91
29.78,3.35,-4.55,3.35,-4.55,4.55,-0.02,5.49,7.90,7.90,7.90
30.08,3.37,-4.52,3.37,-4.52,4.52,-0.02,5.53,7.89,7.89,7.89
30.38,3.39,-4.49,3.39,-4.49,4.49,-0.02,5.56,7.89,7.89,7.88
30.68,3.41,-4.46,3.41,-4.46,4.47,-0.02,5.59,7.88,7.88,7.88
30.99,3.43,-4.44,3.43,-4.44,4.44,-0.02,5.61,7.87,7.87,7.87
31.30,3.45,-4.41,3.45,-4.41,4.41,-0.02,5.61,7.86,7.86,7.86
31.61,3.46,-4.38,3.46,-4.38,4.38,-0.02,5.61,7.84,7.84,7.85
31.93,3.48,-4.35,3.48,-4.35,4.35,-0.02,5.60,7.83,7.83,7.83
32.24,3.50,-4.32,3.50,-4.32,4.32,-0.02,5.58,7.82,7.82,7.82
32.57,3.51,-4.29,3.51,-4.29,4.29,-0.02,5.55,7.80,7.80,7.81
32.89,3.53,-4.26,3.53,-4.26,4.26,-0.02,5.52,7.79,7.79,7.79
33.22,3.55,-4.23,3.55,-4.23,4.23,-0.02,5.47,7.78,7.78,7.78
33.55,3.57,-4.20,3.57,-4.20,4.20,-0.02,5.42,7.77,7.77,7.77
33.89,3.59,-4.17,3.59,-4.17,4.17,-0.02,5.36,7.76,7.76,7.76
34.23,3.60,-4.14,3.60,-4.14,4.14,-0.02,5.30,7.75,7.75,7.75
34.57,3.62,-4.12,3.62,-4.12,4.12,-0.02,5.23,7.73,7.73,7.74
34.92,3.64,-4.09,3.64,-4.09,4.09,-0.03,5.16,7.72,7.72,7.72
35.27,3.65,-4.06,3.65,-4.06,4.06,-0.03,5.08,7.71,7.71,7.71
35.62,3.67,-4.03,3.67,-4.03,4.03,-0.03,5.00,7.70,7.70,7.70
35.97,3.68,-4.00,3.68,-4.00,4.00,-0.03,4.91,7.68,7.68,7.68
36.33,3.70,-3.97,3.70,-3.97,3.97,-0.03,4.82,7.66,7.66,7.66
36.70,3.71,-3.93,3.71,-3.93,3.93,-0.03,4.73,7.65,7.65,7.65
37.06,3.73,-3.90,3.73,-3.90,3.90,-0.03,4.64,7.63,7.63,7.63
37.43,3.74,-3.87,3.74,-3.87,3.87,-0.03,4.55,7.61,7.61,7.61
37.81,3.76,-3.84,3.76,-3.83,3.83,-0.03,4.46,7.59,7.59,7.59
38.19,3.77,-3.80,3.77,-3.80,3.80,-0.03,4.36,7.57,7.57,7.57
38.57,3.78,-3.77,3.78,-3.77,3.77,-0.03,4.27,7.55,7.55,7.55
38.95,3.80,-3.73,3.80,-3.73,3.74,-0.03,4.18,7.53,7.53,7.53
39.34,3.81,-3.70,3.81,-3.70,3.70,-0.03,4.09,7.51,7.51,7.51
39.74,3.82,-3.67,3.82,-3.67,3.67,-0.03,4.00,7.49,7.49,7.49
40.14,3.83,-3.64,3.83,-3.64,3.64,-0.03,3.91,7.48,7.48,7.48
40.54,3.84,-3.61,3.84,-3.61,3.61,-0.03,3.83,7.46,7.46,7.46
40.94,3.85,-3.59,3.86,-3.59,3.59,-0.04,3.74,7.44,7.44,7.44
41.35,3.87,-3.56,3.87,-3.56,3.56,-0.04,3.66,7.42,7.42,7.42
41.76,3.88,-3.53,3.88,-3.53,3.53,-0.04,3.58,7.41,7.41,7.40
42.18,3.89,-3.50,3.89,-3.50,3.50,-0.04,3.50,7.39,7.39,7.39
42.60,3.90,-3.47,3.90,-3.47,3.47,-0.04,3.43,7.37,7.37,7.37
43.03,3.91,-3.44,3.91,-3.44,3.44,-0.04,3.36,7.35,7.35,7.36
43.46,3.92,-3.42,3.92,-3.41,3.41,-0.04,3.29,7.33,7.33,7.34
43.90,3.94,-3.38,3.94,-3.38,3.38,-0.04,3.22,7.31,7.31,7.32
44.33,3.95,-3.35,3.95,-3.35,3.34,-0.04,3.15,7.30,7.30,7.30
44.78,3.97,-3.31,3.97,-3.31,3.31,-0.04,3.09,7.28,7.28,7.27
45.23,3.98,-3.27,3.98,-3.27,3.28,-0.04,3.03,7.25,7.25,7.25
45.68,3.99,-3.24,3.99,-3.24,3.24,-0.04,2.97,7.23,7.23,7.22
46.13,3.99,-3.21,3.99,-3.21,3.21,-0.05,2.91,7.21,7.21,7.20
46.60,4.00,-3.18,4.00,-3.18,3.18,-0.05,2.86,7.18,7.18,7.18
47.06,4.01,-3.15,4.01,-3.15,3.15,-0.05,2.81,7.16,7.16,7.16
47.53,4.01,-3.13,4.01,-3.13,3.12,-0.05,2.76,7.14,7.14,7.14
48.01,4.02,-3.10,4.02,-3.10,3.09,-0.05,2.71,7.12,7.12,7.12
48.49,4.03,-3.07,4.03,-3.07,3.06,-0.05,2.67,7.09,7.09,7.10
48.97,4.04,-3.03,4.04,-3.03,3.03,-0.05,2.63,7.07,7.07,7.07
49.46,4.04,-3.00,4.04,-3.00,3.00,-0.05,2.59,7.04,7.04,7.04
49.96,4.05,-2.97,4.05,-2.97,2.97,-0.05,2.55,7.02,7.02,7.02
50.46,4.06,-2.93,4.06,-2.93,2.93,-0.05,2.51,6.99,6.99,6.99
50.96,4.07,-2.89,4.07,-2.89,2.89,-0.06,2.48,6.96,6.96,6.96
51.47,4.07,-2.85,4.07,-2.86,2.86,-0.06,2.44,6.93,6.93,6.93
51.99,4.08,-2.82,4.08,-2.82,2.82,-0.06,2.41,6.90,6.90,6.90
52.51,4.09,-2.78,4.09,-2.78,2.78,-0.06,2.38,6.87,6.87,6.87
53.03,4.10,-2.75,4.09,-2.75,2.75,-0.06,2.35,6.84,6.84,6.84
53.56,4.10,-2.71,4.10,-2.71,2.71,-0.06,2.32,6.82,6.82,6.82
54.10,4.11,-2.68,4.11,-2.68,2.68,-0.06,2.29,6.79,6.79,6.79
54.64,4.11,-2.65,4.11,-2.65,2.65,-0.07,2.26,6.76,6.76,6.76
55.18,4.12,-2.61,4.12,-2.61,2.61,-0.07,2.24,6.73,6.73,6.73
55.74,4.12,-2.58,4.12,-2.58,2.58,-0.07,2.21,6.70,6.70,6.70
56.29,4.12,-2.54,4.12,-2.54,2.54,-0.07,2.18,6.67,6.67,6.67
56.86,4.13,-2.51,4.13,-2.51,2.51,-0.07,2.16,6.64,6.64,6.64
57.42,4.13,-2.47,4.13,-2.47,2.47,-0.07,2.13,6.60,6.60,6.60
58.00,4.14,-2.44,4.14,-2.44,2.44,-0.07,2.10,6.57,6.57,6.57
58.58,4.14,-2.40,4.14,-2.40,2.40,-0.08,2.08,6.54,6.54,6.54
59.16,4.14,-2.37,4.14,-2.37,2.37,-0.08,2.05,6.51,6.51,6.51
59.76,4.14,-2.33,4.14,-2.33,2.33,-0.08,2.02,6.47,6.47,6.47
60.35,4.14,-2.30,4.14,-2.30,2.30,-0.08,1.99,6.44,6.44,6.44
60.96,4.14,-2.26,4.14,-2.26,2.26,-0.08,1.96,6.41,6.41,6.41
61.57,4.14,-2.23,4.14,-2.23,2.23,-0.09,1.93,6.37,6.37,6.37
62.18,4.15,-2.19,4.15,-2.19,2.19,-0.09,1.90,6.34,6.34,6.34
62.80,4.15,-2.16,4.15,-2.16,2.16,-0.09,1.87,6.31,6.31,6.30
63.43,4.15,-2.12,4.15,-2.12,2.12,-0.09,1.84,6.27,6.27,6.27
64.07,4.15,-2.09,4.15,-2.09,2.08,-0.09,1.80,6.24,6.24,6.24
64.71,4.15,-2.05,4.15,-2.05,2.05,-0.10,1.77,6.20,6.20,6.20
65.35,4.15,-2.01,4.15,-2.01,2.01,-0.10,1.73,6.16,6.16,6.16
66.01,4.15,-1.97,4.15,-1.97,1.97,-0.10,1.69,6.12,6.12,6.12
66.67,4.15,-1.93,4.15,-1.93,1.93,-0.10,1.65,6.08,6.08,6.08
67.33,4.15,-1.89,4.15,-1.89,1.89,-0.10,1.61,6.04,6.04,6.04
68.01,4.15,-1.84,4.15,-1.85,1.85,-0.11,1.57,6.00,6.00,6.00
68.69,4.15,-1.80,4.15,-1.80,1.80,-0.11,1.53,5.95,5.95,5.95
69.37,4.15,-1.76,4.15,-1.76,1.76,-0.11,1.49,5.91,5.91,5.91
70.07,4.14,-1.72,4.14,-1.72,1.72,-0.11,1.45,5.86,5.86,5.86
70.77,4.14,-1.68,4.14,-1.68,1.68,-0.12,1.41,5.82,5.82,5.82
71.48,4.14,-1.63,4.14,-1.63,1.64,-0.12,1.36,5.78,5.78,5.77
72.19,4.14,-1.59,4.14,-1.59,1.60,-0.12,1.32,5.74,5.74,5.73
72.91,4.14,-1.55,4.14,-1.55,1.56,-0.13,1.28,5.70,5.69,5.69
73.64,4.14,-1.52,4.14,-1.52,1.52,-0.13,1.23,5.66,5.66,5.65
74.38,4.13,-1.48,4.13,-1.48,1.48,-0.13,1.19,5.62,5.62,5.62
75.12,4.13,-1.45,4.13,-1.45,1.45,-0.14,1.14,5.58,5.58,5.58
75.87,4.13,-1.41,4.13,-1.41,1.41,-0.14,1.10,5.54,5.54,5.54
76.63,4.12,-1.38,4.12,-1.38,1.38,-0.14,1.06,5.50,5.50,5.50
77.40,4.12,-1.34,4.12,-1.34,1.34,-0.15,1.01,5.45,5.45,5.46
78.17,4.11,-1.30,4.11,-1.30,1.30,-0.15,0.97,5.41,5.41,5.41
78.95,4.11,-1.26,4.11,-1.26,1.26,-0.15,0.92,5.36,5.36,5.36
79.74,4.10,-1.21,4.10,-1.21,1.22,-0.16,0.88,5.32,5.32,5.32
80.54,4.10,-1.17,4.10,-1.17,1.17,-0.16,0.84,5.27,5.27,5.27
81.35,4.09,-1.13,4.09,-1.13,1.12,-0.16,0.80,5.21,5.21,5.22
82.16,4.09,-1.08,4.09,-1.08,1.07,-0.17,0.75,5.16,5.16,5.16
82.98,4.08,-1.03,4.08,-1.03,1.02,-0.17,0.71,5.10,5.10,5.11
83.81,4.07,-0.97,4.07,-0.97,0.97,-0.18,0.67,5.05,5.05,5.05
84.65,4.07,-0.92,4.07,-0.92,0.92,-0.18,0.63,4.99,4.99,4.98
85.50,4.06,-0.87,4.06,-0.87,0.87,-0.19,0.59,4.93,4.93,4.93
86.35,4.05,-0.82,4.05,-0.82,0.82,-0.19,0.55,4.87,4.87,4.87
87.22,4.03,-0.78,4.03,-0.77,0.78,-0.20,0.50,4.81,4.81,4.81
88.09,4.02,-0.73,4.02,-0.73,0.73,-0.20,0.46,4.75,4.75,4.75
88.97,4.01,-0.69,4.01,-0.69,0.69,-0.21,0.42,4.70,4.70,4.70
89.86,4.00,-0.64,4.00,-0.65,0.65,-0.21,0.39,4.65,4.65,4.64
90.76,3.99,-0.61,3.99,-0.61,0.60,-0.22,0.35,4.60,4.60,4.60
91.66,3.99,-0.57,3.99,-0.56,0.56,-0.22,0.31,4.55,4.55,4.56
92.58,3.99,-0.52,3.99,-0.52,0.52,-0.23,0.27,4.51,4.51,4.51
93.51,3.98,-0.48,3.98,-0.48,0.48,-0.23,0.23,4.46,4.46,4.46
94.44,3.97,-0.43,3.97,-0.43,0.44,-0.24,0.19,4.41,4.41,4.41
95.39,3.96,-0.39,3.96,-0.39,0.39,-0.25,0.15,4.36,4.36,4.35
96.34,3.95,-0.35,3.95,-0.35,0.35,-0.25,0.12,4.30,4.30,4.30
97.30,3.94,-0.30,3.94,-0.30,0.30,-0.26,0.08,4.24,4.24,4.24
98.28,3.92,-0.26,3.92,-0.26,0.26,-0.27,0.04,4.18,4.18,4.18
99.26,3.91,-0.21,3.91,-0.21,0.21,-0.28,0.01,4.12,4.12,4.12
100.25,3.89,-0.17,3.89,-0.17,0.16,-0.28,-0.03,4.06,4.06,4.06
101.25,3.88,-0.12,3.88,-0.12,0.11,-0.29,-0.07,4.00,4.00,4.00
102.27,3.87,-0.06,3.87,-0.06,0.06,-0.30,-0.10,3.94,3.94,3.94
103.29,3.87,-0.01,3.87,-0.01,0.01,-0.31,-0.14,3.87,3.87,3.88
104.32,3.86,0.05,3.86,0.04,-0.04,-0.32,-0.18,3.81,3.81,3.81
105.37,3.85,0.10,3.85,0.10,-0.09,-0.33,-0.21,3.75,3.75,3.75
106.42,3.83,0.15,3.83,0.15,-0.15,-0.33,-0.25,3.69,3.69,3.68
107.48,3.82,0.20,3.82,0.20,-0.20,-0.34,-0.28,3.62,3.62,3.62
108.56,3.81,0.25,3.81,0.25,-0.25,-0.35,-0.31,3.56,3.56,3.56
109.64,3.79,0.29,3.79,0.29,-0.30,-0.37,-0.35,3.49,3.49,3.50
110.74,3.78,0.34,3.78,0.34,-0.35,-0.38,-0.38,3.43,3.43,3.44
111.85,3.76,0.39,3.76,0.39,-0.39,-0.39,-0.41,3.37,3.37,3.37
112.97,3.75,0.44,3.75,0.44,-0.43,-0.40,-0.45,3.31,3.31,3.31
114.10,3.73,0.49,3.73,0.49,-0.47,-0.41,-0.48,3.26,3.26,3.24
115.24,3.72,0.53,3.72,0.53,-0.51,-0.42,-0.51,3.20,3.20,3.18
116.39,3.70,0.56,3.70,0.56,-0.55,-0.44,-0.54,3.15,3.15,3.13
117.55,3.68,0.58,3.68,0.58,-0.59,-0.45,-0.57,3.09,3.09,3.10
118.73,3.67,0.61,3.67,0.61,-0.64,-0.46,-0.60,3.03,3.03,3.05
119.92,3.65,0.65,3.65,0.66,-0.68,-0.48,-0.63,2.97,2.97,3.00
121.12,3.63,0.72,3.63,0.72,-0.73,-0.49,-0.66,2.90,2.90,2.91
122.33,3.62,0.79,3.62,0.79,-0.79,-0.51,-0.68,2.83,2.83,2.83
123.55,3.60,0.86,3.60,0.86,-0.85,-0.53,-0.71,2.75,2.75,2.75
124.79,3.59,0.92,3.59,0.92,-0.91,-0.54,-0.74,2.68,2.68,2.67
126.03,3.57,0.98,3.57,0.98,-0.97,-0.56,-0.76,2.60,2.60,2.60
127.29,3.55,1.03,3.55,1.03,-1.02,-0.58,-0.79,2.53,2.53,2.52
128.57,3.53,1.08,3.53,1.07,-1.06,-0.60,-0.81,2.47,2.47,2.46
129.85,3.52,1.11,3.52,1.11,-1.09,-0.62,-0.84,2.42,2.42,2.41
131.15,3.50,1.14,3.50,1.14,-1.12,-0.64,-0.86,2.37,2.37,2.36
132.46,3.48,1.16,3.48,1.16,-1.15,-0.66,-0.89,2.33,2.33,2.32
133.79,3.46,1.17,3.46,1.17,-1.18,-0.68,-0.91,2.28,2.28,2.29
135.12,3.44,1.19,3.44,1.19,-1.22,-0.71,-0.93,2.22,2.22,2.25
136.48,3.42,1.22,3.42,1.23,-1.26,-0.73,-0.96,2.16,2.16,2.20
137.84,3.40,1.28,3.40,1.28,-1.30,-0.76,-0.98,2.10,2.10,2.12
139.22,3.38,1.35,3.38,1.35,-1.35,-0.79,-1.00,2.02,2.02,2.03
140.61,3.36,1.42,3.36,1.42,-1.41,-0.81,-1.02,1.95,1.95,1.93
142.02,3.33,1.49,3.33,1.49,-1.47,-0.84,-1.05,1.87,1.87,1.85
143.44,3.31,1.54,3.31,1.54,-1.52,-0.87,-1.07,1.79,1.79,1.77
144.87,3.29,1.59,3.29,1.58,-1.58,-0.91,-1.09,1.71,1.71,1.70
146.32,3.26,1.62,3.26,1.63,-1.63,-0.94,-1.12,1.63,1.64,1.64
147.78,3.24,1.66,3.24,1.67,-1.67,-0.98,-1.14,1.57,1.57,1.58
149.26,3.22,1.70,3.22,1.70,-1.71,-1.01,-1.17,1.51,1.51,1.51
150.75,3.19,1.74,3.19,1.74,-1.74,-1.05,-1.19,1.45,1.45,1.45
152.26,3.17,1.78,3.17,1.78,-1.77,-1.09,-1.22,1.39,1.39,1.39
153.78,3.14,1.81,3.14,1.81,-1.80,-1.13,-1.25,1.34,1.34,1.34
155.32,3.12,1.83,3.12,1.83,-1.83,-1.18,-1.28,1.29,1.29,1.29
156.88,3.09,1.85,3.09,1.86,-1.86,-1.23,-1.31,1.23,1.23,1.24
158.44,3.07,1.88,3.07,1.88,-1.88,-1.27,-1.34,1.19,1.19,1.19
160.03,3.04,1.90,3.04,1.90,-1.90,-1.32,-1.37,1.14,1.14,1.14
161.63,3.02,1.93,3.02,1.93,-1.92,-1.38,-1.40,1.10,1.10,1.10
163.24,3.00,1.94,3.00,1.94,-1.94,-1.43,-1.43,1.07,1.07,1.06
164.88,2.98,1.96,2.98,1.96,-1.95,-1.49,-1.47,1.03,1.03,1.02
166.53,2.96,1.97,2.96,1.97,-1.97,-1.55,-1.50,0.99,0.99,0.99
168.19,2.94,1.99,2.94,1.99,-1.99,-1.62,-1.54,0.95,0.95,0.95
169.87,2.92,2.01,2.92,2.01,-2.02,-1.68,-1.58,0.89,0.89,0.91
171.57,2.89,2.04,2.89,2.04,-2.06,-1.75,-1.62,0.83,0.83,0.85
173.29,2.87,2.09,2.87,2.09,-2.11,-1.82,-1.66,0.76,0.76,0.78
175.02,2.84,2.15,2.84,2.15,-2.16,-1.89,-1.71,0.68,0.68,0.69
176.77,2.82,2.22,2.82,2.22,-2.23,-1.97,-1.75,0.59,0.59,0.59
178.54,2.79,2.30,2.79,2.30,-2.29,-2.05,-1.80,0.50,0.50,0.49
180.32,2.77,2.37,2.77,2.37,-2.35,-2.13,-1.84,0.41,0.41,0.40
182.13,2.74,2.43,2.74,2.43,-2.42,-2.21,-1.89,0.33,0.33,0.31
183.95,2.71,2.48,2.71,2.48,-2.47,-2.29,-1.94,0.24,0.24,0.23
185.79,2.69,2.53,2.69,2.53,-2.52,-2.38,-1.99,0.16,0.16,0.16
187.65,2.66,2.57,2.66,2.57,-2.57,-2.47,-2.05,0.09,0.09,0.09
189.52,2.63,2.60,2.63,2.60,-2.60,-2.55,-2.10,0.03,0.03,0.03
191.42,2.60,2.64,2.60,2.64,-2.64,-2.64,-2.15,-0.04,-0.04,-0.03
193.33,2.57,2.67,2.57,2.67,-2.67,-2.73,-2.21,-0.10,-0.10,-0.10
195.27,2.54,2.70,2.54,2.70,-2.71,-2.81,-2.27,-0.16,-0.16,-0.16
197.22,2.51,2.73,2.51,2.73,-2.74,-2.90,-2.33,-0.22,-0.22,-0.22
199.19,2.48,2.76,2.48,2.77,-2.77,-2.98,-2.38,-0.28,-0.28,-0.28
201.18,2.45,2.80,2.45,2.80,-2.79,-3.05,-2.44,-0.34,-0.34,-0.34
203.19,2.42,2.82,2.42,2.82,-2.82,-3.13,-2.50,-0.39,-0.40,-0.40
205.23,2.39,2.85,2.39,2.85,-2.84,-3.19,-2.56,-0.45,-0.45,-0.45
207.28,2.36,2.87,2.36,2.87,-2.86,-3.26,-2.62,-0.50,-0.50,-0.51
209.35,2.33,2.88,2.33,2.88,-2.88,-3.31,-2.68,-0.56,-0.56,-0.55
211.44,2.30,2.90,2.30,2.90,-2.90,-3.35,-2.74,-0.61,-0.60,-0.60
213.56,2.27,2.91,2.27,2.91,-2.92,-3.39,-2.80,-0.65,-0.65,-0.65
215.69,2.23,2.93,2.23,2.93,-2.93,-3.42,-2.85,-0.70,-0.70,-0.70
217.85,2.20,2.95,2.20,2.94,-2.95,-3.44,-2.91,-0.74,-0.74,-0.74
220.03,2.17,2.96,2.17,2.96,-2.96,-3.45,-2.96,-0.79,-0.79,-0.79
222.23,2.14,2.97,2.14,2.97,-2.97,-3.45,-3.01,-0.84,-0.84,-0.83
224.45,2.10,2.98,2.10,2.98,-2.98,-3.44,-3.06,-0.88,-0.88,-0.88
226.70,2.07,2.99,2.07,2.99,-2.99,-3.43,-3.11,-0.93,-0.92,-0.93
228.96,2.03,3.00,2.03,3.00,-3.00,-3.41,-3.15,-0.97,-0.97,-0.97
231.25,2.00,3.01,2.00,3.01,-3.00,-3.38,-3.19,-1.00,-1.00,-1.01
233.57,1.97,3.01,1.97,3.01,-3.01,-3.34,-3.23,-1.04,-1.04,-1.04
235.90,1.93,3.01,1.93,3.01,-3.01,-3.30,-3.26,-1.08,-1.08,-1.08
238.26,1.90,3.01,1.90,3.01,-3.01,-3.26,-3.29,-1.11,-1.11,-1.11
240.64,1.87,3.01,1.87,3.01,-3.01,-3.21,-3.31,-1.14,-1.15,-1.14
243.05,1.84,3.01,1.84,3.01,-3.01,-3.17,-3.33,-1.18,-1.18,-1.17
245.48,1.81,3.01,1.81,3.01,-3.01,-3.12,-3.34,-1.21,-1.21,-1.21
247.93,1.78,3.01,1.78,3.01,-3.01,-3.07,-3.35,-1.23,-1.23,-1.24
250.41,1.75,3.01,1.75,3.01,-3.01,-3.02,-3.35,-1.26,-1.26,-1.27
252.92,1.72,3.01,1.72,3.01,-3.01,-2.97,-3.35,-1.29,-1.29,-1.29
255.45,1.69,3.00,1.69,3.00,-3.01,-2.93,-3.34,-1.32,-1.32,-1.32
258.00,1.66,3.00,1.66,3.00,-3.00,-2.88,-3.33,-1.35,-1.35,-1.34
260.58,1.62,3.00,1.62,3.00,-3.00,-2.84,-3.31,-1.38,-1.38,-1.37
263.19,1.59,3.00,1.59,3.00,-3.00,-2.80,-3.29,-1.40,-1.40,-1.40
265.82,1.56,2.99,1.56,2.99,-2.99,-2.77,-3.26,-1.43,-1.43,-1.43
268.48,1.53,2.99,1.53,2.99,-2.98,-2.73,-3.23,-1.45,-1.45,-1.46
271.16,1.49,2.98,1.49,2.98,-2.97,-2.71,-3.19,-1.48,-1.48,-1.48
273.87,1.46,2.96,1.46,2.96,-2.96,-2.68,-3.15,-1.51,-1.51,-1.51
276.61,1.42,2.95,1.42,2.95,-2.95,-2.66,-3.11,-1.53,-1.53,-1.53
279.38,1.39,2.94,1.39,2.94,-2.94,-2.64,-3.07,-1.55,-1.55,-1.55
282.17,1.35,2.92,1.35,2.92,-2.92,-2.62,-3.02,-1.57,-1.57,-1.57
284.99,1.32,2.91,1.32,2.91,-2.91,-2.60,-2.97,-1.59,-1.59,-1.59
287.84,1.29,2.89,1.29,2.89,-2.89,-2.59,-2.91,-1.60,-1.60,-1.60
290.72,1.25,2.87,1.25,2.87,-2.87,-2.58,-2.86,-1.62,-1.62,-1.62
293.63,1.21,2.85,1.21,2.84,-2.84,-2.57,-2.80,-1.63,-1.63,-1.63
296.57,1.18,2.82,1.18,2.82,-2.82,-2.56,-2.75,-1.64,-1.64,-1.64
299.53,1.14,2.79,1.14,2.79,-2.80,-2.56,-2.69,-1.66,-1.66,-1.65
302.53,1.10,2.77,1.10,2.77,-2.77,-2.55,-2.63,-1.67,-1.67,-1.66
305.55,1.07,2.74,1.07,2.74,-2.74,-2.54,-2.57,-1.67,-1.67,-1.67
308.61,1.04,2.71,1.04,2.71,-2.71,-2.53,-2.52,-1.67,-1.67,-1.68
311.69,1.01,2.68,1.01,2.68,-2.68,-2.52,-2.46,-1.67,-1.67,-1.68
314.81,0.97,2.65,0.97,2.65,-2.65,-2.51,-2.40,-1.67,-1.67,-1.68
317.96,0.94,2.61,0.94,2.61,-2.61,-2.50,-2.34,-1.67,-1.67,-1.67
321.14,0.91,2.57,0.91,2.57,-2.58,-2.48,-2.29,-1.67,-1.67,-1.67
324.35,0.87,2.53,0.87,2.54,-2.54,-2.47,-2.23,-1.67,-1.67,-1.66
327.59,0.84,2.50,0.84,2.50,-2.50,-2.45,-2.18,-1.66,-1.66,-1.66
330.87,0.81,2.46,0.81,2.46,-2.46,-2.42,-2.13,-1.66,-1.66,-1.66
334.18,0.77,2.43,0.77,2.43,-2.43,-2.40,-2.07,-1.66,-1.66,-1.66
337.52,0.74,2.39,0.74,2.39,-2.39,-2.37,-2.02,-1.65,-1.65,-1.65
340.90,0.70,2.35,0.70,2.35,-2.35,-2.33,-1.97,-1.65,-1.65,-1.65
344.30,0.67,2.32,0.67,2.32,-2.32,-2.30,-1.92,-1.65,-1.65,-1.65
347.75,0.64,2.28,0.64,2.28,-2.28,-2.26,-1.88,-1.64,-1.64,-1.64
351.23,0.60,2.24,0.60,2.24,-2.24,-2.22,-1.83,-1.64,-1.64,-1.64
354.74,0.57,2.20,0.57,2.20,-2.20,-2.18,-1.79,-1.63,-1.63,-1.63
358.28,0.54,2.16,0.54,2.16,-2.16,-2.13,-1.75,-1.63,-1.63,-1.63
361.87,0.50,2.12,0.50,2.12,-2.12,-2.09,-1.71,-1.62,-1.62,-1.62
365.49,0.47,2.08,0.47,2.08,-2.09,-2.04,-1.67,-1.61,-1.61,-1.61
369.14,0.44,2.05,0.44,2.05,-2.05,-2.00,-1.63,-1.61,-1.61,-1.61
372.83,0.40,2.01,0.40,2.01,-2.01,-1.95,-1.59,-1.60,-1.60,-1.60
376.56,0.37,1.97,0.37,1.97,-1.97,-1.91,-1.55,-1.60,-1.60,-1.60
380.33,0.34,1.93,0.34,1.93,-1.93,-1.86,-1.52,-1.59,-1.59,-1.59
384.13,0.31,1.89,0.31,1.89,-1.89,-1.82,-1.49,-1.58,-1.58,-1.58
387.97,0.27,1.85,0.27,1.85,-1.85,-1.77,-1.46,-1.57,-1.57,-1.57
391.85,0.24,1.81,0.24,1.81,-1.81,-1.73,-1.42,-1.56,-1.56,-1.56
395.77,0.21,1.77,0.21,1.77,-1.77,-1.69,-1.40,-1.56,-1.56,-1.56
399.73,0.18,1.73,0.18,1.73,-1.73,-1.65,-1.37,-1.55,-1.55,-1.55
403.72,0.15,1.69,0.15,1.69,-1.69,-1.61,-1.34,-1.54,-1.54,-1.54
407.76,0.12,1.65,0.12,1.65,-1.65,-1.57,-1.31,-1.53,-1.53,-1.53
411.84,0.09,1.61,0.09,1.61,-1.61,-1.53,-1.29,-1.52,-1.52,-1.52
415.96,0.06,1.57,0.06,1.57,-1.57,-1.49,-1.26,-1.51,-1.51,-1.51
420.12,0.03,1.52,0.03,1.52,-1.52,-1.46,-1.24,-1.50,-1.50,-1.50
424.32,-0.00,1.48,-0.00,1.48,-1.48,-1.42,-1.22,-1.48,-1.48,-1.48
428.56,-0.03,1.44,-0.03,1.44,-1.44,-1.38,-1.20,-1.47,-1.47,-1.47
432.85,-0.06,1.40,-0.06,1.40,-1.40,-1.35,-1.18,-1.46,-1.46,-1.46
437.18,-0.09,1.35,-0.09,1.35,-1.35,-1.31,-1.16,-1.44,-1.44,-1.44
441.55,-0.12,1.31,-0.12,1.31,-1.31,-1.27,-1.14,-1.43,-1.43,-1.43
445.96,-0.15,1.27,-0.15,1.27,-1.27,-1.24,-1.12,-1.41,-1.41,-1.41
450.42,-0.18,1.22,-0.18,1.22,-1.22,-1.20,-1.10,-1.40,-1.40,-1.40
454.93,-0.20,1.18,-0.20,1.18,-1.18,-1.16,-1.08,-1.38,-1.38,-1.38
459.48,-0.23,1.14,-0.23,1.14,-1.14,-1.12,-1.06,-1.37,-1.37,-1.37
464.07,-0.26,1.10,-0.26,1.10,-1.10,-1.08,-1.04,-1.35,-1.35,-1.35
468.71,-0.28,1.06,-0.28,1.06,-1.06,-1.05,-1.02,-1.34,-1.34,-1.34
473.40,-0.31,1.02,-0.31,1.02,-1.02,-1.01,-1.01,-1.33,-1.33,-1.33
478.13,-0.34,0.98,-0.34,0.98,-0.98,-0.97,-0.99,-1.32,-1.32,-1.32
482.91,-0.37,0.94,-0.36,0.94,-0.94,-0.93,-0.97,-1.30,-1.30,-1.30
487.74,-0.39,0.90,-0.39,0.90,-0.90,-0.89,-0.95,-1.29,-1.29,-1.29
492.62,-0.42,0.86,-0.42,0.86,-0.86,-0.85,-0.94,-1.28,-1.28,-1.28
497.55,-0.44,0.83,-0.44,0.83,-0.83,-0.82,-0.92,-1.27,-1.27,-1.27
502.52,-0.47,0.79,-0.47,0.79,-0.79,-0.78,-0.90,-1.26,-1.26,-1.26
507.55,-0.50,0.75,-0.50,0.75,-0.75,-0.74,-0.88,-1.25,-1.25,-1.25
512.62,-0.52,0.71,-0.52,0.71,-0.71,-0.71,-0.87,-1.24,-1.24,-1.24
517.75,-0.55,0.68,-0.55,0.68,-0.68,-0.68,-0.85,-1.23,-1.23,-1.23
