frequency,raw,error,smoothed,error_smoothed,equalization,parametric_eq,fixed_band_eq,equalized_raw,equalized_smoothed,target
20.00,10.98,-3.07,10.98,-3.07,3.08,-0.10,0.57,14.06,14.06,14.05
20.20,11.01,-3.01,11.01,-3.01,3.01,-0.11,0.59,14.02,14.02,14.01
20.40,11.03,-2.95,11.03,-2.95,2.94,-0.11,0.60,13.98,13.98,13.98
20.61,11.06,-2.88,11.06,-2.88,2.88,-0.11,0.62,13.94,13.94,13.95
20.81,11.09,-2.82,11.09,-2.82,2.81,-0.11,0.64,13.91,13.91,13.91
21.02,11.12,-2.76,11.12,-2.76,2.75,-0.11,0.67,13.88,13.88,13.88
21.23,11.15,-2.70,11.15,-2.70,2.69,-0.12,0.69,13.85,13.84,13.85
21.44,11.18,-2.64,11.18,-2.64,2.64,-0.12,0.71,13.81,13.81,13.81
21.66,11.20,-2.58,11.20,-2.58,2.58,-0.12,0.73,13.78,13.78,13.78
21.87,11.22,-2.52,11.22,-2.52,2.52,-0.12,0.76,13.74,13.74,13.74
22.09,11.24,-2.47,11.24,-2.47,2.47,-0.13,0.78,13.71,13.71,13.70
22.31,11.25,-2.42,11.25,-2.42,2.42,-0.13,0.80,13.67,13.67,13.67
22.54,11.26,-2.37,11.26,-2.37,2.38,-0.13,0.83,13.63,13.63,13.63
22.76,11.26,-2.33,11.26,-2.33,2.34,-0.13,0.86,13.59,13.59,13.59
22.99,11.26,-2.29,11.26,-2.29,2.30,-0.14,0.88,13.56,13.56,13.55
23.22,11.26,-2.26,11.26,-2.26,2.26,-0.14,0.91,13.52,13.52,13.51
23.45,11.25,-2.22,11.25,-2.22,2.22,-0.14,0.94,13.47,13.47,13.48
23.69,11.25,-2.19,11.25,-2.19,2.19,-0.15,0.97,13.43,13.43,13.43
23.92,11.24,-2.15,11.24,-2.15,2.15,-0.15,0.99,13.39,13.39,13.39
24.16,11.24,-2.11,11.24,-2.11,2.11,-0.15,1.02,13.35,13.35,13.35
24.40,11.24,-2.07,11.24,-2.07,2.06,-0.16,1.05,13.30,13.30,13.31
24.65,11.24,-2.02,11.24,-2.02,2.02,-0.16,1.08,13.26,13.26,13.26
24.89,11.25,-1.97,11.25,-1.97,1.97,-0.16,1.11,13.22,13.22,13.22
25.14,11.26,-1.92,11.26,-1.92,1.91,-0.17,1.14,13.18,13.18,13.18
25.39,11.28,-1.86,11.28,-1.86,1.86,-0.17,1.17,13.14,13.14,13.14
25.65,11.30,-1.80,11.30,-1.80,1.80,-0.17,1.20,13.10,13.10,13.10
25.91,11.32,-1.74,11.32,-1.74,1.74,-0.18,1.23,13.07,13.07,13.06
26.16,11.34,-1.68,11.34,-1.69,1.69,-0.18,1.26,13.03,13.03,13.03
26.43,11.36,-1.63,11.36,-1.63,1.63,-0.18,1.29,12.99,12.99,12.98
26.69,11.37,-1.57,11.37,-1.57,1.58,-0.19,1.32,12.94,12.94,12.94
26.96,11.38,-1.52,11.38,-1.52,1.52,-0.19,1.34,12.90,12.90,12.90
27.23,11.38,-1.47,11.38,-1.47,1.47,-0.20,1.37,12.85,12.85,12.85
27.50,11.39,-1.42,11.39,-1.42,1.42,-0.20,1.39,12.81,12.81,12.81
27.77,11.39,-1.37,11.39,-1.37,1.37,-0.20,1.41,12.76,12.76,12.76
28.05,11.40,-1.32,11.40,-1.32,1.32,-0.21,1.44,12.72,12.72,12.72
28.33,11.41,-1.27,11.41,-1.27,1.26,-0.21,1.45,12.67,12.67,12.68
28.62,11.42,-1.21,11.42,-1.21,1.21,-0.22,1.47,12.63,12.63,12.63
28.90,11.43,-1.16,11.43,-1.16,1.15,-0.22,1.48,12.58,12.58,12.59
29.19,11.44,-1.10,11.44,-1.10,1.10,-0.23,1.50,12.54,12.54,12.54
29.48,11.45,-1.05,11.45,-1.05,1.04,-0.23,1.50,12.49,12.49,12.50
29.78,11.46,-0.99,11.46,-0.99,0.99,-0.24,1.51,12.45,12.45,12.45
30.08,11.46,-0.93,11.46,-0.93,0.94,-0.24,1.51,12.40,12.40,12.40
30.38,11.47,-0.88,11.47,-0.88,0.89,-0.25,1.51,12.36,12.36,12.35
30.68,11.47,-0.84,11.47,-0.84,0.84,-0.25,1.51,12.31,12.31,12.30
30.99,11.46,-0.80,11.46,-0.80,0.80,-0.26,1.50,12.26,12.26,12.26
31.30,11.46,-0.76,11.46,-0.76,0.76,-0.26,1.49,12.22,12.21,12.21
31.61,11.44,-0.72,11.44,-0.72,0.72,-0.27,1.48,12.17,12.17,12.17
31.93,11.43,-0.69,11.43,-0.69,0.68,-0.27,1.46,12.11,12.12,12.12
32.24,11.42,-0.65,11.42,-0.65,0.65,-0.28,1.44,12.07,12.07,12.07
32.57,11.41,-0.61,11.41,-0.61,0.61,-0.29,1.41,12.02,12.02,12.02
32.89,11.40,-0.57,11.40,-0.57,0.57,-0.29,1.39,11.97,11.97,11.97
33.22,11.40,-0.53,11.40,-0.53,0.53,-0.30,1.36,11.93,11.93,11.93
33.55,11.39,-0.49,11.39,-0.49,0.49,-0.31,1.32,11.88,11.88,11.88
33.89,11.38,-0.45,11.38,-0.45,0.45,-0.31,1.28,11.83,11.83,11.83
34.23,11.37,-0.41,11.37,-0.41,0.41,-0.32,1.25,11.78,11.78,11.78
34.57,11.36,-0.37,11.36,-0.37,0.37,-0.33,1.20,11.73,11.73,11.73
34.92,11.35,-0.33,11.35,-0.33,0.33,-0.33,1.16,11.68,11.68,11.68
35.27,11.35,-0.29,11.35,-0.29,0.28,-0.34,1.11,11.63,11.63,11.63
35.62,11.34,-0.24,11.34,-0.24,0.24,-0.35,1.06,11.58,11.58,11.58
35.97,11.34,-0.20,11.34,-0.20,0.19,-0.36,1.01,11.53,11.53,11.54
36.33,11.34,-0.15,11.34,-0.15,0.15,-0.36,0.96,11.48,11.48,11.49
36.70,11.34,-0.10,11.34,-0.10,0.10,-0.37,0.91,11.44,11.44,11.44
37.06,11.34,-0.05,11.33,-0.05,0.05,-0.38,0.85,11.39,11.39,11.38
37.43,11.33,-0.00,11.33,-0.00,0.00,-0.39,0.80,11.33,11.33,11.33
37.81,11.32,0.04,11.32,0.04,-0.04,-0.40,0.74,11.28,11.28,11.27
38.19,11.30,0.09,11.30,0.09,-0.08,-0.41,0.68,11.22,11.22,11.22
38.57,11.28,0.12,11.28,0.13,-0.12,-0.41,0.62,11.16,11.16,11.16
38.95,11.26,0.16,11.26,0.16,-0.16,-0.42,0.56,11.10,11.10,11.10
39.34,11.24,0.20,11.24,0.20,-0.20,-0.43,0.50,11.05,11.05,11.04
39.74,11.23,0.23,11.23,0.23,-0.23,-0.44,0.44,11.00,11.00,10.99
40.14,11.21,0.27,11.22,0.27,-0.27,-0.45,0.38,10.95,10.95,10.95
40.54,11.21,0.30,11.21,0.30,-0.30,-0.46,0.32,10.90,10.90,10.91
40.94,11.20,0.33,11.20,0.33,-0.35,-0.47,0.26,10.85,10.85,10.87
41.35,11.19,0.37,11.19,0.37,-0.39,-0.48,0.20,10.80,10.80,10.81
41.76,11.17,0.42,11.17,0.42,-0.43,-0.49,0.14,10.74,10.74,10.75
42.18,11.15,0.48,11.15,0.48,-0.47,-0.50,0.07,10.69,10.69,10.68
42.60,11.14,0.53,11.14,0.53,-0.51,-0.52,0.01,10.63,10.63,10.61
43.03,11.12,0.57,11.11,0.57,-0.55,-0.53,-0.05,10.56,10.56,10.55
43.46,11.09,0.60,11.09,0.60,-0.60,-0.54,-0.12,10.50,10.50,10.50
43.90,11.07,0.62,11.07,0.63,-0.64,-0.55,-0.18,10.44,10.44,10.45
44.33,11.06,0.66,11.06,0.66,-0.68,-0.56,-0.24,10.38,10.38,10.40
44.78,11.05,0.71,11.05,0.71,-0.72,-0.58,-0.31,10.33,10.33,10.34
45.23,11.04,0.76,11.04,0.76,-0.76,-0.59,-0.37,10.28,10.28,10.28
45.68,11.03,0.81,11.03,0.81,-0.80,-0.60,-0.43,10.23,10.23,10.22
46.13,11.01,0.86,11.01,0.86,-0.84,-0.62,-0.50,10.18,10.17,10.16
46.60,10.99,0.89,10.99,0.89,-0.87,-0.63,-0.56,10.12,10.12,10.10
47.06,10.96,0.91,10.96,0.91,-0.90,-0.64,-0.63,10.06,10.06,10.05
47.53,10.92,0.93,10.92,0.93,-0.92,-0.66,-0.69,10.00,10.00,9.99
48.01,10.88,0.94,10.88,0.94,-0.94,-0.67,-0.75,9.94,9.94,9.95
48.49,10.84,0.95,10.84,0.95,-0.96,-0.69,-0.82,9.88,9.88,9.90
48.97,10.81,0.97,10.81,0.97,-0.99,-0.70,-0.88,9.82,9.82,9.84
49.46,10.78,0.99,10.79,1.00,-1.02,-0.72,-0.95,9.76,9.77,9.79
49.96,10.77,1.04,10.77,1.04,-1.05,-0.74,-1.01,9.72,9.72,9.74
50.46,10.77,1.09,10.77,1.09,-1.08,-0.75,-1.07,9.69,9.68,9.68
50.96,10.76,1.14,10.76,1.14,-1.12,-0.77,-1.14,9.64,9.64,9.62
51.47,10.74,1.18,10.74,1.17,-1.15,-0.79,-1.20,9.59,9.58,9.56
51.99,10.70,1.20,10.70,1.20,-1.19,-0.81,-1.26,9.51,9.51,9.50
52.51,10.66,1.22,10.66,1.22,-1.22,-0.82,-1.32,9.44,9.44,9.44
53.03,10.61,1.23,10.62,1.24,-1.24,-0.84,-1.38,9.37,9.37,9.38
53.56,10.58,1.26,10.58,1.26,-1.27,-0.86,-1.44,9.31,9.31,9.32
54.10,10.54,1.29,10.54,1.29,-1.29,-0.88,-1.50,9.25,9.25,9.25
54.64,10.50,1.31,10.50,1.31,-1.31,-0.90,-1.56,9.19,9.19,9.19
55.18,10.46,1.33,10.46,1.33,-1.33,-0.92,-1.61,9.13,9.13,9.13
55.74,10.43,1.35,10.43,1.35,-1.36,-0.94,-1.66,9.07,9.08,9.08
56.29,10.41,1.38,10.41,1.38,-1.38,-0.97,-1.72,9.02,9.02,9.03
56.86,10.38,1.41,10.38,1.41,-1.41,-0.99,-1.77,8.98,8.98,8.97
57.42,10.36,1.44,10.36,1.44,-1.43,-1.01,-1.81,8.93,8.93,8.92
58.00,10.33,1.47,10.33,1.46,-1.46,-1.03,-1.86,8.88,8.87,8.87
58.58,10.30,1.49,10.30,1.49,-1.49,-1.06,-1.90,8.82,8.82,8.81
59.16,10.27,1.51,10.27,1.51,-1.51,-1.08,-1.94,8.75,8.76,8.76
59.76,10.24,1.53,10.24,1.53,-1.54,-1.10,-1.98,8.69,8.70,8.71
60.35,10.21,1.56,10.21,1.57,-1.57,-1.13,-2.01,8.64,8.64,8.65
60.96,10.18,1.60,10.19,1.60,-1.60,-1.15,-2.04,8.58,8.58,8.58
61.57,10.16,1.64,10.16,1.64,-1.63,-1.18,-2.07,8.53,8.53,8.52
62.18,10.13,1.67,10.13,1.67,-1.66,-1.21,-2.09,8.47,8.47,8.46
62.80,10.09,1.69,10.09,1.69,-1.69,-1.23,-2.11,8.40,8.40,8.40
63.43,10.06,1.71,10.06,1.71,-1.72,-1.26,-2.13,8.34,8.34,8.34
64.07,10.02,1.74,10.02,1.74,-1.74,-1.29,-2.14,8.28,8.28,8.28
64.71,9.99,1.77,9.99,1.76,-1.77,-1.32,-2.15,8.22,8.22,8.22
65.35,9.95,1.79,9.95,1.79,-1.79,-1.35,-2.16,8.16,8.16,8.16
66.01,9.92,1.82,9.92,1.82,-1.81,-1.38,-2.17,8.11,8.10,8.10
66.67,9.88,1.84,9.88,1.84,-1.84,-1.41,-2.17,8.04,8.04,8.04
67.33,9.84,1.86,9.84,1.86,-1.86,-1.44,-2.17,7.98,7.98,7.98
68.01,9.80,1.88,9.80,1.88,-1.88,-1.47,-2.17,7.92,7.92,7.92
68.69,9.76,1.90,9.76,1.90,-1.91,-1.50,-2.16,7.86,7.86,7.86
69.37,9.73,1.92,9.73,1.92,-1.93,-1.53,-2.16,7.80,7.80,7.80
70.07,9.69,1.95,9.69,1.95,-1.95,-1.56,-2.15,7.74,7.74,7.74
70.77,9.65,1.97,9.65,1.97,-1.97,-1.60,-2.14,7.69,7.69,7.69
71.48,9.61,1.99,9.61,1.99,-1.98,-1.63,-2.13,7.63,7.63,7.63
72.19,9.57,2.00,9.57,2.00,-2.00,-1.66,-2.12,7.57,7.57,7.57
72.91,9.53,2.02,9.53,2.01,-2.01,-1.70,-2.11,7.51,7.51,7.51
73.64,9.48,2.02,9.48,2.03,-2.03,-1.73,-2.10,7.45,7.45,7.45
74.38,9.43,2.03,9.43,2.04,-2.04,-1.77,-2.09,7.39,7.39,7.39
75.12,9.38,2.05,9.38,2.05,-2.05,-1.80,-2.07,7.33,7.33,7.33
75.87,9.34,2.06,9.34,2.06,-2.06,-1.84,-2.06,7.27,7.27,7.27
76.63,9.29,2.07,9.29,2.07,-2.08,-1.87,-2.05,7.22,7.22,7.22
77.40,9.25,2.09,9.25,2.09,-2.09,-1.91,-2.04,7.16,7.16,7.16
78.17,9.20,2.10,9.20,2.10,-2.10,-1.95,-2.03,7.10,7.10,7.10
78.95,9.16,2.12,9.16,2.12,-2.12,-1.98,-2.02,7.04,7.04,7.04
79.74,9.11,2.13,9.11,2.13,-2.13,-2.02,-2.01,6.99,6.99,6.98
80.54,9.07,2.14,9.07,2.14,-2.14,-2.05,-2.00,6.93,6.93,6.93
81.35,9.02,2.15,9.02,2.15,-2.15,-2.09,-1.99,6.87,6.87,6.86
82.16,8.97,2.16,8.97,2.16,-2.16,-2.12,-1.99,6.81,6.81,6.81
82.98,8.92,2.17,8.92,2.17,-2.17,-2.16,-1.98,6.75,6.75,6.75
83.81,8.87,2.18,8.87,2.18,-2.18,-2.19,-1.98,6.69,6.69,6.69
84.65,8.82,2.19,8.82,2.19,-2.20,-2.23,-1.98,6.63,6.63,6.63
85.50,8.78,2.20,8.78,2.20,-2.21,-2.26,-1.98,6.57,6.57,6.57
86.35,8.73,2.22,8.74,2.22,-2.23,-2.29,-1.98,6.51,6.51,6.51
87.22,8.70,2.24,8.70,2.24,-2.24,-2.33,-1.99,6.45,6.45,6.45
88.09,8.66,2.26,8.66,2.26,-2.26,-2.36,-1.99,6.40,6.40,6.40
88.97,8.62,2.28,8.62,2.28,-2.27,-2.39,-2.00,6.35,6.35,6.34
89.86,8.58,2.29,8.58,2.29,-2.28,-2.42,-2.00,6.30,6.30,6.29
90.76,8.53,2.30,8.53,2.29,-2.29,-2.45,-2.01,6.24,6.24,6.23
91.66,8.48,2.30,8.48,2.30,-2.29,-2.48,-2.02,6.18,6.18,6.18
92.58,8.42,2.30,8.42,2.30,-2.30,-2.50,-2.04,6.12,6.12,6.12
93.51,8.36,2.30,8.36,2.30,-2.30,-2.53,-2.05,6.06,6.06,6.06
94.44,8.31,2.30,8.31,2.30,-2.31,-2.55,-2.07,6.00,6.00,6.00
95.39,8.25,2.30,8.25,2.31,-2.31,-2.58,-2.08,5.94,5.94,5.95
96.34,8.20,2.32,8.20,2.32,-2.32,-2.60,-2.10,5.88,5.88,5.89
97.30,8.16,2.33,8.16,2.33,-2.33,-2.62,-2.12,5.83,5.83,5.83
98.28,8.12,2.34,8.12,2.34,-2.34,-2.64,-2.14,5.78,5.78,5.78
99.26,8.07,2.35,8.07,2.35,-2.35,-2.65,-2.16,5.73,5.73,5.72
100.25,8.02,2.36,8.02,2.36,-2.35,-2.67,-2.19,5.67,5.67,5.66
101.25,7.97,2.36,7.96,2.36,-2.35,-2.68,-2.21,5.62,5.61,5.61
102.27,7.90,2.35,7.90,2.35,-2.35,-2.69,-2.23,5.55,5.55,5.55
103.29,7.84,2.34,7.84,2.34,-2.34,-2.70,-2.26,5.49,5.49,5.49
104.32,7.77,2.33,7.77,2.33,-2.34,-2.70,-2.28,5.43,5.43,5.44
105.37,7.71,2.32,7.71,2.33,-2.33,-2.71,-2.31,5.38,5.38,5.39
106.42,7.65,2.32,7.65,2.32,-2.33,-2.71,-2.34,5.33,5.33,5.33
107.48,7.60,2.32,7.60,2.32,-2.32,-2.71,-2.36,5.27,5.27,5.27
108.56,7.54,2.32,7.54,2.32,-2.32,-2.71,-2.39,5.22,5.22,5.22
109.64,7.48,2.32,7.48,2.32,-2.31,-2.71,-2.41,5.17,5.17,5.17
110.74,7.43,2.31,7.43,2.31,-2.31,-2.70,-2.43,5.12,5.11,5.12
111.85,7.37,2.31,7.37,2.31,-2.31,-2.70,-2.46,5.06,5.06,5.06
112.97,7.31,2.31,7.31,2.31,-2.30,-2.69,-2.48,5.00,5.00,5.00
114.10,7.25,2.30,7.25,2.30,-2.30,-2.68,-2.50,4.95,4.95,4.95
115.24,7.19,2.30,7.19,2.30,-2.30,-2.66,-2.51,4.89,4.89,4.89
116.39,7.13,2.29,7.13,2.29,-2.29,-2.65,-2.53,4.84,4.84,4.84
117.55,7.08,2.29,7.08,2.29,-2.29,-2.63,-2.54,4.79,4.79,4.79
118.73,7.02,2.29,7.02,2.28,-2.29,-2.61,-2.55,4.73,4.74,4.74
119.92,6.97,2.28,6.97,2.28,-2.29,-2.60,-2.56,4.69,4.69,4.69
121.12,6.92,2.28,6.92,2.28,-2.28,-2.58,-2.57,4.64,4.64,4.64
122.33,6.86,2.29,6.86,2.28,-2.27,-2.55,-2.57,4.59,4.59,4.57
123.55,6.80,2.28,6.80,2.27,-2.27,-2.53,-2.57,4.53,4.53,4.52
124.79,6.73,2.26,6.73,2.26,-2.26,-2.51,-2.57,4.48,4.48,4.47
126.03,6.66,2.24,6.66,2.24,-2.25,-2.48,-2.56,4.42,4.42,4.42
127.29,6.60,2.23,6.60,2.23,-2.24,-2.45,-2.55,4.36,4.36,4.37
128.57,6.54,2.22,6.54,2.22,-2.23,-2.43,-2.54,4.31,4.31,4.31
129.85,6.48,2.22,6.48,2.22,-2.22,-2.40,-2.53,4.26,4.26,4.26
131.15,6.43,2.21,6.43,2.21,-2.22,-2.37,-2.51,4.21,4.21,4.21
132.46,6.37,2.21,6.37,2.21,-2.21,-2.34,-2.49,4.16,4.16,4.16
133.79,6.32,2.21,6.32,2.21,-2.20,-2.32,-2.47,4.12,4.12,4.12
135.12,6.26,2.20,6.26,2.20,-2.20,-2.29,-2.44,4.07,4.07,4.06
136.48,6.21,2.20,6.21,2.19,-2.19,-2.26,-2.42,4.01,4.01,4.01
137.84,6.15,2.19,6.15,2.18,-2.18,-2.23,-2.39,3.96,3.97,3.96
139.22,6.08,2.17,6.08,2.17,-2.17,-2.20,-2.36,3.92,3.92,3.91
140.61,6.02,2.16,6.02,2.16,-2.15,-2.17,-2.32,3.87,3.87,3.87
142.02,5.96,2.14,5.96,2.14,-2.14,-2.14,-2.29,3.82,3.82,3.82
143.44,5.89,2.13,5.89,2.12,-2.12,-2.11,-2.25,3.77,3.77,3.77
144.87,5.83,2.11,5.83,2.11,-2.11,-2.08,-2.22,3.72,3.72,3.72
146.32,5.77,2.09,5.77,2.09,-2.10,-2.06,-2.18,3.67,3.67,3.67
147.78,5.71,2.09,5.71,2.09,-2.09,-2.03,-2.15,3.62,3.62,3.62
149.26,5.65,2.08,5.65,2.08,-2.08,-2.00,-2.11,3.57,3.57,3.57
150.75,5.60,2.08,5.60,2.08,-2.08,-1.98,-2.07,3.52,3.52,3.52
152.26,5.55,2.08,5.55,2.08,-2.08,-1.96,-2.04,3.48,3.48,3.47
153.78,5.51,2.08,5.51,2.08,-2.08,-1.93,-2.00,3.43,3.43,3.43
155.32,5.46,2.08,5.46,2.08,-2.08,-1.91,-1.96,3.39,3.39,3.38
156.88,5.42,2.08,5.41,2.08,-2.07,-1.89,-1.93,3.34,3.34,3.34
158.44,5.36,2.07,5.36,2.07,-2.07,-1.87,-1.89,3.29,3.29,3.29
160.03,5.31,2.07,5.31,2.07,-2.07,-1.85,-1.86,3.24,3.24,3.24
161.63,5.26,2.07,5.26,2.07,-2.07,-1.84,-1.83,3.19,3.19,3.20
163.24,5.22,2.07,5.22,2.07,-2.07,-1.82,-1.79,3.15,3.15,3.15
164.88,5.17,2.07,5.17,2.07,-2.06,-1.81,-1.76,3.11,3.11,3.10
166.53,5.12,2.06,5.12,2.06,-2.06,-1.79,-1.73,3.06,3.06,3.06
168.19,5.07,2.06,5.07,2.06,-2.05,-1.79,-1.70,3.02,3.02,3.01
169.87,5.02,2.04,5.02,2.05,-2.05,-1.78,-1.67,2.97,2.97,2.97
171.57,4.96,2.04,4.96,2.04,-2.04,-1.77,-1.65,2.92,2.92,2.92
173.29,4.91,2.03,4.91,2.03,-2.03,-1.77,-1.62,2.87,2.87,2.87
175.02,4.85,2.03,4.85,2.02,-2.03,-1.77,-1.60,2.83,2.83,2.83
176.77,4.80,2.02,4.80,2.02,-2.01,-1.77,-1.58,2.78,2.78,2.78
178.54,4.74,2.01,4.74,2.01,-2.00,-1.77,-1.55,2.74,2.74,2.74
180.32,4.69,2.00,4.69,1.99,-1.99,-1.78,-1.53,2.70,2.70,2.69
182.13,4.63,1.97,4.63,1.98,-1.98,-1.79,-1.51,2.65,2.65,2.65
183.95,4.56,1.96,4.56,1.96,-1.96,-1.80,-1.50,2.60,2.60,2.60
185.79,4.50,1.95,4.50,1.94,-1.95,-1.81,-1.48,2.56,2.56,2.56
187.65,4.44,1.93,4.44,1.93,-1.93,-1.82,-1.46,2.51,2.51,2.52
189.52,4.38,1.92,4.38,1.91,-1.92,-1.84,-1.45,2.47,2.47,2.47
191.42,4.32,1.90,4.32,1.90,-1.90,-1.85,-1.44,2.42,2.42,2.42
193.33,4.26,1.89,4.26,1.89,-1.89,-1.87,-1.42,2.38,2.38,2.37
195.27,4.20,1.88,4.20,1.88,-1.87,-1.89,-1.41,2.33,2.33,2.32
197.22,4.14,1.86,4.14,1.86,-1.86,-1.90,-1.40,2.28,2.28,2.28
199.19,4.07,1.84,4.07,1.84,-1.85,-1.92,-1.39,2.22,2.23,2.23
201.18,4.01,1.83,4.01,1.83,-1.84,-1.93,-1.38,2.17,2.17,2.18
203.19,3.95,1.83,3.95,1.82,-1.83,-1.93,-1.38,2.12,2.12,2.12
205.23,3.89,1.82,3.89,1.82,-1.82,-1.93,-1.37,2.07,2.07,2.07
207.28,3.84,1.82,3.84,1.82,-1.82,-1.93,-1.36,2.02,2.02,2.02
209.35,3.78,1.82,3.78,1.82,-1.82,-1.92,-1.35,1.96,1.96,1.96
211.44,3.72,1.82,3.72,1.82,-1.83,-1.90,-1.35,1.90,1.90,1.90
213.56,3.67,1.83,3.67,1.83,-1.84,-1.87,-1.34,1.82,1.82,1.84
215.69,3.61,1.84,3.61,1.84,-1.86,-1.83,-1.34,1.75,1.75,1.77
217.85,3.55,1.84,3.55,1.84,-1.88,-1.78,-1.33,1.67,1.67,1.70
220.03,3.49,1.85,3.49,1.85,-1.88,-1.72,-1.32,1.60,1.60,1.64
222.23,3.43,1.86,3.43,1.86,-1.86,-1.65,-1.32,1.56,1.56,1.57
224.45,3.36,1.86,3.36,1.86,-1.81,-1.57,-1.31,1.55,1.56,1.51
226.70,3.30,1.82,3.30,1.81,-1.72,-1.48,-1.30,1.59,1.59,1.48
228.96,3.24,1.71,3.24,1.71,-1.59,-1.39,-1.29,1.65,1.65,1.53
231.25,3.18,1.53,3.18,1.52,-1.44,-1.28,-1.28,1.74,1.74,1.65
233.57,3.12,1.29,3.12,1.28,-1.27,-1.18,-1.27,1.85,1.85,1.84
235.90,3.06,1.00,3.06,1.03,-1.10,-1.07,-1.26,1.97,1.97,2.06
238.26,3.00,0.83,3.00,0.83,-0.93,-0.96,-1.25,2.07,2.07,2.18
240.64,2.94,0.68,2.94,0.69,-0.79,-0.86,-1.23,2.16,2.16,2.26
243.05,2.88,0.61,2.88,0.62,-0.67,-0.76,-1.22,2.21,2.21,2.27
245.48,2.82,0.58,2.82,0.58,-0.59,-0.69,-1.20,2.23,2.23,2.24
247.93,2.76,0.57,2.76,0.57,-0.55,-0.62,-1.18,2.22,2.22,2.20
250.41,2.71,0.56,2.71,0.56,-0.53,-0.58,-1.16,2.18,2.18,2.14
252.92,2.65,0.56,2.65,0.56,-0.53,-0.54,-1.14,2.12,2.12,2.09
255.45,2.60,0.55,2.60,0.55,-0.54,-0.52,-1.12,2.06,2.06,2.04
258.00,2.54,0.55,2.54,0.54,-0.54,-0.50,-1.09,2.00,2.00,2.00
260.58,2.49,0.54,2.49,0.54,-0.54,-0.48,-1.06,1.95,1.95,1.95
263.19,2.44,0.53,2.44,0.53,-0.53,-0.46,-1.04,1.90,1.90,1.90
265.82,2.38,0.53,2.38,0.53,-0.53,-0.44,-1.01,1.86,1.86,1.86
268.48,2.33,0.52,2.33,0.52,-0.52,-0.42,-0.98,1.82,1.82,1.81
271.16,2.28,0.51,2.28,0.51,-0.51,-0.40,-0.94,1.78,1.78,1.78
273.87,2.23,0.49,2.23,0.49,-0.49,-0.38,-0.91,1.74,1.74,1.74
276.61,2.18,0.48,2.18,0.48,-0.48,-0.36,-0.87,1.70,1.70,1.71
279.38,2.13,0.46,2.13,0.46,-0.46,-0.33,-0.84,1.67,1.67,1.67
282.17,2.08,0.44,2.08,0.44,-0.44,-0.30,-0.80,1.64,1.64,1.64
284.99,2.03,0.42,2.03,0.42,-0.42,-0.28,-0.76,1.61,1.61,1.61
287.84,1.98,0.40,1.98,0.40,-0.39,-0.25,-0.72,1.58,1.58,1.58
290.72,1.92,0.37,1.92,0.37,-0.37,-0.22,-0.68,1.55,1.55,1.55
293.63,1.87,0.34,1.87,0.34,-0.34,-0.19,-0.64,1.53,1.53,1.52
296.57,1.81,0.31,1.81,0.31,-0.31,-0.17,-0.60,1.50,1.50,1.50
299.53,1.76,0.28,1.76,0.28,-0.28,-0.14,-0.56,1.47,1.47,1.48
302.53,1.70,0.25,1.70,0.25,-0.25,-0.11,-0.52,1.45,1.45,1.45
305.55,1.65,0.22,1.65,0.22,-0.22,-0.08,-0.48,1.42,1.42,1.42
308.61,1.59,0.19,1.59,0.19,-0.19,-0.05,-0.43,1.40,1.40,1.40
311.69,1.54,0.16,1.54,0.16,-0.16,-0.03,-0.39,1.38,1.38,1.38
314.81,1.49,0.13,1.49,0.13,-0.13,-0.00,-0.35,1.35,1.35,1.35
317.96,1.44,0.11,1.44,0.11,-0.11,0.03,-0.30,1.33,1.33,1.33
321.14,1.39,0.08,1.39,0.08,-0.08,0.05,-0.26,1.31,1.31,1.31
324.35,1.35,0.05,1.35,0.05,-0.06,0.08,-0.21,1.29,1.29,1.29
327.59,1.30,0.03,1.30,0.03,-0.03,0.11,-0.17,1.27,1.27,1.27
330.87,1.26,0.01,1.26,0.00,-0.01,0.13,-0.12,1.25,1.25,1.25
334.18,1.22,-0.02,1.22,-0.02,0.02,0.16,-0.08,1.23,1.23,1.23
337.52,1.17,-0.04,1.17,-0.04,0.04,0.18,-0.03,1.22,1.22,1.21
340.90,1.13,-0.06,1.13,-0.07,0.07,0.21,0.01,1.20,1.20,1.19
344.30,1.08,-0.10,1.08,-0.09,0.10,0.23,0.06,1.18,1.18,1.18
347.75,1.04,-0.13,1.04,-0.13,0.13,0.26,0.10,1.16,1.16,1.16
351.23,0.99,-0.16,0.99,-0.16,0.16,0.29,0.15,1.15,1.15,1.15
354.74,0.94,-0.19,0.94,-0.19,0.19,0.31,0.20,1.13,1.13,1.13
358.28,0.89,-0.22,0.89,-0.22,0.22,0.34,0.24,1.12,1.12,1.12
361.87,0.85,-0.26,0.85,-0.26,0.26,0.36,0.29,1.10,1.10,1.11
365.49,0.80,-0.29,0.80,-0.29,0.29,0.39,0.33,1.09,1.09,1.09
369.14,0.75,-0.33,0.75,-0.33,0.33,0.41,0.38,1.08,1.08,1.08
372.83,0.71,-0.36,0.71,-0.36,0.36,0.44,0.43,1.07,1.07,1.07
376.56,0.66,-0.40,0.66,-0.40,0.39,0.46,0.47,1.05,1.05,1.06
380.33,0.61,-0.43,0.61,-0.43,0.43,0.49,0.52,1.04,1.04,1.05
384.13,0.57,-0.46,0.57,-0.46,0.46,0.51,0.57,1.03,1.03,1.03
387.97,0.52,-0.49,0.52,-0.50,0.50,0.54,0.61,1.02,1.02,1.02
391.85,0.48,-0.53,0.48,-0.53,0.53,0.56,0.66,1.01,1.01,1.01
395.77,0.44,-0.56,0.44,-0.56,0.56,0.59,0.71,1.00,1.00,1.00
399.73,0.39,-0.59,0.39,-0.59,0.59,0.61,0.75,0.99,0.99,0.98
403.72,0.35,-0.63,0.35,-0.63,0.63,0.64,0.80,0.98,0.98,0.98
407.76,0.31,-0.66,0.31,-0.66,0.66,0.66,0.85,0.97,0.97,0.97
411.84,0.26,-0.69,0.26,-0.70,0.70,0.69,0.89,0.96,0.96,0.96
415.96,0.22,-0.73,0.22,-0.73,0.73,0.72,0.94,0.95,0.95,0.95
420.12,0.18,-0.77,0.18,-0.77,0.77,0.74,0.99,0.95,0.95,0.95
424.32,0.14,-0.80,0.14,-0.80,0.80,0.77,1.03,0.94,0.94,0.94
428.56,0.10,-0.83,0.10,-0.83,0.83,0.79,1.08,0.93,0.93,0.93
432.85,0.06,-0.87,0.06,-0.87,0.87,0.82,1.12,0.93,0.93,0.93
437.18,0.02,-0.90,0.02,-0.90,0.90,0.85,1.16,0.92,0.92,0.92
441.55,-0.02,-0.94,-0.02,-0.94,0.94,0.87,1.21,0.91,0.91,0.91
445.96,-0.06,-0.97,-0.06,-0.97,0.97,0.90,1.25,0.91,0.91,0.91
450.42,-0.10,-1.00,-0.10,-1.00,1.00,0.93,1.29,0.91,0.91,0.90
454.93,-0.14,-1.04,-0.14,-1.04,1.04,0.96,1.33,0.90,0.90,0.90
459.48,-0.17,-1.07,-0.17,-1.07,1.07,0.98,1.36,0.90,0.90,0.90
464.07,-0.21,-1.10,-0.21,-1.10,1.10,1.01,1.40,0.90,0.89,0.90
468.71,-0.24,-1.14,-0.24,-1.14,1.13,1.04,1.43,0.89,0.89,0.89
473.40,-0.28,-1.17,-0.28,-1.17,1.17,1.07,1.47,0.89,0.89,0.89
478.13,-0.31,-1.20,-0.31,-1.20,1.20,1.10,1.50,0.89,0.89,0.89
482.91,-0.35,-1.23,-0.35,-1.23,1.23,1.13,1.53,0.89,0.89,0.88
487.74,-0.38,-1.26,-0.38,-1.26,1.26,1.15,1.55,0.88,0.88,0.88
492.62,-0.41,-1.29,-0.41,-1.29,1.29,1.18,1.58,0.88,0.88,0.88
497.55,-0.44,-1.33,-0.44,-1.33,1.32,1.21,1.60,0.88,0.88,0.88
502.52,-0.47,-1.36,-0.47,-1.36,1.35,1.24,1.62,0.88,0.88,0.88
507.55,-0.50,-1.39,-0.50,-1.39,1.39,1.27,1.64,0.88,0.88,0.88
