frequency,raw,error,smoothed,error_smoothed,equalization,parametric_eq,fixed_band_eq,equalized_raw,equalized_smoothed,target
20.00,3.80,-3.57,3.81,-3.56,3.57,3.12,1.55,7.37,7.37,7.37
20.20,3.83,-3.57,3.82,-3.57,3.58,3.29,1.60,7.40,7.40,7.39
20.40,3.84,-3.58,3.84,-3.58,3.58,3.46,1.64,7.43,7.42,7.42
20.61,3.86,-3.59,3.86,-3.59,3.59,3.63,1.69,7.45,7.45,7.45
20.81,3.88,-3.60,3.88,-3.60,3.59,3.81,1.74,7.47,7.47,7.48
21.02,3.90,-3.60,3.90,-3.60,3.59,3.96,1.79,7.49,7.49,7.50
21.23,3.93,-3.61,3.93,-3.60,3.59,4.11,1.85,7.52,7.52,7.53
21.44,3.96,-3.60,3.96,-3.60,3.59,4.21,1.90,7.55,7.55,7.56
21.66,4.01,-3.59,4.00,-3.59,3.58,4.31,1.96,7.59,7.59,7.59
21.87,4.05,-3.57,4.05,-3.57,3.57,4.34,2.01,7.62,7.62,7.62
22.09,4.09,-3.56,4.09,-3.56,3.56,4.37,2.07,7.65,7.65,7.65
22.31,4.13,-3.55,4.13,-3.55,3.56,4.33,2.13,7.68,7.68,7.67
22.54,4.16,-3.54,4.16,-3.54,3.55,4.29,2.19,7.71,7.71,7.70
22.76,4.18,-3.54,4.18,-3.54,3.55,4.20,2.26,7.73,7.73,7.72
22.99,4.20,-3.55,4.19,-3.55,3.56,4.11,2.32,7.75,7.75,7.75
23.22,4.20,-3.57,4.20,-3.56,3.56,4.00,2.39,7.77,7.77,7.77
23.45,4.21,-3.58,4.21,-3.58,3.57,3.89,2.46,7.78,7.78,7.79
23.69,4.22,-3.59,4.22,-3.59,3.58,3.79,2.53,7.80,7.80,7.81
23.92,4.24,-3.60,4.24,-3.60,3.59,3.68,2.60,7.82,7.82,7.83
24.16,4.26,-3.60,4.26,-3.60,3.59,3.59,2.67,7.85,7.85,7.85
24.40,4.28,-3.59,4.28,-3.59,3.59,3.49,2.74,7.87,7.87,7.87
24.65,4.30,-3.59,4.30,-3.59,3.59,3.42,2.82,7.90,7.89,7.89
24.89,4.33,-3.59,4.33,-3.59,3.59,3.35,2.89,7.92,7.92,7.91
25.14,4.34,-3.59,4.34,-3.59,3.59,3.29,2.97,7.94,7.94,7.93
25.39,4.36,-3.59,4.36,-3.59,3.60,3.24,3.04,7.96,7.96,7.95
25.65,4.37,-3.60,4.37,-3.60,3.60,3.20,3.12,7.97,7.97,7.97
25.91,4.38,-3.61,4.38,-3.61,3.61,3.17,3.20,7.99,7.99,7.98
26.16,4.38,-3.62,4.38,-3.62,3.62,3.14,3.27,8.00,8.00,8.00
26.43,4.39,-3.63,4.39,-3.63,3.63,3.12,3.35,8.02,8.02,8.02
26.69,4.40,-3.64,4.40,-3.64,3.64,3.11,3.42,8.03,8.03,8.03
26.96,4.41,-3.64,4.41,-3.64,3.64,3.10,3.50,8.05,8.05,8.05
27.23,4.42,-3.64,4.42,-3.64,3.64,3.09,3.57,8.07,8.07,8.07
27.50,4.44,-3.64,4.44,-3.64,3.64,3.09,3.64,8.08,8.08,8.09
27.77,4.46,-3.64,4.46,-3.64,3.63,3.10,3.71,8.10,8.10,8.10
28.05,4.49,-3.63,4.49,-3.63,3.62,3.10,3.78,8.11,8.11,8.12
28.33,4.53,-3.61,4.53,-3.61,3.60,3.11,3.84,8.12,8.12,8.13
28.62,4.56,-3.58,4.56,-3.58,3.57,3.13,3.90,8.13,8.13,8.14
28.90,4.61,-3.55,4.61,-3.54,3.54,3.14,3.95,8.15,8.15,8.15
29.19,4.65,-3.51,4.65,-3.51,3.50,3.16,4.00,8.16,8.16,8.16
29.48,4.70,-3.47,4.70,-3.47,3.47,3.18,4.05,8.17,8.17,8.17
29.78,4.74,-3.44,4.74,-3.44,3.44,3.20,4.09,8.19,8.19,8.18
30.08,4.78,-3.41,4.78,-3.41,3.42,3.22,4.13,8.20,8.20,8.19
30.38,4.81,-3.39,4.81,-3.39,3.41,3.24,4.16,8.22,8.22,8.20
30.68,4.82,-3.39,4.82,-3.39,3.41,3.27,4.19,8.23,8.23,8.21
30.99,4.81,-3.40,4.81,-3.40,3.42,3.29,4.21,8.23,8.23,8.22
31.30,4.80,-3.42,4.80,-3.42,3.43,3.32,4.22,8.23,8.23,8.22
31.61,4.78,-3.45,4.78,-3.45,3.45,3.35,4.24,8.23,8.23,8.23
31.93,4.76,-3.48,4.76,-3.48,3.46,3.38,4.24,8.22,8.22,8.24
32.24,4.75,-3.50,4.75,-3.50,3.47,3.40,4.24,8.22,8.22,8.25
32.57,4.75,-3.50,4.75,-3.50,3.48,3.43,4.23,8.23,8.23,8.25
32.89,4.76,-3.49,4.77,-3.49,3.48,3.46,4.22,8.24,8.25,8.26
33.22,4.79,-3.48,4.79,-3.48,3.48,3.49,4.20,8.27,8.27,8.27
33.55,4.81,-3.46,4.81,-3.46,3.48,3.52,4.18,8.29,8.29,8.27
33.89,4.83,-3.45,4.82,-3.45,3.48,3.54,4.15,8.30,8.30,8.28
34.23,4.83,-3.45,4.83,-3.45,3.48,3.57,4.13,8.31,8.30,8.28
34.57,4.82,-3.47,4.82,-3.47,3.48,3.60,4.09,8.30,8.30,8.29
34.92,4.80,-3.49,4.80,-3.49,3.49,3.62,4.06,8.29,8.29,8.29
35.27,4.78,-3.51,4.79,-3.51,3.50,3.65,4.02,8.28,8.28,8.30
35.62,4.77,-3.53,4.78,-3.53,3.50,3.68,3.98,8.28,8.28,8.30
35.97,4.77,-3.53,4.78,-3.53,3.51,3.70,3.94,8.28,8.29,8.31
36.33,4.79,-3.52,4.79,-3.52,3.51,3.72,3.90,8.30,8.30,8.31
36.70,4.80,-3.51,4.80,-3.51,3.52,3.75,3.85,8.32,8.32,8.31
37.06,4.82,-3.50,4.81,-3.50,3.52,3.77,3.81,8.33,8.33,8.31
37.43,4.82,-3.50,4.82,-3.50,3.52,3.79,3.76,8.34,8.34,8.32
37.81,4.81,-3.51,4.81,-3.51,3.52,3.81,3.72,8.33,8.33,8.32
38.19,4.80,-3.52,4.80,-3.52,3.53,3.83,3.67,8.33,8.32,8.32
38.57,4.78,-3.54,4.78,-3.54,3.53,3.85,3.63,8.31,8.32,8.32
38.95,4.77,-3.55,4.77,-3.55,3.54,3.86,3.59,8.31,8.31,8.32
39.34,4.77,-3.55,4.77,-3.55,3.54,3.88,3.55,8.30,8.30,8.31
39.74,4.77,-3.54,4.77,-3.54,3.53,3.89,3.51,8.30,8.30,8.31
40.14,4.78,-3.52,4.78,-3.52,3.51,3.90,3.47,8.29,8.29,8.31
40.54,4.80,-3.50,4.81,-3.50,3.48,3.91,3.43,8.29,8.29,8.30
40.94,4.84,-3.46,4.84,-3.46,3.46,3.92,3.40,8.29,8.30,8.30
41.35,4.88,-3.42,4.88,-3.42,3.43,3.93,3.36,8.30,8.30,8.30
41.76,4.91,-3.38,4.91,-3.38,3.40,3.93,3.33,8.32,8.31,8.29
42.18,4.93,-3.36,4.93,-3.36,3.38,3.94,3.31,8.31,8.31,8.29
42.60,4.94,-3.34,4.93,-3.35,3.37,3.94,3.28,8.30,8.30,8.28
43.03,4.93,-3.35,4.93,-3.35,3.35,3.94,3.26,8.28,8.28,8.27
43.46,4.91,-3.36,4.91,-3.36,3.35,3.94,3.24,8.26,8.26,8.27
43.90,4.90,-3.36,4.90,-3.36,3.34,3.94,3.22,8.24,8.25,8.26
44.33,4.90,-3.36,4.90,-3.36,3.34,3.93,3.20,8.24,8.24,8.25
44.78,4.90,-3.34,4.90,-3.34,3.34,3.93,3.19,8.23,8.23,8.24
45.23,4.90,-3.33,4.90,-3.33,3.33,3.92,3.18,8.23,8.23,8.23
45.68,4.91,-3.32,4.91,-3.32,3.32,3.91,3.17,8.23,8.24,8.23
46.13,4.92,-3.32,4.91,-3.31,3.32,3.90,3.16,8.24,8.24,8.23
46.60,4.91,-3.31,4.91,-3.31,3.32,3.89,3.16,8.24,8.24,8.23
47.06,4.90,-3.31,4.90,-3.31,3.33,3.87,3.16,8.23,8.23,8.21
47.53,4.88,-3.32,4.88,-3.32,3.34,3.86,3.16,8.22,8.22,8.20
48.01,4.86,-3.34,4.86,-3.34,3.35,3.84,3.16,8.20,8.20,8.20
48.49,4.84,-3.37,4.84,-3.37,3.35,3.82,3.17,8.19,8.19,8.21
48.97,4.83,-3.39,4.83,-3.38,3.36,3.80,3.17,8.19,8.19,8.22
49.46,4.83,-3.39,4.83,-3.38,3.36,3.78,3.18,8.19,8.19,8.22
49.96,4.83,-3.36,4.82,-3.36,3.36,3.76,3.19,8.19,8.18,8.18
50.46,4.81,-3.33,4.81,-3.34,3.36,3.74,3.21,8.17,8.17,8.15
50.96,4.79,-3.32,4.80,-3.33,3.35,3.72,3.22,8.15,8.15,8.12
51.47,4.78,-3.34,4.78,-3.33,3.35,3.69,3.23,8.12,8.12,8.11
51.99,4.77,-3.34,4.77,-3.34,3.34,3.66,3.25,8.11,8.11,8.11
52.51,4.76,-3.34,4.76,-3.34,3.34,3.64,3.27,8.10,8.10,8.10
53.03,4.75,-3.34,4.75,-3.34,3.34,3.61,3.28,8.09,8.08,8.09
53.56,4.73,-3.34,4.73,-3.34,3.33,3.58,3.30,8.06,8.06,8.07
54.10,4.71,-3.34,4.71,-3.34,3.33,3.55,3.32,8.04,8.04,8.05
54.64,4.70,-3.34,4.70,-3.33,3.33,3.52,3.34,8.02,8.03,8.03
55.18,4.70,-3.32,4.70,-3.32,3.32,3.49,3.35,8.02,8.02,8.02
55.74,4.71,-3.30,4.70,-3.30,3.32,3.46,3.37,8.02,8.02,8.01
56.29,4.71,-3.29,4.71,-3.29,3.31,3.43,3.38,8.02,8.02,8.00
56.86,4.70,-3.29,4.70,-3.29,3.30,3.40,3.40,8.00,8.00,7.99
57.42,4.68,-3.30,4.68,-3.30,3.29,3.36,3.41,7.97,7.97,7.98
58.00,4.66,-3.31,4.67,-3.30,3.27,3.33,3.42,7.93,7.94,7.97
58.58,4.67,-3.29,4.67,-3.28,3.26,3.30,3.43,7.92,7.93,7.95
59.16,4.68,-3.26,4.68,-3.25,3.25,3.27,3.43,7.93,7.93,7.94
59.76,4.71,-3.21,4.71,-3.22,3.23,3.24,3.44,7.94,7.94,7.92
60.35,4.72,-3.19,4.72,-3.19,3.22,3.20,3.44,7.94,7.94,7.91
60.96,4.72,-3.18,4.71,-3.18,3.21,3.17,3.43,7.92,7.92,7.89
61.57,4.69,-3.18,4.68,-3.18,3.19,3.14,3.43,7.87,7.87,7.87
62.18,4.65,-3.19,4.65,-3.19,3.17,3.11,3.42,7.82,7.82,7.84
62.80,4.63,-3.19,4.63,-3.18,3.15,3.08,3.41,7.78,7.78,7.81
63.43,4.62,-3.17,4.63,-3.16,3.14,3.04,3.39,7.76,7.77,7.79
64.07,4.63,-3.13,4.63,-3.13,3.13,3.01,3.37,7.76,7.76,7.77
64.71,4.65,-3.10,4.64,-3.10,3.12,2.98,3.35,7.77,7.76,7.74
65.35,4.64,-3.08,4.64,-3.08,3.11,2.95,3.33,7.75,7.75,7.72
66.01,4.62,-3.07,4.61,-3.08,3.11,2.93,3.30,7.73,7.72,7.69
66.67,4.57,-3.09,4.58,-3.09,3.10,2.90,3.27,7.67,7.67,7.66
67.33,4.53,-3.10,4.53,-3.10,3.09,2.87,3.23,7.62,7.62,7.64
68.01,4.50,-3.11,4.50,-3.11,3.07,2.84,3.20,7.57,7.58,7.61
68.69,4.49,-3.09,4.49,-3.09,3.06,2.82,3.16,7.55,7.55,7.58
69.37,4.50,-3.06,4.50,-3.06,3.04,2.79,3.12,7.54,7.54,7.56
70.07,4.52,-3.01,4.52,-3.01,3.01,2.77,3.08,7.53,7.53,7.53
70.77,4.54,-2.96,4.53,-2.97,2.99,2.75,3.04,7.53,7.53,7.50
71.48,4.54,-2.93,4.54,-2.94,2.97,2.73,2.99,7.51,7.51,7.47
72.19,4.52,-2.92,4.52,-2.92,2.95,2.71,2.95,7.48,7.47,7.44
72.91,4.49,-2.93,4.49,-2.93,2.94,2.69,2.90,7.43,7.43,7.42
73.64,4.45,-2.94,4.45,-2.93,2.93,2.67,2.86,7.38,7.38,7.38
74.38,4.41,-2.94,4.41,-2.94,2.93,2.65,2.81,7.34,7.34,7.35
75.12,4.38,-2.94,4.38,-2.94,2.92,2.64,2.77,7.30,7.30,7.32
75.87,4.37,-2.93,4.37,-2.93,2.90,2.63,2.72,7.27,7.27,7.29
76.63,4.36,-2.90,4.36,-2.90,2.88,2.61,2.68,7.24,7.24,7.26
77.40,4.37,-2.86,4.37,-2.86,2.85,2.61,2.63,7.22,7.22,7.23
78.17,4.38,-2.81,4.38,-2.81,2.80,2.60,2.59,7.19,7.19,7.19
78.95,4.40,-2.76,4.40,-2.76,2.76,2.59,2.55,7.16,7.15,7.15
79.74,4.41,-2.71,4.41,-2.71,2.71,2.58,2.51,7.12,7.12,7.12
80.54,4.42,-2.67,4.42,-2.66,2.68,2.58,2.47,7.09,7.09,7.08
81.35,4.42,-2.63,4.41,-2.63,2.65,2.58,2.43,7.07,7.06,7.04
82.16,4.40,-2.61,4.40,-2.61,2.63,2.58,2.39,7.03,7.03,7.01
82.98,4.36,-2.61,4.36,-2.61,2.62,2.58,2.35,6.99,6.99,6.97
83.81,4.31,-2.62,4.31,-2.62,2.62,2.58,2.32,6.94,6.94,6.93
84.65,4.25,-2.64,4.25,-2.64,2.63,2.59,2.29,6.88,6.89,6.89
85.50,4.19,-2.66,4.19,-2.66,2.65,2.59,2.26,6.84,6.84,6.85
86.35,4.13,-2.68,4.13,-2.68,2.67,2.59,2.22,6.81,6.81,6.81
87.22,4.08,-2.69,4.08,-2.69,2.69,2.60,2.20,6.77,6.77,6.77
88.09,4.02,-2.70,4.02,-2.71,2.71,2.60,2.17,6.73,6.73,6.73
88.97,3.96,-2.72,3.96,-2.72,2.72,2.61,2.15,6.68,6.68,6.68
89.86,3.91,-2.73,3.91,-2.73,2.72,2.61,2.12,6.63,6.63,6.64
90.76,3.86,-2.74,3.86,-2.74,2.71,2.61,2.10,6.57,6.58,6.60
91.66,3.83,-2.72,3.83,-2.72,2.70,2.61,2.08,6.53,6.53,6.55
92.58,3.81,-2.69,3.81,-2.69,2.68,2.61,2.06,6.50,6.50,6.50
93.51,3.81,-2.66,3.80,-2.66,2.66,2.61,2.05,6.47,6.47,6.46
94.44,3.79,-2.62,3.79,-2.62,2.64,2.60,2.03,6.43,6.43,6.42
95.39,3.77,-2.60,3.77,-2.60,2.62,2.59,2.02,6.39,6.39,6.37
96.34,3.74,-2.59,3.74,-2.59,2.61,2.57,2.00,6.34,6.34,6.32
97.30,3.70,-2.58,3.70,-2.58,2.59,2.55,1.99,6.29,6.29,6.27
98.28,3.65,-2.57,3.65,-2.58,2.59,2.53,1.98,6.24,6.24,6.22
99.26,3.61,-2.57,3.61,-2.57,2.58,2.50,1.97,6.18,6.18,6.18
100.25,3.57,-2.57,3.57,-2.56,2.56,2.47,1.97,6.12,6.12,6.13
101.25,3.53,-2.54,3.54,-2.54,2.52,2.43,1.96,6.06,6.06,6.08
102.27,3.52,-2.51,3.52,-2.51,2.47,2.39,1.95,5.99,5.99,6.03
103.29,3.52,-2.45,3.53,-2.45,2.40,2.35,1.95,5.92,5.93,5.98
104.32,3.55,-2.37,3.56,-2.36,2.31,2.30,1.95,5.87,5.87,5.92
105.37,3.62,-2.25,3.62,-2.25,2.22,2.25,1.94,5.84,5.84,5.87
106.42,3.69,-2.12,3.69,-2.12,2.13,2.19,1.94,5.82,5.82,5.81
107.48,3.76,-2.00,3.75,-2.01,2.06,2.14,1.93,5.82,5.81,5.76
108.56,3.78,-1.92,3.78,-1.92,2.01,2.09,1.93,5.79,5.79,5.70
109.64,3.75,-1.89,3.75,-1.90,1.99,2.03,1.93,5.74,5.74,5.64
110.74,3.68,-1.91,3.67,-1.92,1.99,1.97,1.92,5.67,5.66,5.59
111.85,3.54,-2.00,3.54,-1.99,2.01,1.92,1.92,5.55,5.55,5.54
112.97,3.40,-2.07,3.40,-2.07,2.03,1.86,1.91,5.43,5.43,5.48
114.10,3.28,-2.14,3.29,-2.13,2.05,1.80,1.91,5.33,5.34,5.42
115.24,3.22,-2.14,3.23,-2.13,2.04,1.75,1.90,5.26,5.28,5.36
116.39,3.23,-2.08,3.22,-2.08,2.02,1.70,1.90,5.25,5.24,5.31
117.55,3.25,-2.00,3.26,-1.99,1.97,1.64,1.89,5.22,5.22,5.25
118.73,3.31,-1.88,3.31,-1.88,1.89,1.59,1.88,5.20,5.20,5.19
119.92,3.37,-1.76,3.36,-1.77,1.80,1.54,1.86,5.17,5.16,5.13
121.12,3.41,-1.66,3.40,-1.67,1.71,1.49,1.85,5.12,5.11,5.07
122.33,3.43,-1.58,3.42,-1.58,1.62,1.45,1.84,5.04,5.04,5.01
123.55,3.42,-1.52,3.43,-1.52,1.54,1.40,1.82,4.96,4.97,4.94
124.79,3.41,-1.47,3.41,-1.47,1.47,1.36,1.80,4.89,4.89,4.88
126.03,3.39,-1.43,3.39,-1.43,1.42,1.31,1.78,4.81,4.81,4.82
127.29,3.36,-1.39,3.36,-1.39,1.38,1.27,1.76,4.74,4.74,4.76
128.57,3.34,-1.36,3.34,-1.35,1.35,1.23,1.73,4.68,4.68,4.69
129.85,3.31,-1.32,3.31,-1.31,1.32,1.19,1.71,4.62,4.63,4.62
131.15,3.28,-1.28,3.28,-1.28,1.29,1.15,1.68,4.57,4.56,4.55
132.46,3.24,-1.25,3.24,-1.25,1.26,1.12,1.65,4.50,4.49,4.49
133.79,3.20,-1.22,3.20,-1.22,1.22,1.08,1.62,4.42,4.42,4.42
135.12,3.16,-1.20,3.16,-1.19,1.18,1.05,1.59,4.34,4.34,4.36
136.48,3.13,-1.16,3.13,-1.16,1.14,1.01,1.55,4.26,4.27,4.29
137.84,3.11,-1.10,3.11,-1.10,1.09,0.98,1.52,4.20,4.20,4.21
139.22,3.10,-1.04,3.10,-1.05,1.04,0.95,1.48,4.15,4.14,4.15
140.61,3.09,-0.99,3.09,-0.99,0.99,0.92,1.44,4.09,4.09,4.08
142.02,3.08,-0.93,3.08,-0.93,0.95,0.89,1.40,4.03,4.03,4.01
143.44,3.06,-0.88,3.06,-0.88,0.90,0.86,1.36,3.96,3.96,3.95
144.87,3.03,-0.84,3.03,-0.84,0.85,0.83,1.32,3.88,3.88,3.88
146.32,2.99,-0.81,3.00,-0.81,0.81,0.80,1.28,3.80,3.80,3.80
147.78,2.95,-0.77,2.95,-0.77,0.77,0.78,1.24,3.72,3.72,3.72
149.26,2.91,-0.74,2.91,-0.74,0.73,0.75,1.20,3.64,3.64,3.65
150.75,2.88,-0.70,2.88,-0.70,0.69,0.72,1.15,3.57,3.57,3.58
152.26,2.84,-0.66,2.85,-0.66,0.65,0.70,1.11,3.50,3.50,3.51
153.78,2.82,-0.62,2.82,-0.62,0.62,0.67,1.07,3.44,3.44,3.44
155.32,2.79,-0.58,2.79,-0.58,0.58,0.65,1.02,3.37,3.37,3.37
156.88,2.76,-0.54,2.76,-0.54,0.54,0.63,0.98,3.31,3.31,3.30
158.44,2.73,-0.50,2.73,-0.50,0.51,0.60,0.94,3.24,3.24,3.23
160.03,2.69,-0.47,2.69,-0.47,0.48,0.58,0.89,3.17,3.17,3.16
161.63,2.65,-0.44,2.65,-0.44,0.44,0.56,0.85,3.09,3.09,3.09
163.24,2.61,-0.42,2.61,-0.41,0.41,0.53,0.81,3.02,3.02,3.02
164.88,2.57,-0.39,2.57,-0.39,0.38,0.51,0.76,2.95,2.95,2.95
166.53,2.53,-0.36,2.53,-0.35,0.35,0.49,0.72,2.88,2.88,2.88
168.19,2.49,-0.32,2.49,-0.32,0.32,0.47,0.68,2.81,2.81,2.81
169.87,2.45,-0.29,2.45,-0.29,0.29,0.45,0.64,2.74,2.74,2.74
171.57,2.42,-0.25,2.42,-0.25,0.25,0.43,0.59,2.67,2.67,2.66
173.29,2.38,-0.21,2.38,-0.21,0.22,0.41,0.55,2.59,2.59,2.59
175.02,2.34,-0.18,2.34,-0.18,0.18,0.39,0.51,2.52,2.52,2.52
176.77,2.31,-0.15,2.31,-0.14,0.14,0.37,0.47,2.45,2.45,2.45
178.54,2.27,-0.11,2.27,-0.11,0.10,0.35,0.43,2.37,2.37,2.38
180.32,2.24,-0.07,2.24,-0.07,0.07,0.32,0.39,2.30,2.30,2.30
182.13,2.20,-0.03,2.20,-0.03,0.03,0.31,0.35,2.23,2.23,2.23
183.95,2.16,0.00,2.16,0.00,-0.00,0.29,0.31,2.16,2.16,2.16
185.79,2.12,0.04,2.12,0.04,-0.03,0.27,0.27,2.09,2.09,2.08
187.65,2.08,0.07,2.08,0.06,-0.06,0.25,0.23,2.02,2.02,2.01
189.52,2.04,0.08,2.04,0.08,-0.07,0.23,0.19,1.96,1.96,1.95
191.42,1.99,0.09,1.99,0.10,-0.09,0.21,0.15,1.90,1.90,1.90
193.33,1.95,0.10,1.95,0.10,-0.10,0.19,0.11,1.85,1.85,1.84
195.27,1.90,0.10,1.90,0.10,-0.11,0.17,0.08,1.79,1.79,1.80
197.22,1.85,0.10,1.85,0.10,-0.11,0.15,0.04,1.74,1.74,1.76
199.19,1.81,0.10,1.81,0.10,-0.11,0.13,0.00,1.70,1.70,1.71
201.18,1.77,0.10,1.77,0.10,-0.10,0.12,-0.03,1.66,1.66,1.66
203.19,1.73,0.10,1.73,0.11,-0.10,0.10,-0.07,1.63,1.63,1.62
205.23,1.69,0.10,1.69,0.10,-0.09,0.08,-0.10,1.60,1.60,1.58
207.28,1.64,0.09,1.64,0.09,-0.08,0.07,-0.14,1.57,1.57,1.55
209.35,1.60,0.07,1.60,0.07,-0.06,0.05,-0.17,1.53,1.53,1.53
211.44,1.55,0.04,1.55,0.04,-0.05,0.03,-0.20,1.50,1.50,1.51
213.56,1.51,0.02,1.51,0.03,-0.03,0.02,-0.24,1.47,1.47,1.48
215.69,1.46,0.02,1.46,0.02,-0.02,0.01,-0.27,1.44,1.44,1.45
217.85,1.42,0.01,1.42,0.01,-0.01,-0.01,-0.30,1.41,1.41,1.41
220.03,1.38,-0.00,1.38,0.00,-0.01,-0.02,-0.32,1.37,1.38,1.38
222.23,1.35,0.00,1.35,0.00,-0.01,-0.03,-0.35,1.34,1.34,1.34
224.45,1.31,0.01,1.31,0.01,-0.01,-0.04,-0.38,1.30,1.30,1.30
226.70,1.28,0.02,1.28,0.02,-0.02,-0.05,-0.40,1.26,1.26,1.26
228.96,1.25,0.03,1.25,0.03,-0.03,-0.06,-0.42,1.22,1.22,1.22
231.25,1.23,0.04,1.23,0.04,-0.04,-0.07,-0.44,1.19,1.19,1.19
233.57,1.20,0.05,1.20,0.05,-0.05,-0.08,-0.46,1.15,1.15,1.15
235.90,1.17,0.06,1.17,0.06,-0.06,-0.08,-0.47,1.11,1.11,1.11
238.26,1.14,0.07,1.14,0.07,-0.06,-0.09,-0.49,1.08,1.08,1.07
240.64,1.11,0.07,1.11,0.07,-0.07,-0.09,-0.50,1.04,1.04,1.04
243.05,1.07,0.07,1.07,0.07,-0.06,-0.09,-0.51,1.01,1.01,1.00
245.48,1.04,0.07,1.04,0.07,-0.06,-0.09,-0.51,0.98,0.97,0.97
247.93,1.00,0.06,1.00,0.06,-0.06,-0.09,-0.52,0.94,0.94,0.94
250.41,0.96,0.06,0.96,0.05,-0.06,-0.09,-0.52,0.90,0.90,0.90
252.92,0.92,0.05,0.93,0.05,-0.06,-0.08,-0.52,0.86,0.87,0.88
255.45,0.90,0.05,0.90,0.05,-0.06,-0.08,-0.52,0.84,0.84,0.85
258.00,0.89,0.06,0.89,0.06,-0.07,-0.07,-0.51,0.81,0.82,0.83
260.58,0.88,0.08,0.88,0.08,-0.08,-0.06,-0.51,0.80,0.80,0.80
263.19,0.88,0.10,0.88,0.10,-0.09,-0.05,-0.50,0.78,0.78,0.78
265.82,0.87,0.11,0.87,0.11,-0.11,-0.04,-0.48,0.77,0.77,0.76
268.48,0.87,0.13,0.87,0.13,-0.12,-0.03,-0.47,0.75,0.75,0.74
271.16,0.85,0.13,0.85,0.13,-0.12,-0.01,-0.45,0.73,0.73,0.72
273.87,0.84,0.13,0.84,0.13,-0.13,0.01,-0.44,0.71,0.71,0.70
276.61,0.81,0.12,0.81,0.12,-0.12,0.02,-0.42,0.69,0.69,0.69
279.38,0.79,0.11,0.79,0.11,-0.11,0.04,-0.39,0.67,0.67,0.67
282.17,0.76,0.10,0.76,0.10,-0.10,0.06,-0.37,0.66,0.66,0.66
284.99,0.73,0.08,0.73,0.08,-0.08,0.08,-0.35,0.65,0.64,0.65
287.84,0.70,0.06,0.70,0.06,-0.06,0.10,-0.32,0.63,0.63,0.64
290.72,0.66,0.04,0.66,0.04,-0.04,0.13,-0.29,0.62,0.62,0.62
293.63,0.63,0.02,0.63,0.02,-0.02,0.15,-0.27,0.61,0.61,0.61
296.57,0.59,-0.01,0.59,-0.01,0.01,0.17,-0.24,0.60,0.60,0.60
299.53,0.56,-0.04,0.56,-0.04,0.03,0.20,-0.21,0.59,0.59,0.59
302.53,0.52,-0.06,0.52,-0.06,0.06,0.22,-0.18,0.58,0.58,0.58
305.55,0.48,-0.09,0.48,-0.09,0.09,0.25,-0.14,0.57,0.57,0.57
308.61,0.44,-0.12,0.45,-0.12,0.12,0.28,-0.11,0.56,0.57,0.57
311.69,0.41,-0.15,0.41,-0.15,0.15,0.31,-0.08,0.56,0.56,0.56
314.81,0.38,-0.18,0.38,-0.18,0.18,0.33,-0.04,0.56,0.56,0.56
317.96,0.34,-0.21,0.34,-0.21,0.21,0.36,-0.01,0.55,0.55,0.55
321.14,0.31,-0.24,0.31,-0.24,0.24,0.39,0.02,0.55,0.55,0.55
324.35,0.28,-0.27,0.28,-0.27,0.27,0.42,0.06,0.55,0.55,0.55
327.59,0.24,-0.30,0.24,-0.30,0.30,0.45,0.10,0.55,0.55,0.55
330.87,0.21,-0.33,0.21,-0.34,0.34,0.47,0.13,0.55,0.55,0.54
334.18,0.18,-0.37,0.18,-0.37,0.37,0.50,0.17,0.55,0.55,0.55
337.52,0.14,-0.40,0.14,-0.40,0.40,0.53,0.20,0.55,0.55,0.55
340.90,0.11,-0.43,0.11,-0.44,0.43,0.56,0.24,0.54,0.54,0.55
344.30,0.08,-0.47,0.08,-0.47,0.47,0.59,0.28,0.54,0.54,0.55
347.75,0.05,-0.50,0.05,-0.50,0.50,0.62,0.31,0.55,0.55,0.55
351.23,0.02,-0.53,0.02,-0.53,0.53,0.64,0.35,0.55,0.55,0.55
354.74,-0.01,-0.56,-0.01,-0.56,0.56,0.67,0.39,0.55,0.55,0.55
358.28,-0.04,-0.59,-0.04,-0.59,0.59,0.70,0.43,0.55,0.55,0.55
361.87,-0.07,-0.63,-0.07,-0.63,0.63,0.73,0.47,0.56,0.56,0.56
365.49,-0.10,-0.66,-0.10,-0.66,0.66,0.75,0.51,0.56,0.56,0.56
369.14,-0.13,-0.69,-0.13,-0.69,0.70,0.78,0.54,0.57,0.57,0.57
372.83,-0.16,-0.73,-0.16,-0.73,0.73,0.81,0.58,0.57,0.57,0.57
376.56,-0.19,-0.76,-0.19,-0.76,0.76,0.83,0.62,0.57,0.57,0.57
380.33,-0.22,-0.80,-0.22,-0.80,0.80,0.86,0.66,0.58,0.58,0.58
384.13,-0.25,-0.83,-0.25,-0.83,0.83,0.88,0.70,0.59,0.59,0.59
387.97,-0.27,-0.86,-0.27,-0.86,0.86,0.91,0.74,0.59,0.59,0.59
391.85,-0.30,-0.89,-0.30,-0.89,0.89,0.93,0.78,0.60,0.60,0.60
395.77,-0.32,-0.92,-0.32,-0.92,0.92,0.96,0.82,0.60,0.60,0.60
399.73,-0.35,-0.95,-0.35,-0.95,0.95,0.98,0.86,0.60,0.60,0.60
403.72,-0.38,-0.98,-0.38,-0.98,0.98,1.00,0.90,0.60,0.60,0.60
407.76,-0.40,-1.01,-0.40,-1.01,1.01,1.02,0.94,0.60,0.61,0.61
411.84,-0.43,-1.04,-0.43,-1.03,1.03,1.05,0.98,0.61,0.61,0.61
415.96,-0.45,-1.06,-0.45,-1.06,1.06,1.07,1.02,0.61,0.61,0.60
420.12,-0.48,-1.08,-0.48,-1.08,1.08,1.09,1.05,0.61,0.61,0.60
424.32,-0.50,-1.11,-0.50,-1.11,1.11,1.11,1.09,0.61,0.61,0.61
428.56,-0.53,-1.13,-0.53,-1.13,1.13,1.13,1.13,0.61,0.61,0.61
432.85,-0.55,-1.16,-0.55,-1.16,1.16,1.15,1.17,0.61,0.61,0.61
437.18,-0.57,-1.18,-0.57,-1.18,1.18,1.17,1.20,0.60,0.60,0.61
441.55,-0.60,-1.20,-0.60,-1.20,1.20,1.19,1.24,0.60,0.60,0.60
445.96,-0.62,-1.22,-0.62,-1.22,1.22,1.20,1.27,0.60,0.60,0.60
450.42,-0.64,-1.24,-0.64,-1.24,1.24,1.22,1.30,0.60,0.60,0.60
454.93,-0.66,-1.26,-0.66,-1.26,1.26,1.24,1.33,0.60,0.60,0.60
459.48,-0.68,-1.28,-0.68,-1.28,1.28,1.26,1.36,0.59,0.59,0.59
464.07,-0.70,-1.29,-0.70,-1.29,1.29,1.27,1.39,0.59,0.59,0.59
468.71,-0.73,-1.31,-0.73,-1.31,1.31,1.29,1.41,0.58,0.59,0.58
473.40,-0.75,-1.33,-0.75,-1.33,1.33,1.30,1.44,0.58,0.58,0.58
478.13,-0.77,-1.34,-0.77,-1.34,1.34,1.31,1.46,0.58,0.58,0.58
482.91,-0.78,-1.35,-0.78,-1.35,1.35,1.33,1.48,0.57,0.57,0.57
487.74,-0.80,-1.37,-0.80,-1.37,1.37,1.34,1.49,0.57,0.57,0.57
492.62,-0.82,-1.38,-0.82,-1.38,1.38,1.35,1.51,0.56,0.56,0.56
497.55,-0.84,-1.39,-0.84,-1.39,1.39,1.36,1.52,0.55,0.55,0.55
502.52,-0.85,-1.40,-0.85,-1.40,1.40,1.37,1.53,0.54,0.54,0.55
507.55,-0.87,-1.41,-0.87,-1.41,1.41,1.38,1.54,0.53,0.54,0.54
512.62,-0.89,-1.41,-0.89,-1.41,1.41,1.39,1.54,0.53,0.53,0.53
517.75,-0.90,-1.42,-0.90,-1.42,1.42,1.40,1.55,0.52,0.52,0.52
522.93,-0.92,-1.42,-0.92,-1.42,1.42,1.41,1.55,0.51,0.51,0.51
528.16,-0.93,-1.43,-0.93,-1.43,1.43,1.42,1.55,0.50,0.50,0.50
533.44,-0.94,-1.44,-0.94,-1.44,1.44,1.43,1.55,0.49,0.49,0.49
538.77,-0.96,-1.44,-0.96,-1.44,1.45,1.43,1.54,0.49,0.49,0.49
544.16,-0.97,-1.45,-0.97,-1.45,1.46,1.44,1.54,0.49,0.49,0.48
549.60,-0.98,-1.47,-0.98,-1.47,1.47,1.44,1.53,0.49,0.49,0.49
555.10,-0.99,-1.48,-0.99,-1.48,1.48,1.45,1.52,0.49,0.49,0.49
560.65,-1.00,-1.49,-1.00,-1.49,1.49,1.45,1.51,0.49,0.49,0.49
566.25,-1.01,-1.51,-1.01,-1.51,1.51,1.46,1.50,0.49,0.49,0.49
