frequency,raw,error,smoothed,error_smoothed,equalization,parametric_eq,fixed_band_eq,equalized_raw,equalized_smoothed,target
20.00,7.58,-0.84,7.58,-0.83,0.80,-0.36,-0.21,8.38,8.38,8.42
20.20,7.60,-0.77,7.60,-0.77,0.77,-0.37,-0.21,8.37,8.37,8.37
20.40,7.61,-0.71,7.61,-0.73,0.75,-0.37,-0.22,8.36,8.36,8.32
20.61,7.63,-0.69,7.63,-0.69,0.72,-0.38,-0.22,8.35,8.35,8.32
20.81,7.65,-0.67,7.65,-0.66,0.69,-0.39,-0.22,8.34,8.34,8.32
21.02,7.67,-0.65,7.67,-0.65,0.66,-0.40,-0.23,8.33,8.33,8.32
21.23,7.70,-0.63,7.69,-0.63,0.62,-0.41,-0.23,8.32,8.32,8.32
21.44,7.72,-0.60,7.72,-0.61,0.59,-0.42,-0.24,8.31,8.31,8.32
21.66,7.74,-0.58,7.74,-0.58,0.56,-0.42,-0.24,8.30,8.30,8.32
21.87,7.76,-0.56,7.76,-0.54,0.53,-0.43,-0.25,8.29,8.29,8.32
22.09,7.78,-0.47,7.78,-0.48,0.49,-0.44,-0.25,8.27,8.27,8.26
22.31,7.81,-0.41,7.81,-0.43,0.44,-0.45,-0.26,8.25,8.25,8.22
22.54,7.83,-0.39,7.83,-0.39,0.39,-0.46,-0.26,8.22,8.22,8.22
22.76,7.85,-0.37,7.85,-0.35,0.34,-0.47,-0.27,8.19,8.19,8.22
22.99,7.87,-0.30,7.87,-0.30,0.28,-0.48,-0.27,8.16,8.16,8.17
23.22,7.90,-0.22,7.90,-0.24,0.24,-0.49,-0.28,8.14,8.14,8.12
23.45,7.93,-0.20,7.93,-0.19,0.20,-0.50,-0.29,8.12,8.12,8.12
23.69,7.95,-0.17,7.95,-0.16,0.17,-0.51,-0.29,8.12,8.12,8.12
23.92,7.98,-0.14,7.98,-0.13,0.15,-0.53,-0.30,8.14,8.14,8.12
24.16,8.02,-0.10,8.02,-0.12,0.15,-0.54,-0.30,8.17,8.17,8.12
24.40,8.05,-0.14,8.05,-0.14,0.15,-0.55,-0.31,8.20,8.20,8.19
24.65,8.09,-0.17,8.09,-0.16,0.17,-0.56,-0.32,8.25,8.25,8.26
24.89,8.12,-0.20,8.12,-0.20,0.19,-0.57,-0.32,8.31,8.31,8.32
25.14,8.16,-0.22,8.16,-0.23,0.21,-0.59,-0.33,8.37,8.37,8.38
25.39,8.20,-0.25,8.20,-0.25,0.23,-0.60,-0.34,8.43,8.43,8.45
25.65,8.24,-0.28,8.24,-0.25,0.25,-0.61,-0.35,8.49,8.49,8.52
25.91,8.29,-0.23,8.29,-0.25,0.25,-0.63,-0.36,8.54,8.54,8.52
26.16,8.33,-0.23,8.33,-0.24,0.25,-0.64,-0.37,8.58,8.58,8.56
26.43,8.38,-0.25,8.38,-0.22,0.23,-0.65,-0.38,8.61,8.61,8.62
26.69,8.42,-0.20,8.42,-0.20,0.20,-0.67,-0.39,8.62,8.62,8.62
26.96,8.46,-0.16,8.46,-0.17,0.16,-0.68,-0.40,8.62,8.62,8.62
27.23,8.51,-0.11,8.51,-0.11,0.10,-0.70,-0.41,8.61,8.61,8.62
27.50,8.55,-0.07,8.55,-0.05,0.03,-0.72,-0.42,8.58,8.58,8.62
27.77,8.60,0.03,8.60,0.03,-0.05,-0.73,-0.43,8.55,8.55,8.57
28.05,8.64,0.13,8.64,0.14,-0.14,-0.75,-0.44,8.50,8.50,8.51
28.33,8.69,0.25,8.69,0.26,-0.24,-0.77,-0.46,8.44,8.44,8.44
28.62,8.73,0.37,8.73,0.35,-0.35,-0.78,-0.47,8.39,8.39,8.37
28.90,8.78,0.46,8.78,0.45,-0.44,-0.80,-0.49,8.34,8.34,8.32
29.19,8.83,0.51,8.83,0.54,-0.53,-0.82,-0.50,8.30,8.30,8.32
29.48,8.88,0.63,8.88,0.63,-0.60,-0.84,-0.52,8.28,8.28,8.25
29.78,8.94,0.72,8.94,0.70,-0.67,-0.86,-0.54,8.27,8.27,8.22
30.08,8.99,0.75,8.99,0.74,-0.72,-0.88,-0.56,8.27,8.27,8.24
30.38,9.05,0.75,9.05,0.76,-0.77,-0.90,-0.58,8.27,8.27,8.30
30.68,9.10,0.78,9.10,0.79,-0.82,-0.92,-0.60,8.29,8.29,8.32
30.99,9.16,0.84,9.16,0.83,-0.86,-0.94,-0.62,8.30,8.30,8.32
31.30,9.22,0.89,9.22,0.89,-0.90,-0.96,-0.64,8.32,8.32,8.32
31.61,9.27,0.95,9.27,0.95,-0.95,-0.99,-0.67,8.33,8.33,8.32
31.93,9.33,1.01,9.33,1.01,-1.00,-1.01,-0.69,8.33,8.33,8.32
32.24,9.39,1.07,9.39,1.07,-1.07,-1.04,-0.72,8.32,8.32,8.32
32.57,9.45,1.13,9.45,1.12,-1.14,-1.06,-0.75,8.31,8.31,8.32
32.89,9.51,1.19,9.51,1.19,-1.22,-1.09,-0.78,8.29,8.29,8.32
33.22,9.57,1.25,9.57,1.27,-1.29,-1.11,-0.81,8.28,8.28,8.32
33.55,9.62,1.37,9.62,1.37,-1.35,-1.14,-0.84,8.27,8.27,8.25
33.89,9.68,1.46,9.68,1.45,-1.41,-1.17,-0.87,8.27,8.27,8.22
34.23,9.74,1.51,9.74,1.50,-1.46,-1.20,-0.90,8.28,8.28,8.23
34.57,9.80,1.50,9.80,1.53,-1.51,-1.23,-0.94,8.29,8.29,8.29
34.92,9.86,1.53,9.86,1.54,-1.55,-1.26,-0.98,8.31,8.31,8.32
35.27,9.91,1.58,9.91,1.55,-1.58,-1.29,-1.01,8.33,8.33,8.33
35.62,9.97,1.56,9.97,1.58,-1.60,-1.33,-1.05,8.36,8.37,8.40
35.97,10.02,1.60,10.02,1.61,-1.62,-1.36,-1.09,8.40,8.40,8.42
36.33,10.08,1.66,10.08,1.65,-1.64,-1.40,-1.13,8.43,8.43,8.42
36.70,10.13,1.71,10.13,1.69,-1.67,-1.44,-1.18,8.46,8.46,8.42
37.06,10.19,1.71,10.19,1.71,-1.70,-1.47,-1.22,8.48,8.48,8.47
37.43,10.24,1.72,10.24,1.74,-1.74,-1.52,-1.27,8.50,8.50,8.52
37.81,10.29,1.77,10.29,1.77,-1.78,-1.56,-1.31,8.51,8.51,8.52
38.19,10.35,1.83,10.35,1.81,-1.83,-1.60,-1.36,8.52,8.51,8.52
38.57,10.40,1.88,10.40,1.88,-1.88,-1.64,-1.41,8.51,8.51,8.52
38.95,10.45,1.93,10.45,1.95,-1.95,-1.69,-1.46,8.50,8.50,8.52
39.34,10.50,2.05,10.50,2.03,-2.03,-1.74,-1.51,8.47,8.47,8.45
39.74,10.55,2.13,10.55,2.11,-2.12,-1.79,-1.57,8.42,8.42,8.42
40.14,10.59,2.18,10.59,2.20,-2.23,-1.84,-1.62,8.36,8.36,8.41
40.54,10.64,2.29,10.64,2.29,-2.34,-1.89,-1.68,8.30,8.30,8.35
40.94,10.69,2.41,10.69,2.40,-2.43,-1.95,-1.74,8.25,8.25,8.28
41.35,10.73,2.52,10.73,2.53,-2.51,-2.01,-1.80,8.22,8.22,8.21
41.76,10.78,2.63,10.78,2.63,-2.56,-2.07,-1.86,8.21,8.21,8.14
42.18,10.82,2.70,10.82,2.69,-2.59,-2.13,-1.93,8.23,8.23,8.12
42.60,10.86,2.71,10.86,2.68,-2.59,-2.19,-1.99,8.28,8.28,8.16
43.03,10.90,2.61,10.90,2.61,-2.57,-2.26,-2.06,8.34,8.34,8.30
43.46,10.94,2.50,10.94,2.52,-2.54,-2.32,-2.13,8.40,8.40,8.44
43.90,10.98,2.44,10.98,2.44,-2.52,-2.39,-2.20,8.46,8.46,8.55
44.33,11.02,2.41,11.02,2.42,-2.51,-2.47,-2.27,8.51,8.51,8.61
44.78,11.06,2.44,11.06,2.44,-2.52,-2.54,-2.34,8.54,8.54,8.62
45.23,11.10,2.51,11.10,2.51,-2.55,-2.61,-2.42,8.54,8.54,8.59
45.68,11.13,2.61,11.13,2.61,-2.61,-2.69,-2.49,8.52,8.52,8.52
46.13,11.17,2.72,11.17,2.72,-2.69,-2.76,-2.57,8.48,8.48,8.45
46.60,11.20,2.83,11.20,2.82,-2.77,-2.84,-2.65,8.44,8.44,8.38
47.06,11.24,2.92,11.24,2.90,-2.85,-2.91,-2.73,8.39,8.39,8.32
47.53,11.27,2.95,11.27,2.95,-2.93,-2.98,-2.82,8.34,8.34,8.32
48.01,11.30,2.98,11.30,2.98,-3.00,-3.05,-2.90,8.31,8.31,8.32
48.49,11.33,3.01,11.33,3.01,-3.05,-3.12,-2.99,8.28,8.28,8.32
48.97,11.36,3.04,11.36,3.06,-3.09,-3.19,-3.08,8.27,8.27,8.32
49.46,11.39,3.12,11.39,3.13,-3.12,-3.25,-3.16,8.27,8.27,8.27
49.96,11.42,3.20,11.42,3.18,-3.14,-3.30,-3.25,8.28,8.28,8.22
50.46,11.44,3.22,11.44,3.20,-3.15,-3.35,-3.34,8.29,8.29,8.22
50.96,11.46,3.18,11.46,3.19,-3.16,-3.40,-3.43,8.30,8.30,8.28
51.47,11.48,3.16,11.48,3.18,-3.18,-3.44,-3.52,8.30,8.30,8.32
51.99,11.50,3.18,11.50,3.17,-3.21,-3.48,-3.61,8.30,8.30,8.32
52.51,11.52,3.20,11.52,3.21,-3.25,-3.51,-3.70,8.28,8.28,8.32
53.03,11.54,3.26,11.54,3.26,-3.31,-3.53,-3.79,8.23,8.23,8.29
53.56,11.56,3.34,11.56,3.33,-3.40,-3.56,-3.88,8.16,8.16,8.21
54.10,11.57,3.43,11.57,3.46,-3.50,-3.57,-3.97,8.07,8.07,8.15
54.64,11.58,3.59,11.58,3.60,-3.61,-3.59,-4.05,7.97,7.97,7.99
55.18,11.59,3.78,11.59,3.74,-3.71,-3.60,-4.13,7.88,7.88,7.81
55.74,11.60,3.86,11.60,3.88,-3.79,-3.61,-4.21,7.81,7.81,7.74
56.29,11.61,3.94,11.61,3.95,-3.85,-3.62,-4.29,7.76,7.76,7.67
56.86,11.62,3.98,11.62,3.95,-3.89,-3.63,-4.36,7.73,7.73,7.64
57.42,11.63,3.92,11.63,3.93,-3.90,-3.64,-4.43,7.73,7.73,7.71
58.00,11.64,3.87,11.64,3.88,-3.90,-3.65,-4.49,7.75,7.75,7.78
58.58,11.65,3.83,11.65,3.84,-3.89,-3.66,-4.55,7.76,7.76,7.82
59.16,11.66,3.84,11.66,3.83,-3.88,-3.67,-4.60,7.77,7.77,7.82
59.76,11.67,3.85,11.67,3.85,-3.90,-3.69,-4.65,7.77,7.77,7.82
60.35,11.67,3.88,11.67,3.88,-3.93,-3.70,-4.69,7.74,7.74,7.79
60.96,11.68,3.95,11.68,3.95,-3.98,-3.72,-4.72,7.69,7.69,7.73
61.57,11.68,4.03,11.68,4.04,-4.04,-3.73,-4.75,7.63,7.63,7.65
62.18,11.68,4.14,11.68,4.14,-4.10,-3.75,-4.77,7.57,7.57,7.54
62.80,11.67,4.25,11.67,4.22,-4.16,-3.77,-4.79,7.51,7.51,7.42
63.43,11.67,4.25,11.67,4.26,-4.21,-3.80,-4.79,7.46,7.46,7.42
64.07,11.67,4.25,11.67,4.26,-4.25,-3.82,-4.79,7.42,7.42,7.42
64.71,11.66,4.24,11.66,4.24,-4.26,-3.85,-4.79,7.40,7.40,7.42
65.35,11.65,4.23,11.65,4.23,-4.26,-3.87,-4.77,7.39,7.40,7.42
66.01,11.65,4.23,11.65,4.23,-4.23,-3.90,-4.76,7.41,7.41,7.42
66.67,11.64,4.22,11.64,4.22,-4.19,-3.93,-4.73,7.44,7.44,7.42
67.33,11.63,4.20,11.63,4.19,-4.15,-3.96,-4.70,7.48,7.48,7.42
68.01,11.61,4.13,11.61,4.13,-4.10,-3.99,-4.67,7.52,7.52,7.48
68.69,11.60,4.05,11.60,4.05,-4.05,-4.02,-4.63,7.55,7.55,7.55
69.37,11.59,3.97,11.59,3.99,-4.01,-4.05,-4.59,7.58,7.58,7.62
70.07,11.57,3.95,11.57,3.94,-3.97,-4.08,-4.54,7.60,7.60,7.62
70.77,11.55,3.93,11.55,3.92,-3.96,-4.11,-4.49,7.60,7.60,7.62
71.48,11.53,3.91,11.54,3.93,-3.96,-4.14,-4.44,7.57,7.57,7.62
72.19,11.52,3.97,11.52,3.96,-4.00,-4.17,-4.39,7.52,7.52,7.55
72.91,11.50,4.02,11.50,4.02,-4.05,-4.20,-4.33,7.45,7.45,7.48
73.64,11.48,4.08,11.48,4.10,-4.11,-4.23,-4.28,7.37,7.37,7.39
74.38,11.45,4.19,11.45,4.18,-4.16,-4.26,-4.22,7.29,7.29,7.26
75.12,11.43,4.26,11.43,4.26,-4.21,-4.29,-4.16,7.22,7.22,7.17
75.87,11.41,4.30,11.41,4.32,-4.24,-4.32,-4.11,7.17,7.17,7.10
76.63,11.39,4.35,11.39,4.32,-4.26,-4.34,-4.05,7.13,7.13,7.04
77.40,11.36,4.29,11.36,4.28,-4.26,-4.37,-4.00,7.10,7.10,7.08
78.17,11.34,4.22,11.34,4.24,-4.26,-4.39,-3.94,7.08,7.08,7.12
78.95,11.31,4.19,11.31,4.21,-4.26,-4.41,-3.89,7.06,7.06,7.12
79.74,11.28,4.22,11.28,4.20,-4.26,-4.43,-3.84,7.03,7.03,7.06
80.54,11.25,4.23,11.25,4.21,-4.26,-4.45,-3.79,6.99,6.99,7.02
81.35,11.22,4.20,11.22,4.25,-4.27,-4.46,-3.74,6.95,6.95,7.02
82.16,11.19,4.30,11.19,4.30,-4.29,-4.48,-3.70,6.90,6.90,6.89
82.98,11.16,4.37,11.16,4.35,-4.31,-4.49,-3.66,6.85,6.85,6.79
83.81,11.12,4.40,11.12,4.39,-4.32,-4.50,-3.62,6.80,6.80,6.72
84.65,11.09,4.37,11.09,4.38,-4.34,-4.50,-3.58,6.75,6.75,6.72
85.50,11.06,4.34,11.06,4.34,-4.34,-4.51,-3.55,6.72,6.72,6.72
86.35,11.03,4.31,11.03,4.30,-4.34,-4.51,-3.51,6.69,6.69,6.72
87.22,11.00,4.28,11.00,4.30,-4.34,-4.51,-3.48,6.66,6.66,6.72
88.09,10.97,4.30,10.97,4.29,-4.32,-4.51,-3.46,6.64,6.64,6.67
88.97,10.93,4.31,10.93,4.29,-4.30,-4.50,-3.43,6.63,6.63,6.62
89.86,10.90,4.28,10.90,4.30,-4.28,-4.49,-3.41,6.62,6.62,6.62
90.76,10.85,4.29,10.85,4.29,-4.25,-4.48,-3.39,6.60,6.60,6.56
91.66,10.80,4.28,10.80,4.27,-4.22,-4.47,-3.38,6.59,6.59,6.52
92.58,10.75,4.23,10.75,4.21,-4.18,-4.45,-3.36,6.58,6.58,6.52
93.51,10.70,4.12,10.70,4.12,-4.13,-4.43,-3.35,6.57,6.57,6.58
94.44,10.65,4.03,10.65,4.05,-4.09,-4.41,-3.34,6.57,6.57,6.62
95.39,10.60,3.98,10.60,4.00,-4.04,-4.39,-3.34,6.56,6.56,6.62
96.34,10.55,4.00,10.55,3.98,-4.01,-4.36,-3.33,6.54,6.55,6.55
97.30,10.50,3.98,10.50,3.97,-3.98,-4.33,-3.33,6.52,6.52,6.52
98.28,10.45,3.94,10.45,3.96,-3.96,-4.30,-3.33,6.49,6.49,6.52
99.26,10.40,3.96,10.40,3.96,-3.96,-4.27,-3.33,6.44,6.44,6.44
100.25,10.35,3.97,10.35,3.96,-3.96,-4.23,-3.34,6.39,6.39,6.37
101.25,10.29,3.97,10.29,3.95,-3.95,-4.19,-3.34,6.35,6.35,6.32
102.27,10.24,3.92,10.24,3.94,-3.93,-4.15,-3.35,6.31,6.31,6.32
103.29,10.19,3.89,10.19,3.92,-3.89,-4.11,-3.36,6.29,6.29,6.29
104.32,10.13,3.91,10.13,3.89,-3.84,-4.07,-3.37,6.29,6.28,6.22
105.37,10.07,3.85,10.07,3.84,-3.79,-4.02,-3.38,6.28,6.28,6.22
106.42,10.02,3.75,10.02,3.75,-3.74,-3.98,-3.39,6.27,6.27,6.26
107.48,9.96,3.64,9.96,3.66,-3.70,-3.93,-3.40,6.26,6.26,6.32
108.56,9.90,3.58,9.90,3.60,-3.66,-3.88,-3.41,6.24,6.24,6.32
109.64,9.84,3.58,9.84,3.57,-3.63,-3.83,-3.41,6.21,6.21,6.26
110.74,9.78,3.60,9.78,3.59,-3.61,-3.78,-3.42,6.17,6.17,6.18
111.85,9.72,3.59,9.72,3.61,-3.60,-3.73,-3.43,6.12,6.12,6.13
112.97,9.65,3.63,9.65,3.62,-3.60,-3.68,-3.43,6.06,6.06,6.02
114.10,9.59,3.62,9.59,3.62,-3.60,-3.63,-3.44,5.99,5.99,5.97
115.24,9.52,3.61,9.52,3.62,-3.58,-3.57,-3.44,5.93,5.93,5.91
116.39,9.44,3.59,9.44,3.59,-3.55,-3.52,-3.44,5.89,5.89,5.85
117.55,9.37,3.55,9.37,3.54,-3.51,-3.47,-3.43,5.85,5.86,5.82
118.73,9.30,3.48,9.30,3.48,-3.47,-3.41,-3.42,5.83,5.83,5.82
119.92,9.23,3.41,9.23,3.41,-3.42,-3.36,-3.41,5.81,5.81,5.82
121.12,9.16,3.34,9.16,3.32,-3.37,-3.31,-3.39,5.78,5.78,5.82
122.33,9.09,3.27,9.09,3.27,-3.33,-3.25,-3.37,5.76,5.76,5.82
123.55,9.02,3.20,9.02,3.25,-3.28,-3.20,-3.35,5.74,5.74,5.82
124.79,8.95,3.28,8.95,3.25,-3.23,-3.15,-3.32,5.72,5.72,5.66
126.03,8.88,3.26,8.88,3.23,-3.18,-3.10,-3.29,5.70,5.70,5.62
127.29,8.80,3.18,8.80,3.19,-3.14,-3.05,-3.25,5.66,5.66,5.62
128.57,8.72,3.10,8.72,3.10,-3.10,-2.99,-3.22,5.63,5.63,5.62
129.85,8.64,3.02,8.64,3.02,-3.06,-2.94,-3.17,5.59,5.59,5.62
131.15,8.56,2.95,8.56,2.97,-3.01,-2.89,-3.12,5.55,5.55,5.61
132.46,8.48,2.93,8.48,2.94,-2.96,-2.85,-3.07,5.52,5.52,5.55
133.79,8.40,2.92,8.40,2.91,-2.91,-2.80,-3.01,5.49,5.49,5.48
135.12,8.32,2.90,8.32,2.87,-2.86,-2.75,-2.95,5.46,5.46,5.42
136.48,8.23,2.81,8.23,2.83,-2.80,-2.70,-2.89,5.43,5.43,5.42
137.84,8.15,2.77,8.15,2.78,-2.75,-2.65,-2.83,5.39,5.39,5.38
139.22,8.06,2.74,8.06,2.72,-2.70,-2.61,-2.76,5.36,5.36,5.32
140.61,7.97,2.65,7.97,2.65,-2.65,-2.56,-2.69,5.32,5.32,5.32
142.02,7.88,2.56,7.88,2.57,-2.59,-2.51,-2.61,5.29,5.29,5.32
143.44,7.79,2.49,7.79,2.50,-2.54,-2.47,-2.54,5.25,5.25,5.30
144.87,7.70,2.47,7.70,2.47,-2.49,-2.42,-2.46,5.21,5.21,5.23
146.32,7.60,2.45,7.60,2.45,-2.44,-2.37,-2.38,5.16,5.16,5.15
147.78,7.51,2.42,7.51,2.42,-2.40,-2.33,-2.30,5.10,5.10,5.08
149.26,7.41,2.39,7.41,2.37,-2.36,-2.28,-2.22,5.05,5.05,5.02
150.75,7.31,2.29,7.31,2.31,-2.31,-2.23,-2.14,5.00,5.00,5.02
152.26,7.22,2.24,7.22,2.25,-2.25,-2.17,-2.06,4.97,4.97,4.98
153.78,7.12,2.19,7.12,2.20,-2.18,-2.12,-1.98,4.94,4.94,4.93
155.32,7.02,2.17,7.02,2.14,-2.10,-2.06,-1.90,4.92,4.92,4.85
156.88,6.92,2.06,6.92,2.04,-2.02,-2.00,-1.82,4.90,4.90,4.86
158.44,6.82,1.90,6.82,1.92,-1.93,-1.94,-1.74,4.89,4.89,4.92
160.03,6.72,1.80,6.72,1.82,-1.85,-1.88,-1.65,4.87,4.87,4.92
161.63,6.62,1.75,6.62,1.74,-1.77,-1.81,-1.57,4.85,4.85,4.87
163.24,6.51,1.69,6.51,1.67,-1.69,-1.74,-1.49,4.82,4.82,4.82
164.88,6.41,1.59,6.41,1.60,-1.62,-1.67,-1.41,4.79,4.79,4.82
166.53,6.30,1.53,6.30,1.54,-1.54,-1.60,-1.33,4.76,4.76,4.77
168.19,6.20,1.48,6.20,1.49,-1.47,-1.52,-1.25,4.72,4.72,4.71
169.87,6.09,1.46,6.09,1.44,-1.40,-1.44,-1.17,4.69,4.69,4.63
171.57,5.98,1.36,5.98,1.36,-1.32,-1.36,-1.10,4.66,4.66,4.62
173.29,5.87,1.25,5.87,1.25,-1.24,-1.28,-1.02,4.63,4.63,4.62
175.02,5.76,1.13,5.76,1.13,-1.16,-1.20,-0.94,4.59,4.59,4.62
176.77,5.64,1.02,5.64,1.04,-1.08,-1.11,-0.87,4.56,4.56,4.62
178.54,5.53,0.96,5.53,0.96,-1.00,-1.03,-0.79,4.53,4.53,4.57
180.32,5.42,0.91,5.42,0.91,-0.91,-0.94,-0.72,4.51,4.51,4.51
182.13,5.31,0.86,5.31,0.85,-0.82,-0.86,-0.64,4.49,4.49,4.45
183.95,5.20,0.78,5.20,0.78,-0.74,-0.77,-0.57,4.47,4.47,4.42
185.79,5.10,0.68,5.10,0.68,-0.65,-0.68,-0.50,4.44,4.44,4.42
187.65,4.99,0.57,4.99,0.57,-0.57,-0.60,-0.43,4.42,4.42,4.42
189.52,4.88,0.46,4.88,0.47,-0.49,-0.51,-0.36,4.40,4.39,4.42
191.42,4.77,0.37,4.77,0.38,-0.41,-0.43,-0.29,4.37,4.37,4.41
193.33,4.66,0.32,4.66,0.30,-0.33,-0.34,-0.22,4.33,4.33,4.34
195.27,4.55,0.23,4.55,0.23,-0.26,-0.26,-0.15,4.30,4.30,4.32
197.22,4.44,0.16,4.44,0.17,-0.18,-0.17,-0.08,4.26,4.26,4.28
199.19,4.33,0.11,4.33,0.12,-0.09,-0.09,-0.01,4.23,4.23,4.21
201.18,4.22,0.07,4.22,0.06,-0.00,-0.00,0.06,4.21,4.21,4.15
203.19,4.11,-0.02,4.11,-0.02,0.09,0.08,0.12,4.20,4.20,4.12
205.23,4.00,-0.13,4.00,-0.15,0.18,0.16,0.19,4.18,4.18,4.13
207.28,3.89,-0.30,3.89,-0.29,0.27,0.25,0.25,4.16,4.16,4.20
209.35,3.79,-0.43,3.79,-0.42,0.34,0.33,0.32,4.13,4.13,4.22
211.44,3.69,-0.52,3.69,-0.50,0.41,0.41,0.38,4.10,4.10,4.21
213.56,3.59,-0.54,3.59,-0.52,0.48,0.49,0.44,4.07,4.07,4.14
215.69,3.50,-0.51,3.50,-0.53,0.53,0.57,0.51,4.03,4.03,4.01
217.85,3.41,-0.52,3.40,-0.54,0.59,0.65,0.57,3.99,3.99,3.92
220.03,3.31,-0.61,3.31,-0.57,0.65,0.73,0.63,3.96,3.96,3.92
222.23,3.22,-0.65,3.22,-0.65,0.71,0.81,0.68,3.93,3.93,3.86
224.45,3.12,-0.71,3.12,-0.75,0.79,0.89,0.74,3.91,3.91,3.84
226.70,3.02,-0.89,3.02,-0.86,0.87,0.97,0.79,3.89,3.89,3.91
228.96,2.92,-1.00,2.93,-0.99,0.95,1.04,0.85,3.88,3.88,3.92
231.25,2.83,-1.09,2.83,-1.11,1.04,1.12,0.90,3.87,3.87,3.92
233.57,2.73,-1.19,2.73,-1.17,1.13,1.19,0.95,3.86,3.86,3.92
235.90,2.63,-1.22,2.63,-1.22,1.21,1.26,1.00,3.84,3.84,3.86
238.26,2.54,-1.23,2.54,-1.25,1.27,1.33,1.05,3.82,3.82,3.78
240.64,2.46,-1.26,2.46,-1.28,1.33,1.40,1.09,3.78,3.78,3.72
243.05,2.37,-1.35,2.37,-1.35,1.37,1.46,1.14,3.74,3.74,3.72
245.48,2.29,-1.43,2.29,-1.42,1.40,1.52,1.18,3.70,3.70,3.72
247.93,2.21,-1.49,2.21,-1.48,1.44,1.58,1.22,3.65,3.65,3.70
250.41,2.13,-1.50,2.13,-1.51,1.47,1.63,1.26,3.60,3.60,3.64
252.92,2.06,-1.52,2.06,-1.51,1.50,1.69,1.29,3.56,3.56,3.57
255.45,1.98,-1.52,1.98,-1.52,1.54,1.74,1.33,3.52,3.52,3.51
258.00,1.91,-1.51,1.91,-1.54,1.57,1.78,1.36,3.48,3.48,3.42
260.58,1.84,-1.58,1.84,-1.58,1.61,1.83,1.39,3.45,3.45,3.42
263.19,1.77,-1.65,1.77,-1.64,1.65,1.87,1.42,3.43,3.43,3.42
265.82,1.71,-1.71,1.71,-1.71,1.70,1.91,1.45,3.41,3.41,3.42
268.48,1.65,-1.78,1.64,-1.78,1.77,1.94,1.48,3.41,3.41,3.42
271.16,1.58,-1.84,1.58,-1.84,1.83,1.98,1.50,3.42,3.42,3.42
273.87,1.52,-1.90,1.52,-1.90,1.90,2.01,1.53,3.43,3.43,3.42
276.61,1.46,-1.96,1.46,-1.96,1.96,2.04,1.55,3.43,3.43,3.42
279.38,1.41,-2.02,1.41,-2.02,2.02,2.07,1.58,3.42,3.42,3.42
282.17,1.35,-2.07,1.35,-2.08,2.06,2.09,1.60,3.40,3.40,3.42
284.99,1.29,-2.13,1.29,-2.12,2.10,2.12,1.62,3.38,3.38,3.42
287.84,1.23,-2.15,1.23,-2.14,2.13,2.14,1.65,3.35,3.35,3.37
290.72,1.17,-2.13,1.17,-2.14,2.14,2.17,1.67,3.31,3.31,3.30
293.63,1.11,-2.12,1.11,-2.14,2.15,2.19,1.69,3.26,3.26,3.23
296.57,1.06,-2.16,1.06,-2.15,2.15,2.22,1.72,3.21,3.21,3.22
299.53,1.01,-2.18,1.01,-2.17,2.15,2.24,1.74,3.15,3.15,3.19
302.53,0.95,-2.18,0.95,-2.18,2.15,2.26,1.76,3.10,3.10,3.13
305.55,0.90,-2.16,0.90,-2.15,2.16,2.29,1.79,3.06,3.06,3.06
308.61,0.85,-2.14,0.85,-2.14,2.18,2.31,1.82,3.03,3.03,2.99
311.69,0.79,-2.13,0.79,-2.17,2.22,2.33,1.84,3.01,3.01,2.93
314.81,0.74,-2.25,0.74,-2.23,2.27,2.36,1.87,3.02,3.02,2.99
317.96,0.69,-2.33,0.69,-2.31,2.34,2.38,1.90,3.02,3.02,3.02
321.14,0.63,-2.39,0.63,-2.39,2.40,2.41,1.93,3.03,3.03,3.02
324.35,0.58,-2.44,0.58,-2.47,2.45,2.43,1.96,3.03,3.03,3.02
327.59,0.53,-2.55,0.53,-2.55,2.49,2.46,2.00,3.01,3.01,3.07
330.87,0.47,-2.63,0.47,-2.60,2.51,2.49,2.03,2.98,2.98,3.10
334.18,0.42,-2.62,0.42,-2.61,2.52,2.51,2.07,2.94,2.94,3.04
337.52,0.36,-2.55,0.36,-2.55,2.54,2.54,2.11,2.90,2.90,2.92
340.90,0.31,-2.47,0.31,-2.46,2.55,2.57,2.15,2.86,2.86,2.78
344.30,0.26,-2.39,0.26,-2.43,2.56,2.59,2.19,2.82,2.82,2.65
347.75,0.21,-2.46,0.21,-2.47,2.56,2.62,2.23,2.78,2.78,2.68
351.23,0.16,-2.58,0.16,-2.57,2.57,2.65,2.28,2.74,2.74,2.75
354.74,0.12,-2.70,0.12,-2.69,2.59,2.68,2.33,2.71,2.71,2.82
358.28,0.07,-2.75,0.07,-2.72,2.63,2.70,2.38,2.70,2.70,2.82
361.87,0.02,-2.73,0.02,-2.71,2.68,2.73,2.43,2.70,2.70,2.75
365.49,-0.03,-2.65,-0.03,-2.69,2.74,2.76,2.48,2.71,2.71,2.62
369.14,-0.08,-2.70,-0.08,-2.71,2.80,2.79,2.53,2.72,2.72,2.62
372.83,-0.13,-2.79,-0.13,-2.78,2.84,2.82,2.59,2.71,2.71,2.66
376.56,-0.18,-2.90,-0.18,-2.88,2.88,2.85,2.65,2.69,2.69,2.72
380.33,-0.24,-2.96,-0.24,-2.96,2.91,2.88,2.71,2.67,2.67,2.72
384.13,-0.29,-3.01,-0.29,-3.02,2.95,2.90,2.77,2.65,2.65,2.72
387.97,-0.35,-3.05,-0.35,-3.04,2.99,2.93,2.83,2.64,2.64,2.70
391.85,-0.40,-3.04,-0.40,-3.04,3.03,2.96,2.90,2.63,2.63,2.64
395.77,-0.45,-3.02,-0.46,-3.03,3.07,2.99,2.96,2.61,2.61,2.57
399.73,-0.51,-3.03,-0.51,-3.04,3.11,3.02,3.03,2.60,2.60,2.52
403.72,-0.56,-3.08,-0.56,-3.10,3.15,3.04,3.10,2.59,2.59,2.52
407.76,-0.61,-3.19,-0.61,-3.18,3.19,3.07,3.16,2.59,2.59,2.58
411.84,-0.65,-3.27,-0.65,-3.26,3.24,3.10,3.23,2.59,2.59,2.62
415.96,-0.70,-3.32,-0.70,-3.32,3.29,3.13,3.30,2.59,2.59,2.62
420.12,-0.74,-3.36,-0.74,-3.37,3.33,3.15,3.37,2.59,2.59,2.62
424.32,-0.79,-3.41,-0.79,-3.41,3.38,3.18,3.44,2.59,2.59,2.62
428.56,-0.84,-3.45,-0.84,-3.43,3.42,3.20,3.50,2.58,2.58,2.61
432.85,-0.88,-3.42,-0.88,-3.42,3.45,3.23,3.57,2.56,2.56,2.54
437.18,-0.93,-3.41,-0.93,-3.42,3.47,3.25,3.63,2.54,2.54,2.48
441.55,-0.98,-3.41,-0.98,-3.45,3.48,3.28,3.70,2.50,2.50,2.43
445.96,-1.03,-3.53,-1.03,-3.49,3.49,3.30,3.76,2.47,2.47,2.50
450.42,-1.07,-3.54,-1.07,-3.54,3.50,3.33,3.81,2.43,2.43,2.47
454.93,-1.12,-3.54,-1.11,-3.56,3.50,3.35,3.87,2.39,2.39,2.42
459.48,-1.16,-3.58,-1.16,-3.53,3.51,3.37,3.92,2.36,2.36,2.42
464.07,-1.20,-3.50,-1.20,-3.51,3.52,3.39,3.97,2.33,2.33,2.30
468.71,-1.24,-3.46,-1.23,-3.49,3.53,3.41,4.01,2.30,2.30,2.22
473.40,-1.27,-3.50,-1.27,-3.49,3.54,3.43,4.05,2.26,2.26,2.22
478.13,-1.32,-3.54,-1.32,-3.53,3.54,3.45,4.08,2.22,2.22,2.22
482.91,-1.36,-3.58,-1.36,-3.58,3.55,3.47,4.11,2.19,2.19,2.22
487.74,-1.40,-3.62,-1.40,-3.59,3.56,3.49,4.13,2.17,2.17,2.22
492.62,-1.44,-3.59,-1.43,-3.60,3.59,3.50,4.15,2.16,2.16,2.15
497.55,-1.47,-3.59,-1.47,-3.61,3.62,3.52,4.16,2.15,2.15,2.12
502.52,-1.51,-3.63,-1.51,-3.63,3.65,3.53,4.16,2.14,2.14,2.12
507.55,-1.55,-3.67,-1.55,-3.66,3.68,3.55,4.16,2.14,2.14,2.12
512.62,-1.58,-3.70,-1.58,-3.70,3.71,3.56,4.15,2.12,2.12,2.12
517.75,-1.62,-3.74,-1.62,-3.74,3.73,3.57,4.14,2.11,2.11,2.12
522.93,-1.66,-3.78,-1.66,-3.78,3.76,3.58,4.13,2.10,2.10,2.12
528.16,-1.69,-3.81,-1.69,-3.80,3.78,3.60,4.10,2.09,2.09,2.12
