frequency,raw,error,smoothed,error_smoothed,equalization,parametric_eq,fixed_band_eq,equalized_raw,equalized_smoothed,target
20.00,10.98,-1.11,10.98,-1.11,1.13,0.97,0.29,12.11,12.11,12.08
20.20,11.01,-1.10,11.01,-1.09,1.09,0.98,0.29,12.10,12.10,12.10
20.40,11.03,-1.08,11.03,-1.07,1.06,0.98,0.30,12.09,12.09,12.11
20.61,11.06,-1.05,11.06,-1.05,1.03,0.98,0.31,12.09,12.09,12.11
20.81,11.09,-1.01,11.09,-1.02,1.00,0.97,0.32,12.09,12.09,12.11
21.02,11.12,-0.98,11.12,-0.98,0.98,0.97,0.33,12.10,12.10,12.10
21.23,11.15,-0.95,11.15,-0.95,0.96,0.97,0.34,12.11,12.11,12.10
21.44,11.18,-0.93,11.18,-0.93,0.94,0.97,0.35,12.12,12.12,12.11
21.66,11.20,-0.92,11.20,-0.92,0.93,0.97,0.36,12.13,12.13,12.12
21.87,11.22,-0.91,11.22,-0.91,0.92,0.96,0.37,12.14,12.14,12.13
22.09,11.24,-0.91,11.24,-0.91,0.92,0.96,0.38,12.15,12.15,12.15
22.31,11.25,-0.92,11.25,-0.92,0.92,0.95,0.39,12.17,12.17,12.17
22.54,11.26,-0.93,11.26,-0.93,0.93,0.95,0.41,12.18,12.18,12.19
22.76,11.26,-0.94,11.26,-0.94,0.94,0.94,0.42,12.19,12.19,12.20
22.99,11.26,-0.95,11.26,-0.95,0.95,0.94,0.43,12.20,12.20,12.21
23.22,11.26,-0.96,11.26,-0.96,0.95,0.93,0.44,12.21,12.21,12.21
23.45,11.25,-0.96,11.25,-0.96,0.96,0.93,0.46,12.21,12.21,12.21
23.69,11.25,-0.97,11.25,-0.97,0.97,0.92,0.47,12.21,12.21,12.21
23.92,11.24,-0.97,11.24,-0.97,0.97,0.91,0.48,12.21,12.21,12.21
24.16,11.24,-0.97,11.24,-0.97,0.97,0.91,0.49,12.21,12.21,12.21
24.40,11.24,-0.97,11.24,-0.97,0.97,0.90,0.51,12.21,12.21,12.21
24.65,11.24,-0.96,11.24,-0.96,0.96,0.89,0.52,12.20,12.20,12.20
24.89,11.25,-0.96,11.25,-0.96,0.95,0.88,0.54,12.20,12.20,12.21
25.14,11.26,-0.94,11.26,-0.94,0.94,0.87,0.55,12.20,12.20,12.21
25.39,11.28,-0.92,11.28,-0.92,0.92,0.87,0.56,12.20,12.20,12.20
25.65,11.30,-0.90,11.30,-0.90,0.90,0.86,0.58,12.20,12.20,12.20
25.91,11.32,-0.87,11.32,-0.87,0.87,0.85,0.59,12.19,12.20,12.19
26.16,11.34,-0.85,11.34,-0.85,0.85,0.84,0.61,12.19,12.19,12.19
26.43,11.36,-0.82,11.36,-0.82,0.83,0.83,0.62,12.19,12.18,12.18
26.69,11.37,-0.80,11.37,-0.80,0.81,0.82,0.63,12.18,12.18,12.17
26.96,11.38,-0.78,11.38,-0.78,0.79,0.81,0.65,12.17,12.17,12.16
27.23,11.38,-0.77,11.38,-0.77,0.77,0.80,0.66,12.15,12.15,12.15
27.50,11.39,-0.76,11.39,-0.76,0.75,0.79,0.67,12.14,12.14,12.14
27.77,11.39,-0.74,11.39,-0.74,0.74,0.79,0.69,12.13,12.13,12.14
28.05,11.40,-0.73,11.40,-0.73,0.72,0.78,0.70,12.12,12.12,12.13
28.33,11.41,-0.71,11.41,-0.71,0.71,0.77,0.71,12.12,12.12,12.12
28.62,11.42,-0.69,11.42,-0.69,0.69,0.76,0.72,12.11,12.11,12.11
28.90,11.43,-0.67,11.43,-0.67,0.67,0.75,0.73,12.10,12.10,12.10
29.19,11.44,-0.65,11.44,-0.65,0.65,0.74,0.74,12.09,12.09,12.09
29.48,11.45,-0.63,11.45,-0.64,0.64,0.73,0.75,12.09,12.09,12.08
29.78,11.46,-0.62,11.46,-0.62,0.62,0.72,0.76,12.08,12.08,12.08
30.08,11.46,-0.61,11.46,-0.61,0.61,0.71,0.76,12.07,12.07,12.07
30.38,11.47,-0.60,11.47,-0.60,0.60,0.71,0.77,12.07,12.07,12.07
30.68,11.47,-0.59,11.47,-0.59,0.59,0.70,0.77,12.06,12.06,12.06
30.99,11.46,-0.59,11.46,-0.59,0.59,0.69,0.78,12.06,12.06,12.05
31.30,11.46,-0.59,11.46,-0.59,0.59,0.68,0.78,12.05,12.05,12.05
31.61,11.44,-0.60,11.44,-0.60,0.60,0.67,0.78,12.04,12.04,12.04
31.93,11.43,-0.60,11.43,-0.60,0.60,0.67,0.78,12.03,12.03,12.04
32.24,11.42,-0.61,11.42,-0.61,0.61,0.66,0.78,12.03,12.03,12.03
32.57,11.41,-0.62,11.41,-0.62,0.61,0.65,0.78,12.02,12.02,12.03
32.89,11.40,-0.62,11.40,-0.62,0.62,0.64,0.78,12.02,12.02,12.02
33.22,11.40,-0.62,11.40,-0.62,0.62,0.64,0.77,12.02,12.02,12.02
33.55,11.39,-0.62,11.39,-0.62,0.62,0.63,0.77,12.02,12.01,12.01
33.89,11.38,-0.62,11.38,-0.62,0.63,0.62,0.77,12.01,12.01,12.00
34.23,11.37,-0.62,11.37,-0.62,0.62,0.62,0.76,12.00,12.00,12.00
34.57,11.36,-0.62,11.36,-0.62,0.62,0.61,0.76,11.98,11.98,11.99
34.92,11.35,-0.62,11.35,-0.62,0.61,0.60,0.75,11.97,11.97,11.97
35.27,11.35,-0.61,11.35,-0.61,0.61,0.60,0.74,11.95,11.95,11.96
35.62,11.34,-0.60,11.34,-0.60,0.59,0.59,0.73,11.94,11.94,11.94
35.97,11.34,-0.59,11.34,-0.59,0.58,0.59,0.73,11.92,11.92,11.92
36.33,11.34,-0.57,11.34,-0.57,0.57,0.58,0.72,11.91,11.91,11.91
36.70,11.34,-0.55,11.34,-0.55,0.56,0.57,0.71,11.89,11.89,11.89
37.06,11.34,-0.54,11.33,-0.54,0.54,0.57,0.70,11.88,11.88,11.87
37.43,11.33,-0.53,11.33,-0.53,0.54,0.56,0.69,11.87,11.86,11.86
37.81,11.32,-0.52,11.32,-0.52,0.53,0.56,0.69,11.85,11.85,11.84
38.19,11.30,-0.52,11.30,-0.52,0.53,0.56,0.68,11.83,11.83,11.83
38.57,11.28,-0.53,11.28,-0.53,0.53,0.55,0.67,11.81,11.81,11.81
38.95,11.26,-0.53,11.26,-0.53,0.53,0.55,0.66,11.79,11.79,11.80
39.34,11.24,-0.54,11.24,-0.54,0.53,0.54,0.65,11.77,11.77,11.78
39.74,11.23,-0.54,11.23,-0.54,0.53,0.54,0.65,11.76,11.76,11.77
40.14,11.21,-0.54,11.22,-0.54,0.53,0.54,0.64,11.75,11.75,11.75
40.54,11.21,-0.54,11.21,-0.54,0.53,0.53,0.63,11.74,11.74,11.74
40.94,11.20,-0.53,11.20,-0.53,0.53,0.53,0.62,11.73,11.73,11.73
41.35,11.19,-0.53,11.19,-0.53,0.53,0.53,0.62,11.72,11.72,11.71
41.76,11.17,-0.53,11.17,-0.53,0.53,0.52,0.61,11.70,11.70,11.70
42.18,11.15,-0.53,11.15,-0.53,0.53,0.52,0.61,11.69,11.69,11.68
42.60,11.14,-0.53,11.14,-0.53,0.53,0.52,0.60,11.67,11.67,11.67
43.03,11.12,-0.53,11.11,-0.53,0.53,0.52,0.60,11.65,11.65,11.65
43.46,11.09,-0.54,11.09,-0.54,0.53,0.51,0.59,11.62,11.62,11.63
43.90,11.07,-0.54,11.07,-0.54,0.53,0.51,0.59,11.60,11.60,11.61
44.33,11.06,-0.53,11.06,-0.53,0.52,0.51,0.58,11.58,11.58,11.59
44.78,11.05,-0.52,11.05,-0.52,0.51,0.51,0.58,11.56,11.56,11.57
45.23,11.04,-0.50,11.04,-0.51,0.51,0.51,0.58,11.55,11.55,11.55
45.68,11.03,-0.49,11.03,-0.49,0.50,0.51,0.58,11.53,11.53,11.52
46.13,11.01,-0.49,11.01,-0.49,0.50,0.51,0.57,11.51,11.51,11.50
46.60,10.99,-0.49,10.99,-0.49,0.50,0.51,0.57,11.49,11.49,11.48
47.06,10.96,-0.50,10.96,-0.50,0.51,0.51,0.57,11.46,11.46,11.45
47.53,10.92,-0.51,10.92,-0.51,0.51,0.51,0.57,11.44,11.43,11.43
48.01,10.88,-0.52,10.88,-0.52,0.52,0.50,0.57,11.40,11.40,11.40
48.49,10.84,-0.54,10.84,-0.54,0.52,0.50,0.57,11.37,11.37,11.38
48.97,10.81,-0.55,10.81,-0.54,0.53,0.50,0.57,11.34,11.34,11.36
49.46,10.78,-0.55,10.79,-0.54,0.53,0.51,0.57,11.31,11.31,11.33
49.96,10.77,-0.54,10.77,-0.53,0.53,0.51,0.58,11.30,11.30,11.31
50.46,10.77,-0.52,10.77,-0.52,0.52,0.51,0.58,11.29,11.29,11.29
50.96,10.76,-0.50,10.76,-0.51,0.52,0.51,0.58,11.29,11.28,11.27
51.47,10.74,-0.50,10.74,-0.51,0.53,0.51,0.58,11.27,11.27,11.25
51.99,10.70,-0.52,10.70,-0.52,0.54,0.51,0.59,11.24,11.24,11.23
52.51,10.66,-0.54,10.66,-0.54,0.55,0.51,0.59,11.21,11.21,11.20
53.03,10.61,-0.57,10.62,-0.57,0.56,0.51,0.59,11.18,11.18,11.18
53.56,10.58,-0.59,10.58,-0.59,0.58,0.51,0.59,11.16,11.16,11.16
54.10,10.54,-0.60,10.54,-0.61,0.60,0.51,0.60,11.14,11.14,11.14
54.64,10.50,-0.62,10.50,-0.62,0.61,0.52,0.60,11.11,11.11,11.12
55.18,10.46,-0.64,10.46,-0.63,0.62,0.52,0.61,11.08,11.08,11.10
55.74,10.43,-0.63,10.43,-0.63,0.62,0.52,0.61,11.05,11.05,11.07
56.29,10.41,-0.62,10.41,-0.62,0.62,0.52,0.61,11.02,11.02,11.03
56.86,10.38,-0.60,10.38,-0.61,0.61,0.52,0.62,10.99,10.99,10.99
57.42,10.36,-0.59,10.36,-0.59,0.60,0.53,0.62,10.96,10.96,10.95
58.00,10.33,-0.58,10.33,-0.58,0.59,0.53,0.62,10.92,10.92,10.91
58.58,10.30,-0.57,10.30,-0.57,0.58,0.53,0.63,10.88,10.88,10.87
59.16,10.27,-0.57,10.27,-0.57,0.57,0.54,0.63,10.84,10.84,10.84
59.76,10.24,-0.57,10.24,-0.56,0.56,0.54,0.63,10.80,10.80,10.80
60.35,10.21,-0.56,10.21,-0.56,0.56,0.54,0.63,10.77,10.77,10.77
60.96,10.18,-0.55,10.19,-0.55,0.56,0.54,0.64,10.74,10.74,10.74
61.57,10.16,-0.55,10.16,-0.55,0.56,0.55,0.64,10.72,10.71,10.71
62.18,10.13,-0.55,10.13,-0.55,0.56,0.55,0.64,10.69,10.69,10.68
62.80,10.09,-0.56,10.09,-0.56,0.56,0.56,0.64,10.66,10.66,10.65
63.43,10.06,-0.57,10.06,-0.57,0.57,0.56,0.64,10.62,10.62,10.63
64.07,10.02,-0.58,10.02,-0.58,0.57,0.56,0.65,10.59,10.59,10.60
64.71,9.99,-0.58,9.99,-0.58,0.58,0.57,0.65,10.57,10.57,10.57
65.35,9.95,-0.59,9.95,-0.59,0.59,0.57,0.65,10.54,10.54,10.54
66.01,9.92,-0.59,9.92,-0.59,0.60,0.57,0.65,10.51,10.51,10.51
66.67,9.88,-0.60,9.88,-0.60,0.60,0.58,0.65,10.48,10.48,10.48
67.33,9.84,-0.61,9.84,-0.61,0.60,0.58,0.65,10.45,10.45,10.45
68.01,9.80,-0.61,9.80,-0.61,0.61,0.59,0.65,10.41,10.41,10.42
68.69,9.76,-0.61,9.76,-0.61,0.61,0.59,0.65,10.37,10.37,10.38
69.37,9.73,-0.61,9.73,-0.61,0.61,0.60,0.65,10.34,10.34,10.34
70.07,9.69,-0.61,9.69,-0.61,0.62,0.60,0.65,10.31,10.31,10.30
70.77,9.65,-0.62,9.65,-0.62,0.62,0.61,0.65,10.27,10.27,10.27
71.48,9.61,-0.62,9.61,-0.62,0.63,0.61,0.65,10.24,10.24,10.23
72.19,9.57,-0.63,9.57,-0.63,0.63,0.62,0.65,10.20,10.20,10.20
72.91,9.53,-0.64,9.53,-0.64,0.64,0.62,0.65,10.17,10.17,10.17
73.64,9.48,-0.65,9.48,-0.65,0.65,0.62,0.65,10.13,10.13,10.13
74.38,9.43,-0.66,9.43,-0.66,0.66,0.63,0.65,10.09,10.09,10.09
75.12,9.38,-0.67,9.38,-0.67,0.67,0.63,0.65,10.05,10.05,10.05
75.87,9.34,-0.68,9.34,-0.68,0.68,0.64,0.65,10.01,10.01,10.01
76.63,9.29,-0.68,9.29,-0.68,0.68,0.65,0.65,9.97,9.97,9.97
77.40,9.25,-0.69,9.25,-0.69,0.69,0.65,0.65,9.94,9.93,9.93
78.17,9.20,-0.69,9.20,-0.69,0.69,0.66,0.66,9.90,9.90,9.89
78.95,9.16,-0.69,9.16,-0.69,0.70,0.66,0.66,9.85,9.85,9.85
79.74,9.11,-0.70,9.11,-0.70,0.70,0.67,0.66,9.81,9.81,9.81
80.54,9.07,-0.70,9.07,-0.70,0.71,0.67,0.67,9.77,9.77,9.77
81.35,9.02,-0.71,9.02,-0.71,0.71,0.68,0.67,9.73,9.73,9.73
82.16,8.97,-0.72,8.97,-0.72,0.72,0.68,0.68,9.69,9.69,9.69
82.98,8.92,-0.72,8.92,-0.72,0.72,0.69,0.68,9.64,9.64,9.64
83.81,8.87,-0.73,8.87,-0.73,0.73,0.69,0.69,9.60,9.60,9.60
84.65,8.82,-0.73,8.82,-0.73,0.73,0.70,0.69,9.55,9.55,9.55
85.50,8.78,-0.73,8.78,-0.73,0.73,0.70,0.70,9.50,9.50,9.51
86.35,8.73,-0.73,8.74,-0.73,0.72,0.71,0.71,9.46,9.46,9.46
87.22,8.70,-0.72,8.70,-0.72,0.72,0.71,0.71,9.42,9.42,9.42
88.09,8.66,-0.72,8.66,-0.72,0.72,0.72,0.72,9.38,9.38,9.38
88.97,8.62,-0.71,8.62,-0.71,0.72,0.72,0.73,9.34,9.34,9.33
89.86,8.58,-0.71,8.58,-0.71,0.72,0.73,0.74,9.30,9.30,9.29
90.76,8.53,-0.71,8.53,-0.71,0.72,0.74,0.75,9.25,9.25,9.24
91.66,8.48,-0.72,8.48,-0.72,0.73,0.74,0.76,9.21,9.21,9.20
92.58,8.42,-0.74,8.42,-0.74,0.74,0.75,0.77,9.16,9.16,9.15
93.51,8.36,-0.75,8.36,-0.75,0.74,0.75,0.78,9.10,9.10,9.11
94.44,8.31,-0.76,8.31,-0.76,0.75,0.76,0.80,9.05,9.05,9.06
95.39,8.25,-0.76,8.25,-0.76,0.75,0.76,0.81,9.00,9.00,9.01
96.34,8.20,-0.76,8.20,-0.76,0.74,0.77,0.82,8.95,8.95,8.96
97.30,8.16,-0.75,8.16,-0.75,0.74,0.77,0.84,8.90,8.90,8.91
98.28,8.12,-0.73,8.12,-0.73,0.74,0.78,0.85,8.85,8.85,8.85
99.26,8.07,-0.72,8.07,-0.72,0.74,0.78,0.86,8.81,8.81,8.80
100.25,8.02,-0.72,8.02,-0.72,0.74,0.79,0.88,8.76,8.76,8.74
101.25,7.97,-0.73,7.96,-0.73,0.75,0.79,0.89,8.72,8.71,8.70
102.27,7.90,-0.75,7.90,-0.75,0.76,0.79,0.91,8.66,8.66,8.66
103.29,7.84,-0.78,7.84,-0.78,0.78,0.80,0.92,8.62,8.62,8.62
104.32,7.77,-0.81,7.77,-0.81,0.79,0.80,0.94,8.57,8.57,8.58
105.37,7.71,-0.83,7.71,-0.83,0.81,0.81,0.95,8.52,8.52,8.54
106.42,7.65,-0.84,7.65,-0.84,0.82,0.81,0.97,8.48,8.48,8.49
107.48,7.60,-0.84,7.60,-0.84,0.83,0.81,0.98,8.43,8.43,8.44
108.56,7.54,-0.84,7.54,-0.84,0.84,0.82,1.00,8.38,8.38,8.38
109.64,7.48,-0.83,7.48,-0.83,0.84,0.82,1.01,8.32,8.32,8.32
110.74,7.43,-0.83,7.43,-0.83,0.84,0.83,1.02,8.27,8.27,8.26
111.85,7.37,-0.83,7.37,-0.83,0.84,0.83,1.04,8.21,8.21,8.20
112.97,7.31,-0.84,7.31,-0.84,0.84,0.83,1.05,8.15,8.15,8.15
114.10,7.25,-0.85,7.25,-0.85,0.84,0.84,1.06,8.09,8.09,8.09
115.24,7.19,-0.85,7.19,-0.85,0.85,0.84,1.07,8.04,8.04,8.04
116.39,7.13,-0.86,7.13,-0.86,0.85,0.84,1.08,7.98,7.98,7.99
117.55,7.08,-0.86,7.08,-0.86,0.85,0.84,1.09,7.93,7.93,7.93
118.73,7.02,-0.85,7.02,-0.85,0.85,0.85,1.10,7.87,7.87,7.88
119.92,6.97,-0.85,6.97,-0.85,0.85,0.85,1.10,7.82,7.82,7.82
121.12,6.92,-0.85,6.92,-0.85,0.85,0.85,1.11,7.77,7.77,7.76
122.33,6.86,-0.85,6.86,-0.85,0.85,0.85,1.11,7.72,7.71,7.71
123.55,6.80,-0.85,6.80,-0.85,0.86,0.85,1.11,7.66,7.66,7.65
124.79,6.73,-0.86,6.73,-0.86,0.86,0.86,1.11,7.60,7.59,7.59
126.03,6.66,-0.87,6.66,-0.87,0.87,0.86,1.11,7.53,7.53,7.54
127.29,6.60,-0.88,6.60,-0.88,0.87,0.86,1.11,7.47,7.47,7.48
128.57,6.54,-0.89,6.54,-0.89,0.88,0.86,1.11,7.42,7.42,7.42
129.85,6.48,-0.89,6.48,-0.89,0.88,0.86,1.10,7.36,7.36,7.37
131.15,6.43,-0.89,6.43,-0.89,0.89,0.86,1.10,7.31,7.31,7.31
132.46,6.37,-0.89,6.37,-0.89,0.89,0.86,1.09,7.26,7.26,7.26
133.79,6.32,-0.89,6.32,-0.89,0.89,0.86,1.08,7.21,7.21,7.21
135.12,6.26,-0.89,6.26,-0.89,0.89,0.86,1.07,7.16,7.16,7.15
136.48,6.21,-0.89,6.21,-0.89,0.90,0.86,1.06,7.10,7.10,7.10
137.84,6.15,-0.89,6.15,-0.90,0.90,0.86,1.05,7.04,7.04,7.04
139.22,6.08,-0.90,6.08,-0.90,0.90,0.86,1.04,6.99,6.99,6.99
140.61,6.02,-0.91,6.02,-0.91,0.91,0.86,1.02,6.93,6.93,6.93
142.02,5.96,-0.91,5.96,-0.91,0.91,0.86,1.01,6.87,6.86,6.87
143.44,5.89,-0.91,5.89,-0.91,0.91,0.86,1.00,6.80,6.80,6.81
144.87,5.83,-0.91,5.83,-0.91,0.91,0.86,0.98,6.74,6.74,6.74
146.32,5.77,-0.91,5.77,-0.91,0.91,0.85,0.97,6.68,6.68,6.67
147.78,5.71,-0.91,5.71,-0.91,0.91,0.85,0.95,6.62,6.62,6.61
149.26,5.65,-0.91,5.65,-0.90,0.90,0.85,0.94,6.56,6.56,6.56
150.75,5.60,-0.90,5.60,-0.90,0.90,0.85,0.92,6.50,6.50,6.50
152.26,5.55,-0.89,5.55,-0.89,0.89,0.85,0.91,6.44,6.44,6.45
153.78,5.51,-0.88,5.51,-0.88,0.88,0.84,0.89,6.39,6.39,6.39
155.32,5.46,-0.86,5.46,-0.86,0.87,0.84,0.88,6.33,6.33,6.33
156.88,5.42,-0.85,5.41,-0.85,0.86,0.84,0.86,6.27,6.27,6.27
158.44,5.36,-0.84,5.36,-0.84,0.84,0.84,0.85,6.21,6.21,6.21
160.03,5.31,-0.83,5.31,-0.83,0.83,0.83,0.83,6.14,6.14,6.15
161.63,5.26,-0.82,5.26,-0.82,0.81,0.83,0.82,6.08,6.08,6.08
163.24,5.22,-0.80,5.22,-0.80,0.80,0.83,0.81,6.01,6.02,6.02
164.88,5.17,-0.78,5.17,-0.78,0.79,0.82,0.79,5.96,5.96,5.95
166.53,5.12,-0.77,5.12,-0.77,0.77,0.82,0.78,5.90,5.90,5.89
168.19,5.07,-0.76,5.07,-0.76,0.76,0.81,0.77,5.83,5.83,5.83
169.87,5.02,-0.75,5.02,-0.75,0.75,0.81,0.76,5.77,5.77,5.77
171.57,4.96,-0.75,4.96,-0.75,0.75,0.81,0.75,5.71,5.71,5.71
173.29,4.91,-0.74,4.91,-0.74,0.74,0.80,0.74,5.65,5.65,5.65
175.02,4.85,-0.74,4.85,-0.74,0.74,0.80,0.73,5.59,5.59,5.59
176.77,4.80,-0.74,4.80,-0.74,0.73,0.79,0.72,5.53,5.53,5.53
178.54,4.74,-0.73,4.74,-0.73,0.73,0.79,0.71,5.47,5.47,5.47
180.32,4.69,-0.73,4.69,-0.73,0.72,0.78,0.70,5.41,5.41,5.41
182.13,4.63,-0.72,4.63,-0.72,0.72,0.78,0.69,5.35,5.35,5.35
183.95,4.56,-0.72,4.56,-0.72,0.71,0.77,0.69,5.28,5.28,5.28
185.79,4.50,-0.71,4.50,-0.71,0.71,0.76,0.68,5.21,5.21,5.21
187.65,4.44,-0.70,4.44,-0.70,0.71,0.76,0.67,5.15,5.15,5.15
189.52,4.38,-0.70,4.38,-0.70,0.71,0.75,0.67,5.09,5.09,5.08
191.42,4.32,-0.70,4.32,-0.70,0.71,0.75,0.66,5.03,5.03,5.02
193.33,4.26,-0.70,4.26,-0.70,0.71,0.74,0.66,4.97,4.97,4.96
195.27,4.20,-0.71,4.20,-0.71,0.71,0.74,0.65,4.91,4.91,4.91
197.22,4.14,-0.71,4.14,-0.71,0.71,0.73,0.65,4.84,4.84,4.85
199.19,4.07,-0.71,4.07,-0.71,0.71,0.72,0.65,4.78,4.78,4.78
201.18,4.01,-0.71,4.01,-0.71,0.70,0.72,0.64,4.71,4.71,4.72
203.19,3.95,-0.70,3.95,-0.70,0.70,0.71,0.64,4.65,4.65,4.65
205.23,3.89,-0.69,3.89,-0.69,0.70,0.70,0.64,4.59,4.59,4.59
207.28,3.84,-0.69,3.84,-0.69,0.69,0.70,0.64,4.53,4.53,4.53
209.35,3.78,-0.68,3.78,-0.68,0.68,0.69,0.64,4.46,4.46,4.46
211.44,3.72,-0.67,3.72,-0.67,0.67,0.68,0.63,4.40,4.40,4.40
213.56,3.67,-0.67,3.67,-0.67,0.67,0.68,0.63,4.33,4.33,4.33
215.69,3.61,-0.66,3.61,-0.66,0.66,0.67,0.63,4.27,4.27,4.27
217.85,3.55,-0.66,3.55,-0.66,0.66,0.66,0.63,4.20,4.20,4.20
220.03,3.49,-0.65,3.49,-0.65,0.65,0.66,0.63,4.14,4.14,4.14
222.23,3.43,-0.65,3.43,-0.65,0.65,0.65,0.63,4.07,4.07,4.07
224.45,3.36,-0.64,3.36,-0.64,0.64,0.64,0.63,4.01,4.01,4.01
226.70,3.30,-0.64,3.30,-0.64,0.64,0.64,0.62,3.94,3.94,3.94
228.96,3.24,-0.64,3.24,-0.64,0.63,0.63,0.62,3.88,3.88,3.88
231.25,3.18,-0.63,3.18,-0.63,0.63,0.62,0.62,3.81,3.81,3.81
233.57,3.12,-0.62,3.12,-0.62,0.63,0.62,0.62,3.75,3.75,3.75
235.90,3.06,-0.62,3.06,-0.62,0.62,0.61,0.61,3.69,3.69,3.68
238.26,3.00,-0.62,3.00,-0.62,0.62,0.60,0.61,3.63,3.63,3.62
240.64,2.94,-0.62,2.94,-0.62,0.62,0.60,0.61,3.56,3.56,3.56
243.05,2.88,-0.62,2.88,-0.62,0.62,0.59,0.60,3.50,3.50,3.50
245.48,2.82,-0.62,2.82,-0.62,0.62,0.58,0.60,3.44,3.44,3.44
247.93,2.76,-0.62,2.76,-0.62,0.62,0.57,0.59,3.38,3.38,3.38
250.41,2.71,-0.62,2.71,-0.62,0.62,0.57,0.59,3.32,3.32,3.32
252.92,2.65,-0.61,2.65,-0.62,0.61,0.56,0.58,3.26,3.26,3.27
255.45,2.60,-0.61,2.60,-0.61,0.61,0.55,0.57,3.21,3.21,3.21
258.00,2.54,-0.61,2.54,-0.61,0.60,0.55,0.57,3.15,3.15,3.15
260.58,2.49,-0.60,2.49,-0.60,0.60,0.54,0.56,3.09,3.09,3.09
263.19,2.44,-0.59,2.44,-0.59,0.59,0.53,0.55,3.03,3.03,3.03
265.82,2.38,-0.58,2.38,-0.58,0.58,0.53,0.54,2.97,2.97,2.97
268.48,2.33,-0.57,2.33,-0.57,0.58,0.52,0.53,2.91,2.91,2.91
271.16,2.28,-0.56,2.28,-0.56,0.57,0.51,0.52,2.85,2.85,2.85
273.87,2.23,-0.56,2.23,-0.56,0.56,0.50,0.51,2.79,2.79,2.79
276.61,2.18,-0.55,2.18,-0.55,0.55,0.50,0.50,2.74,2.74,2.74
279.38,2.13,-0.55,2.13,-0.55,0.54,0.49,0.49,2.68,2.68,2.68
282.17,2.08,-0.54,2.08,-0.54,0.54,0.48,0.48,2.62,2.62,2.62
284.99,2.03,-0.53,2.03,-0.53,0.53,0.48,0.47,2.56,2.56,2.56
287.84,1.98,-0.52,1.98,-0.52,0.52,0.47,0.46,2.50,2.50,2.50
290.72,1.92,-0.51,1.92,-0.51,0.52,0.46,0.44,2.44,2.44,2.43
293.63,1.87,-0.51,1.87,-0.51,0.51,0.46,0.43,2.38,2.38,2.38
296.57,1.81,-0.51,1.81,-0.51,0.51,0.45,0.42,2.32,2.32,2.32
299.53,1.76,-0.51,1.76,-0.51,0.51,0.45,0.41,2.27,2.27,2.27
302.53,1.70,-0.51,1.70,-0.51,0.51,0.44,0.39,2.21,2.21,2.21
305.55,1.65,-0.51,1.65,-0.51,0.51,0.43,0.38,2.15,2.15,2.16
308.61,1.59,-0.51,1.59,-0.51,0.51,0.43,0.37,2.10,2.10,2.10
311.69,1.54,-0.50,1.54,-0.50,0.50,0.42,0.36,2.04,2.04,2.04
314.81,1.49,-0.50,1.49,-0.50,0.50,0.41,0.34,1.98,1.98,1.99
317.96,1.44,-0.49,1.44,-0.49,0.49,0.41,0.33,1.93,1.93,1.93
321.14,1.39,-0.48,1.39,-0.48,0.48,0.40,0.32,1.87,1.87,1.87
324.35,1.35,-0.47,1.35,-0.47,0.47,0.40,0.31,1.81,1.81,1.82
327.59,1.30,-0.46,1.30,-0.46,0.46,0.39,0.29,1.76,1.76,1.76
330.87,1.26,-0.44,1.26,-0.44,0.44,0.38,0.28,1.70,1.70,1.70
334.18,1.22,-0.43,1.22,-0.43,0.43,0.38,0.27,1.65,1.65,1.64
337.52,1.17,-0.42,1.17,-0.42,0.42,0.37,0.26,1.59,1.59,1.59
340.90,1.13,-0.40,1.13,-0.40,0.41,0.37,0.25,1.53,1.53,1.53
344.30,1.08,-0.39,1.08,-0.39,0.39,0.36,0.24,1.48,1.48,1.48
347.75,1.04,-0.38,1.04,-0.38,0.39,0.36,0.22,1.42,1.42,1.42
351.23,0.99,-0.38,0.99,-0.38,0.38,0.35,0.21,1.37,1.37,1.37
354.74,0.94,-0.37,0.94,-0.37,0.37,0.35,0.20,1.31,1.31,1.31
358.28,0.89,-0.37,0.89,-0.37,0.37,0.34,0.19,1.26,1.26,1.26
361.87,0.85,-0.36,0.85,-0.36,0.36,0.33,0.18,1.21,1.21,1.21
365.49,0.80,-0.36,0.80,-0.36,0.36,0.33,0.17,1.16,1.16,1.16
369.14,0.75,-0.35,0.75,-0.35,0.35,0.32,0.16,1.10,1.10,1.10
372.83,0.71,-0.35,0.71,-0.35,0.35,0.32,0.15,1.05,1.05,1.05
376.56,0.66,-0.34,0.66,-0.34,0.34,0.31,0.14,1.00,1.00,1.00
380.33,0.61,-0.34,0.61,-0.34,0.34,0.31,0.13,0.95,0.95,0.95
384.13,0.57,-0.33,0.57,-0.33,0.33,0.30,0.12,0.90,0.90,0.90
387.97,0.52,-0.33,0.52,-0.33,0.33,0.30,0.11,0.85,0.85,0.85
391.85,0.48,-0.32,0.48,-0.32,0.32,0.30,0.10,0.80,0.80,0.80
395.77,0.44,-0.32,0.44,-0.32,0.32,0.29,0.09,0.75,0.75,0.75
399.73,0.39,-0.31,0.39,-0.31,0.31,0.29,0.08,0.70,0.70,0.70
403.72,0.35,-0.31,0.35,-0.31,0.31,0.28,0.07,0.65,0.65,0.65
407.76,0.31,-0.30,0.31,-0.30,0.30,0.28,0.06,0.61,0.61,0.61
411.84,0.26,-0.30,0.26,-0.30,0.30,0.27,0.05,0.56,0.56,0.56
415.96,0.22,-0.29,0.22,-0.29,0.29,0.27,0.05,0.51,0.51,0.51
420.12,0.18,-0.29,0.18,-0.29,0.29,0.26,0.04,0.47,0.47,0.47
424.32,0.14,-0.28,0.14,-0.28,0.28,0.26,0.03,0.42,0.42,0.42
428.56,0.10,-0.28,0.10,-0.28,0.28,0.26,0.02,0.38,0.38,0.38
432.85,0.06,-0.27,0.06,-0.27,0.27,0.25,0.02,0.33,0.33,0.33
437.18,0.02,-0.27,0.02,-0.27,0.27,0.25,0.01,0.28,0.28,0.29
441.55,-0.02,-0.26,-0.02,-0.26,0.26,0.24,0.00,0.24,0.24,0.24
445.96,-0.06,-0.26,-0.06,-0.26,0.26,0.24,-0.01,0.20,0.20,0.20
450.42,-0.10,-0.25,-0.10,-0.25,0.25,0.24,-0.01,0.15,0.16,0.15
454.93,-0.14,-0.25,-0.14,-0.25,0.25,0.23,-0.02,0.11,0.11,0.11
459.48,-0.17,-0.24,-0.17,-0.24,0.24,0.23,-0.02,0.07,0.07,0.07
464.07,-0.21,-0.24,-0.21,-0.24,0.24,0.23,-0.03,0.03,0.03,0.03
468.71,-0.24,-0.24,-0.24,-0.24,0.24,0.22,-0.03,-0.01,-0.01,-0.01
473.40,-0.28,-0.23,-0.28,-0.23,0.23,0.22,-0.04,-0.05,-0.05,-0.05
478.13,-0.31,-0.23,-0.31,-0.23,0.23,0.22,-0.04,-0.09,-0.09,-0.09
482.91,-0.35,-0.22,-0.35,-0.22,0.22,0.21,-0.04,-0.12,-0.12,-0.12
487.74,-0.38,-0.22,-0.38,-0.22,0.22,0.21,-0.04,-0.16,-0.16,-0.16
492.62,-0.41,-0.21,-0.41,-0.21,0.21,0.21,-0.05,-0.20,-0.20,-0.20
497.55,-0.44,-0.21,-0.44,-0.21,0.21,0.20,-0.05,-0.24,-0.24,-0.24
502.52,-0.47,-0.20,-0.47,-0.20,0.20,0.20,-0.05,-0.27,-0.27,-0.27
507.55,-0.50,-0.20,-0.50,-0.20,0.20,0.20,-0.05,-0.31,-0.31,-0.31
512.62,-0.53,-0.19,-0.53,-0.19,0.19,0.19,-0.05,-0.34,-0.34,-0.34
