frequency,raw,error,smoothed,error_smoothed,equalization,parametric_eq,fixed_band_eq,equalized_raw,equalized_smoothed,target
20.00,-3.86,-7.03,-3.85,-7.02,6.00,5.95,2.41,2.14,2.15,3.17
20.20,-3.83,-7.01,-3.84,-7.02,6.00,5.99,2.48,2.17,2.16,3.18
20.40,-3.80,-7.00,-3.81,-7.00,6.00,6.04,2.55,2.20,2.19,3.20
20.61,-3.77,-6.98,-3.77,-6.98,6.00,6.04,2.63,2.23,2.23,3.21
20.81,-3.72,-6.95,-3.72,-6.95,6.00,6.04,2.70,2.28,2.28,3.23
21.02,-3.66,-6.91,-3.66,-6.91,6.00,6.03,2.78,2.34,2.34,3.25
21.23,-3.59,-6.85,-3.59,-6.85,6.00,6.01,2.86,2.41,2.41,3.27
21.44,-3.51,-6.79,-3.51,-6.79,6.00,5.98,2.94,2.49,2.49,3.28
21.66,-3.44,-6.72,-3.44,-6.72,6.00,5.96,3.03,2.56,2.56,3.29
21.87,-3.36,-6.66,-3.37,-6.66,6.00,5.95,3.11,2.64,2.63,3.30
22.09,-3.30,-6.60,-3.30,-6.60,6.00,5.94,3.20,2.70,2.70,3.30
22.31,-3.24,-6.55,-3.24,-6.55,6.00,5.93,3.29,2.76,2.76,3.31
22.54,-3.19,-6.51,-3.19,-6.51,6.00,5.93,3.39,2.81,2.81,3.32
22.76,-3.14,-6.47,-3.14,-6.47,6.00,5.93,3.49,2.86,2.86,3.33
22.99,-3.10,-6.44,-3.10,-6.44,6.00,5.94,3.58,2.90,2.90,3.34
23.22,-3.05,-6.40,-3.05,-6.40,6.00,5.95,3.69,2.95,2.96,3.35
23.45,-2.99,-6.35,-2.99,-6.35,6.01,5.96,3.79,3.01,3.01,3.36
23.69,-2.93,-6.30,-2.93,-6.30,6.01,5.96,3.90,3.08,3.08,3.36
23.92,-2.86,-6.23,-2.86,-6.23,6.01,5.97,4.00,3.14,3.14,3.37
24.16,-2.79,-6.16,-2.79,-6.16,6.00,5.97,4.11,3.21,3.21,3.37
24.40,-2.72,-6.08,-2.72,-6.08,5.98,5.97,4.22,3.27,3.27,3.37
24.65,-2.64,-6.01,-2.64,-6.01,5.96,5.96,4.34,3.32,3.32,3.37
24.89,-2.57,-5.94,-2.57,-5.94,5.93,5.95,4.45,3.36,3.36,3.37
25.14,-2.50,-5.88,-2.50,-5.88,5.89,5.92,4.57,3.39,3.39,3.38
25.39,-2.44,-5.83,-2.44,-5.83,5.85,5.90,4.69,3.41,3.41,3.39
25.65,-2.39,-5.79,-2.39,-5.79,5.81,5.87,4.80,3.42,3.42,3.40
25.91,-2.34,-5.75,-2.34,-5.75,5.76,5.84,4.92,3.43,3.43,3.42
26.16,-2.29,-5.72,-2.29,-5.72,5.72,5.80,5.04,3.43,3.43,3.43
26.43,-2.25,-5.69,-2.25,-5.69,5.68,5.76,5.16,3.43,3.43,3.44
26.69,-2.21,-5.65,-2.21,-5.65,5.65,5.71,5.27,3.44,3.44,3.44
26.96,-2.17,-5.62,-2.17,-5.62,5.61,5.66,5.39,3.44,3.44,3.45
27.23,-2.13,-5.58,-2.13,-5.58,5.58,5.62,5.50,3.45,3.45,3.45
27.50,-2.09,-5.54,-2.09,-5.54,5.55,5.57,5.61,3.46,3.46,3.45
27.77,-2.05,-5.51,-2.05,-5.51,5.51,5.52,5.71,3.46,3.46,3.46
28.05,-2.02,-5.48,-2.02,-5.48,5.49,5.47,5.81,3.46,3.46,3.46
28.33,-1.99,-5.45,-1.99,-5.45,5.46,5.42,5.91,3.47,3.47,3.46
28.62,-1.96,-5.43,-1.96,-5.43,5.43,5.38,6.00,3.47,3.47,3.47
28.90,-1.93,-5.41,-1.93,-5.41,5.41,5.33,6.09,3.48,3.48,3.48
29.19,-1.90,-5.38,-1.90,-5.38,5.38,5.29,6.17,3.48,3.48,3.48
29.48,-1.87,-5.36,-1.87,-5.36,5.36,5.25,6.23,3.49,3.49,3.49
29.78,-1.84,-5.33,-1.84,-5.33,5.33,5.21,6.30,3.50,3.49,3.50
30.08,-1.80,-5.31,-1.80,-5.31,5.31,5.17,6.35,3.50,3.50,3.50
30.38,-1.77,-5.28,-1.77,-5.28,5.28,5.13,6.40,3.51,3.51,3.51
30.68,-1.72,-5.25,-1.72,-5.25,5.24,5.10,6.43,3.52,3.52,3.52
30.99,-1.68,-5.21,-1.68,-5.21,5.20,5.07,6.46,3.53,3.53,3.53
31.30,-1.63,-5.17,-1.63,-5.17,5.16,5.03,6.47,3.53,3.53,3.54
31.61,-1.58,-5.12,-1.58,-5.12,5.12,5.00,6.48,3.54,3.54,3.54
31.93,-1.53,-5.08,-1.53,-5.08,5.08,4.98,6.48,3.55,3.55,3.55
32.24,-1.49,-5.03,-1.49,-5.03,5.04,4.95,6.47,3.55,3.55,3.55
32.57,-1.44,-4.99,-1.44,-4.99,5.00,4.92,6.44,3.55,3.55,3.55
32.89,-1.40,-4.95,-1.40,-4.95,4.96,4.89,6.42,3.56,3.56,3.55
33.22,-1.36,-4.92,-1.36,-4.92,4.92,4.87,6.37,3.56,3.56,3.56
33.55,-1.32,-4.89,-1.32,-4.89,4.88,4.85,6.33,3.56,3.56,3.56
33.89,-1.29,-4.86,-1.29,-4.86,4.85,4.82,6.27,3.57,3.57,3.57
34.23,-1.25,-4.83,-1.25,-4.83,4.82,4.80,6.22,3.57,3.57,3.58
34.57,-1.22,-4.80,-1.22,-4.80,4.80,4.78,6.15,3.58,3.58,3.58
34.92,-1.19,-4.77,-1.19,-4.77,4.77,4.76,6.08,3.58,3.58,3.58
35.27,-1.16,-4.74,-1.16,-4.74,4.75,4.74,6.00,3.58,3.58,3.58
35.62,-1.14,-4.72,-1.14,-4.73,4.73,4.72,5.92,3.59,3.59,3.58
35.97,-1.12,-4.71,-1.12,-4.71,4.71,4.70,5.84,3.59,3.59,3.58
36.33,-1.11,-4.70,-1.11,-4.70,4.70,4.68,5.76,3.59,3.59,3.59
36.70,-1.09,-4.69,-1.09,-4.69,4.69,4.66,5.67,3.60,3.60,3.60
37.06,-1.07,-4.68,-1.07,-4.68,4.68,4.65,5.59,3.61,3.61,3.61
37.43,-1.05,-4.67,-1.05,-4.67,4.67,4.63,5.50,3.62,3.62,3.62
37.81,-1.03,-4.66,-1.03,-4.66,4.66,4.61,5.41,3.63,3.63,3.63
38.19,-1.01,-4.65,-1.01,-4.65,4.65,4.59,5.33,3.64,3.64,3.64
38.57,-0.99,-4.64,-0.99,-4.64,4.63,4.58,5.24,3.64,3.64,3.65
38.95,-0.97,-4.62,-0.97,-4.62,4.61,4.56,5.16,3.64,3.64,3.65
39.34,-0.94,-4.59,-0.94,-4.59,4.58,4.54,5.07,3.64,3.64,3.65
39.74,-0.91,-4.56,-0.90,-4.56,4.55,4.53,4.99,3.65,3.65,3.65
40.14,-0.87,-4.52,-0.87,-4.52,4.52,4.51,4.91,3.66,3.66,3.65
40.54,-0.83,-4.48,-0.83,-4.48,4.49,4.49,4.84,3.66,3.66,3.66
40.94,-0.79,-4.45,-0.79,-4.45,4.46,4.48,4.76,3.67,3.67,3.66
41.35,-0.75,-4.42,-0.75,-4.42,4.42,4.46,4.69,3.67,3.67,3.66
41.76,-0.72,-4.39,-0.72,-4.39,4.39,4.44,4.62,3.67,3.67,3.67
42.18,-0.68,-4.37,-0.68,-4.37,4.36,4.43,4.56,3.68,3.68,3.69
42.60,-0.64,-4.34,-0.64,-4.34,4.33,4.41,4.50,3.69,3.69,3.70
43.03,-0.61,-4.31,-0.61,-4.31,4.30,4.39,4.44,3.70,3.70,3.70
43.46,-0.58,-4.27,-0.58,-4.28,4.28,4.37,4.38,3.70,3.70,3.70
43.90,-0.55,-4.25,-0.55,-4.25,4.26,4.36,4.33,3.70,3.70,3.69
44.33,-0.54,-4.23,-0.54,-4.23,4.24,4.34,4.28,3.70,3.70,3.69
44.78,-0.52,-4.21,-0.52,-4.21,4.22,4.32,4.24,3.70,3.70,3.69
45.23,-0.50,-4.20,-0.50,-4.20,4.20,4.30,4.19,3.69,3.69,3.70
45.68,-0.49,-4.19,-0.49,-4.19,4.18,4.28,4.15,3.69,3.70,3.70
46.13,-0.47,-4.18,-0.47,-4.17,4.17,4.26,4.12,3.70,3.70,3.71
46.60,-0.45,-4.16,-0.45,-4.16,4.15,4.23,4.08,3.71,3.71,3.71
47.06,-0.43,-4.14,-0.43,-4.14,4.14,4.21,4.05,3.71,3.72,3.71
47.53,-0.41,-4.12,-0.41,-4.12,4.14,4.18,4.03,3.72,3.72,3.71
48.01,-0.40,-4.11,-0.40,-4.12,4.13,4.16,4.00,3.73,3.73,3.71
48.49,-0.40,-4.12,-0.40,-4.12,4.13,4.13,3.98,3.73,3.73,3.72
48.97,-0.39,-4.12,-0.39,-4.12,4.12,4.10,3.96,3.73,3.73,3.73
49.46,-0.39,-4.13,-0.39,-4.13,4.12,4.06,3.95,3.73,3.73,3.74
49.96,-0.38,-4.13,-0.38,-4.12,4.11,4.03,3.93,3.73,3.73,3.75
50.46,-0.36,-4.11,-0.36,-4.11,4.09,3.99,3.92,3.73,3.73,3.75
50.96,-0.33,-4.08,-0.33,-4.08,4.07,3.95,3.91,3.74,3.74,3.75
51.47,-0.29,-4.05,-0.29,-4.04,4.04,3.91,3.91,3.75,3.75,3.75
51.99,-0.25,-4.00,-0.25,-4.00,4.01,3.86,3.90,3.76,3.76,3.75
52.51,-0.20,-3.96,-0.20,-3.97,3.97,3.82,3.90,3.77,3.77,3.76
53.03,-0.15,-3.93,-0.15,-3.93,3.93,3.79,3.89,3.78,3.78,3.78
53.56,-0.10,-3.90,-0.10,-3.89,3.90,3.76,3.89,3.80,3.80,3.80
54.10,-0.06,-3.86,-0.07,-3.86,3.88,3.74,3.89,3.82,3.81,3.80
54.64,-0.05,-3.83,-0.05,-3.84,3.86,3.73,3.89,3.82,3.81,3.79
55.18,-0.05,-3.83,-0.05,-3.84,3.85,3.73,3.89,3.80,3.80,3.78
55.74,-0.06,-3.85,-0.06,-3.85,3.84,3.74,3.89,3.78,3.78,3.79
56.29,-0.06,-3.86,-0.06,-3.85,3.83,3.75,3.89,3.77,3.78,3.80
56.86,-0.05,-3.85,-0.05,-3.85,3.83,3.76,3.89,3.78,3.78,3.81
57.42,-0.03,-3.83,-0.03,-3.83,3.82,3.78,3.89,3.80,3.80,3.81
58.00,-0.01,-3.81,-0.01,-3.81,3.82,3.79,3.89,3.81,3.81,3.80
58.58,0.01,-3.80,0.01,-3.80,3.80,3.80,3.88,3.81,3.81,3.80
59.16,0.02,-3.79,0.02,-3.79,3.79,3.81,3.88,3.81,3.81,3.81
59.76,0.03,-3.79,0.02,-3.78,3.78,3.81,3.87,3.81,3.81,3.82
60.35,0.03,-3.78,0.03,-3.77,3.78,3.82,3.86,3.81,3.81,3.80
60.96,0.03,-3.75,0.03,-3.76,3.77,3.82,3.85,3.80,3.80,3.78
61.57,0.03,-3.74,0.03,-3.76,3.77,3.82,3.84,3.80,3.80,3.77
62.18,0.03,-3.78,0.03,-3.77,3.77,3.82,3.83,3.80,3.80,3.81
62.80,0.04,-3.80,0.04,-3.78,3.76,3.81,3.81,3.80,3.81,3.84
63.43,0.06,-3.78,0.06,-3.78,3.76,3.81,3.80,3.81,3.81,3.84
64.07,0.07,-3.75,0.07,-3.76,3.75,3.80,3.78,3.82,3.82,3.82
64.71,0.09,-3.73,0.09,-3.73,3.74,3.80,3.75,3.83,3.83,3.82
65.35,0.10,-3.72,0.10,-3.72,3.73,3.79,3.73,3.83,3.83,3.82
66.01,0.11,-3.70,0.11,-3.70,3.71,3.78,3.70,3.82,3.82,3.81
66.67,0.11,-3.69,0.11,-3.69,3.70,3.77,3.68,3.81,3.81,3.81
67.33,0.12,-3.68,0.12,-3.68,3.69,3.76,3.65,3.80,3.80,3.80
68.01,0.12,-3.68,0.12,-3.68,3.68,3.75,3.62,3.80,3.80,3.80
68.69,0.13,-3.67,0.13,-3.67,3.66,3.74,3.58,3.80,3.80,3.80
69.37,0.14,-3.66,0.15,-3.66,3.65,3.73,3.55,3.80,3.80,3.80
70.07,0.16,-3.65,0.16,-3.65,3.64,3.72,3.52,3.80,3.80,3.81
70.77,0.18,-3.63,0.18,-3.63,3.63,3.71,3.48,3.80,3.80,3.81
71.48,0.19,-3.62,0.19,-3.62,3.62,3.70,3.45,3.81,3.81,3.81
72.19,0.20,-3.60,0.20,-3.60,3.60,3.69,3.41,3.81,3.80,3.80
72.91,0.21,-3.58,0.21,-3.58,3.59,3.68,3.38,3.80,3.80,3.79
73.64,0.22,-3.57,0.22,-3.58,3.58,3.66,3.35,3.80,3.80,3.79
74.38,0.22,-3.57,0.22,-3.57,3.57,3.65,3.31,3.79,3.79,3.80
75.12,0.23,-3.58,0.23,-3.57,3.57,3.64,3.28,3.79,3.79,3.80
75.87,0.23,-3.56,0.23,-3.56,3.56,3.63,3.25,3.79,3.79,3.79
76.63,0.24,-3.55,0.24,-3.56,3.55,3.62,3.22,3.79,3.79,3.79
77.40,0.25,-3.55,0.25,-3.55,3.55,3.61,3.19,3.80,3.80,3.80
78.17,0.26,-3.54,0.26,-3.54,3.55,3.59,3.16,3.80,3.80,3.80
78.95,0.26,-3.53,0.26,-3.54,3.54,3.58,3.13,3.80,3.80,3.80
79.74,0.27,-3.54,0.27,-3.53,3.53,3.57,3.11,3.80,3.80,3.80
80.54,0.28,-3.53,0.28,-3.53,3.53,3.56,3.08,3.80,3.80,3.81
81.35,0.28,-3.52,0.28,-3.52,3.52,3.55,3.06,3.80,3.80,3.81
82.16,0.29,-3.51,0.29,-3.51,3.51,3.54,3.04,3.80,3.80,3.80
82.98,0.30,-3.50,0.30,-3.50,3.50,3.52,3.02,3.80,3.80,3.80
83.81,0.31,-3.49,0.31,-3.49,3.49,3.51,3.01,3.81,3.81,3.80
84.65,0.32,-3.48,0.32,-3.48,3.49,3.50,3.00,3.81,3.81,3.80
85.50,0.32,-3.47,0.32,-3.47,3.48,3.49,2.98,3.80,3.80,3.80
86.35,0.32,-3.47,0.32,-3.47,3.47,3.48,2.97,3.80,3.80,3.79
87.22,0.32,-3.47,0.32,-3.47,3.47,3.47,2.97,3.79,3.79,3.80
88.09,0.32,-3.47,0.32,-3.47,3.47,3.46,2.96,3.79,3.79,3.79
88.97,0.32,-3.47,0.32,-3.47,3.46,3.44,2.96,3.78,3.78,3.78
89.86,0.32,-3.46,0.32,-3.46,3.46,3.43,2.96,3.78,3.78,3.78
90.76,0.32,-3.46,0.32,-3.46,3.46,3.42,2.96,3.78,3.78,3.78
91.66,0.33,-3.45,0.32,-3.45,3.45,3.41,2.97,3.78,3.78,3.78
92.58,0.33,-3.44,0.33,-3.44,3.44,3.40,2.97,3.77,3.77,3.77
93.51,0.33,-3.44,0.33,-3.44,3.44,3.39,2.98,3.76,3.76,3.77
94.44,0.33,-3.43,0.33,-3.43,3.42,3.38,2.99,3.76,3.76,3.76
95.39,0.34,-3.42,0.34,-3.42,3.41,3.37,3.00,3.75,3.76,3.76
96.34,0.35,-3.41,0.35,-3.41,3.41,3.36,3.02,3.76,3.76,3.76
97.30,0.37,-3.39,0.37,-3.39,3.40,3.35,3.03,3.76,3.76,3.76
98.28,0.38,-3.38,0.37,-3.38,3.39,3.34,3.05,3.77,3.76,3.75
99.26,0.38,-3.37,0.38,-3.37,3.38,3.33,3.07,3.76,3.76,3.75
100.25,0.37,-3.37,0.37,-3.37,3.37,3.32,3.09,3.74,3.74,3.75
101.25,0.36,-3.37,0.37,-3.37,3.36,3.31,3.11,3.73,3.73,3.74
102.27,0.37,-3.37,0.37,-3.37,3.36,3.30,3.13,3.72,3.72,3.73
103.29,0.37,-3.35,0.37,-3.35,3.35,3.29,3.16,3.72,3.72,3.73
104.32,0.39,-3.34,0.38,-3.34,3.34,3.28,3.18,3.73,3.73,3.72
105.37,0.39,-3.33,0.39,-3.33,3.33,3.28,3.21,3.73,3.73,3.72
106.42,0.40,-3.32,0.40,-3.32,3.32,3.27,3.23,3.72,3.72,3.72
107.48,0.40,-3.31,0.40,-3.31,3.32,3.26,3.26,3.71,3.71,3.71
108.56,0.40,-3.31,0.40,-3.31,3.31,3.25,3.28,3.71,3.71,3.71
109.64,0.40,-3.30,0.40,-3.30,3.30,3.24,3.31,3.70,3.70,3.70
110.74,0.40,-3.29,0.40,-3.29,3.29,3.23,3.33,3.70,3.70,3.70
111.85,0.40,-3.29,0.40,-3.29,3.29,3.23,3.36,3.69,3.69,3.69
112.97,0.40,-3.28,0.40,-3.28,3.28,3.22,3.38,3.69,3.69,3.69
114.10,0.40,-3.27,0.41,-3.27,3.27,3.21,3.40,3.68,3.68,3.68
115.24,0.41,-3.27,0.41,-3.27,3.27,3.20,3.42,3.67,3.67,3.67
116.39,0.41,-3.26,0.41,-3.26,3.26,3.20,3.44,3.67,3.67,3.67
117.55,0.41,-3.25,0.41,-3.25,3.25,3.19,3.46,3.66,3.66,3.66
118.73,0.41,-3.24,0.41,-3.25,3.25,3.18,3.47,3.66,3.66,3.66
119.92,0.41,-3.24,0.41,-3.24,3.24,3.17,3.48,3.65,3.66,3.65
121.12,0.41,-3.23,0.41,-3.23,3.24,3.17,3.49,3.65,3.65,3.65
122.33,0.41,-3.23,0.41,-3.23,3.23,3.16,3.49,3.64,3.64,3.64
123.55,0.41,-3.22,0.41,-3.23,3.23,3.16,3.50,3.63,3.63,3.63
124.79,0.40,-3.22,0.40,-3.22,3.22,3.15,3.49,3.63,3.63,3.63
126.03,0.40,-3.22,0.40,-3.22,3.22,3.14,3.49,3.62,3.62,3.62
127.29,0.40,-3.21,0.40,-3.21,3.21,3.14,3.49,3.61,3.61,3.61
128.57,0.40,-3.20,0.40,-3.20,3.20,3.13,3.48,3.60,3.60,3.61
129.85,0.41,-3.19,0.41,-3.19,3.19,3.13,3.46,3.60,3.60,3.60
131.15,0.41,-3.18,0.41,-3.18,3.18,3.12,3.45,3.59,3.59,3.59
132.46,0.42,-3.16,0.42,-3.16,3.16,3.11,3.43,3.58,3.58,3.58
133.79,0.42,-3.15,0.42,-3.15,3.15,3.11,3.41,3.58,3.58,3.57
135.12,0.43,-3.14,0.43,-3.14,3.14,3.10,3.39,3.57,3.57,3.57
136.48,0.43,-3.13,0.43,-3.13,3.13,3.10,3.37,3.56,3.56,3.56
137.84,0.43,-3.12,0.43,-3.12,3.13,3.09,3.34,3.56,3.56,3.55
139.22,0.42,-3.12,0.42,-3.12,3.12,3.09,3.31,3.54,3.54,3.54
140.61,0.41,-3.12,0.41,-3.12,3.12,3.09,3.28,3.53,3.53,3.53
142.02,0.40,-3.12,0.40,-3.12,3.12,3.08,3.26,3.52,3.52,3.52
143.44,0.40,-3.12,0.40,-3.12,3.11,3.08,3.23,3.51,3.51,3.51
144.87,0.39,-3.12,0.39,-3.11,3.11,3.07,3.19,3.50,3.50,3.51
146.32,0.39,-3.11,0.39,-3.11,3.10,3.07,3.16,3.49,3.49,3.50
147.78,0.39,-3.10,0.39,-3.10,3.09,3.06,3.13,3.48,3.48,3.49
149.26,0.39,-3.08,0.39,-3.08,3.08,3.06,3.10,3.47,3.47,3.48
150.75,0.40,-3.07,0.40,-3.07,3.06,3.06,3.07,3.46,3.46,3.46
152.26,0.40,-3.05,0.40,-3.05,3.05,3.05,3.04,3.45,3.45,3.45
153.78,0.41,-3.03,0.41,-3.03,3.04,3.05,3.01,3.45,3.45,3.44
155.32,0.41,-3.02,0.41,-3.02,3.03,3.05,2.99,3.44,3.44,3.43
156.88,0.40,-3.02,0.40,-3.02,3.03,3.04,2.96,3.43,3.43,3.42
158.44,0.39,-3.02,0.39,-3.02,3.03,3.04,2.94,3.42,3.42,3.41
160.03,0.37,-3.03,0.37,-3.03,3.03,3.04,2.91,3.40,3.40,3.39
161.63,0.34,-3.04,0.34,-3.04,3.04,3.03,2.89,3.38,3.38,3.38
163.24,0.32,-3.05,0.32,-3.05,3.04,3.03,2.87,3.36,3.36,3.37
164.88,0.30,-3.06,0.30,-3.05,3.04,3.03,2.85,3.34,3.34,3.36
166.53,0.30,-3.05,0.30,-3.05,3.04,3.02,2.84,3.34,3.33,3.34
168.19,0.29,-3.04,0.29,-3.04,3.03,3.02,2.82,3.33,3.33,3.33
169.87,0.29,-3.02,0.29,-3.02,3.02,3.02,2.81,3.32,3.32,3.32
171.57,0.29,-3.01,0.29,-3.01,3.01,3.02,2.80,3.30,3.30,3.30
173.29,0.29,-2.99,0.29,-2.99,2.99,3.01,2.79,3.29,3.29,3.28
175.02,0.29,-2.98,0.29,-2.97,2.98,3.01,2.78,3.27,3.27,3.27
176.77,0.29,-2.96,0.29,-2.96,2.96,3.01,2.78,3.25,3.25,3.25
178.54,0.29,-2.94,0.29,-2.94,2.95,3.00,2.78,3.23,3.23,3.23
180.32,0.29,-2.93,0.29,-2.93,2.93,3.00,2.78,3.22,3.22,3.22
182.13,0.28,-2.92,0.28,-2.92,2.91,3.00,2.78,3.20,3.20,3.20
183.95,0.28,-2.90,0.28,-2.90,2.90,3.00,2.78,3.18,3.18,3.18
185.79,0.27,-2.89,0.27,-2.88,2.88,2.99,2.79,3.16,3.16,3.16
187.65,0.27,-2.87,0.27,-2.87,2.87,2.99,2.80,3.13,3.13,3.14
189.52,0.26,-2.85,0.26,-2.85,2.85,2.99,2.81,3.11,3.11,3.11
191.42,0.25,-2.84,0.25,-2.84,2.83,2.99,2.82,3.08,3.08,3.09
193.33,0.24,-2.82,0.24,-2.82,2.82,2.98,2.83,3.06,3.06,3.07
195.27,0.23,-2.81,0.23,-2.81,2.81,2.98,2.85,3.04,3.04,3.04
197.22,0.22,-2.80,0.22,-2.80,2.80,2.98,2.87,3.02,3.02,3.02
199.19,0.21,-2.80,0.21,-2.80,2.81,2.98,2.88,3.02,3.02,3.01
201.18,0.20,-2.80,0.20,-2.80,2.82,2.97,2.90,3.02,3.02,3.00
203.19,0.19,-2.82,0.19,-2.83,2.85,2.97,2.92,3.04,3.04,3.01
205.23,0.18,-2.87,0.18,-2.87,2.88,2.97,2.95,3.07,3.07,3.05
207.28,0.18,-2.92,0.18,-2.92,2.92,2.96,2.97,3.10,3.10,3.09
209.35,0.17,-2.97,0.17,-2.97,2.96,2.96,2.99,3.13,3.13,3.14
211.44,0.16,-3.02,0.16,-3.02,3.00,2.96,3.02,3.16,3.16,3.18
213.56,0.15,-3.06,0.15,-3.06,3.04,2.96,3.04,3.19,3.19,3.21
215.69,0.14,-3.08,0.14,-3.08,3.06,2.95,3.06,3.20,3.20,3.22
217.85,0.13,-3.09,0.13,-3.09,3.08,2.95,3.09,3.21,3.21,3.22
220.03,0.12,-3.09,0.12,-3.09,3.09,2.95,3.11,3.20,3.20,3.21
222.23,0.11,-3.08,0.11,-3.08,3.08,2.94,3.13,3.19,3.19,3.18
224.45,0.09,-3.07,0.09,-3.07,3.08,2.94,3.15,3.17,3.17,3.16
226.70,0.08,-3.06,0.08,-3.06,3.06,2.94,3.17,3.15,3.15,3.14
228.96,0.07,-3.05,0.07,-3.05,3.05,2.93,3.19,3.13,3.12,3.12
231.25,0.06,-3.04,0.06,-3.04,3.04,2.93,3.21,3.10,3.10,3.10
233.57,0.05,-3.03,0.05,-3.03,3.03,2.93,3.22,3.08,3.08,3.08
235.90,0.04,-3.01,0.04,-3.01,3.02,2.92,3.23,3.06,3.06,3.06
238.26,0.03,-3.00,0.03,-3.00,3.00,2.92,3.24,3.04,3.04,3.03
240.64,0.02,-2.99,0.02,-2.99,2.99,2.91,3.25,3.01,3.01,3.01
243.05,0.01,-2.99,0.01,-2.98,2.98,2.91,3.25,2.99,2.99,3.00
245.48,-0.00,-2.97,-0.00,-2.97,2.97,2.90,3.25,2.97,2.97,2.97
247.93,-0.02,-2.96,-0.02,-2.96,2.96,2.90,3.25,2.95,2.95,2.95
250.41,-0.03,-2.95,-0.03,-2.95,2.95,2.90,3.24,2.92,2.92,2.92
252.92,-0.04,-2.94,-0.04,-2.94,2.94,2.89,3.23,2.90,2.90,2.90
255.45,-0.06,-2.93,-0.06,-2.93,2.93,2.89,3.22,2.88,2.88,2.88
258.00,-0.07,-2.92,-0.07,-2.92,2.92,2.88,3.21,2.85,2.85,2.85
260.58,-0.08,-2.91,-0.08,-2.91,2.91,2.88,3.19,2.83,2.83,2.83
263.19,-0.10,-2.90,-0.10,-2.90,2.90,2.87,3.17,2.80,2.81,2.81
265.82,-0.11,-2.89,-0.11,-2.89,2.89,2.86,3.14,2.78,2.78,2.78
268.48,-0.12,-2.88,-0.12,-2.88,2.88,2.86,3.12,2.76,2.76,2.76
271.16,-0.13,-2.87,-0.13,-2.87,2.87,2.85,3.09,2.74,2.74,2.74
273.87,-0.14,-2.85,-0.14,-2.85,2.85,2.85,3.06,2.71,2.71,2.71
276.61,-0.15,-2.84,-0.15,-2.84,2.84,2.84,3.03,2.69,2.69,2.69
279.38,-0.17,-2.83,-0.17,-2.83,2.83,2.83,2.99,2.67,2.67,2.66
282.17,-0.18,-2.82,-0.18,-2.82,2.82,2.83,2.96,2.64,2.64,2.64
284.99,-0.20,-2.81,-0.20,-2.81,2.82,2.82,2.92,2.62,2.62,2.61
287.84,-0.22,-2.81,-0.22,-2.81,2.81,2.81,2.88,2.59,2.59,2.59
290.72,-0.23,-2.80,-0.23,-2.80,2.80,2.81,2.85,2.57,2.57,2.57
293.63,-0.25,-2.80,-0.25,-2.79,2.79,2.80,2.81,2.54,2.54,2.54
296.57,-0.27,-2.79,-0.27,-2.79,2.78,2.79,2.77,2.51,2.51,2.51
299.53,-0.29,-2.78,-0.29,-2.78,2.77,2.78,2.73,2.48,2.48,2.48
302.53,-0.30,-2.77,-0.30,-2.77,2.76,2.78,2.69,2.46,2.46,2.46
305.55,-0.32,-2.75,-0.32,-2.75,2.75,2.77,2.65,2.43,2.43,2.44
308.61,-0.33,-2.74,-0.33,-2.74,2.74,2.76,2.62,2.41,2.41,2.41
311.69,-0.34,-2.72,-0.34,-2.72,2.72,2.75,2.58,2.38,2.38,2.38
314.81,-0.35,-2.71,-0.35,-2.71,2.71,2.74,2.55,2.36,2.36,2.36
317.96,-0.36,-2.69,-0.36,-2.69,2.70,2.73,2.51,2.34,2.33,2.33
321.14,-0.38,-2.68,-0.38,-2.68,2.69,2.72,2.48,2.31,2.31,2.30
324.35,-0.40,-2.68,-0.41,-2.68,2.68,2.71,2.45,2.28,2.28,2.27
327.59,-0.43,-2.67,-0.43,-2.67,2.68,2.70,2.42,2.24,2.25,2.24
330.87,-0.46,-2.67,-0.46,-2.67,2.67,2.69,2.39,2.21,2.21,2.22
334.18,-0.48,-2.67,-0.48,-2.67,2.66,2.68,2.36,2.18,2.18,2.18
337.52,-0.50,-2.66,-0.50,-2.66,2.65,2.67,2.34,2.15,2.15,2.15
340.90,-0.52,-2.65,-0.52,-2.65,2.64,2.66,2.31,2.12,2.12,2.12
344.30,-0.54,-2.63,-0.54,-2.63,2.63,2.65,2.29,2.09,2.09,2.09
347.75,-0.56,-2.62,-0.56,-2.62,2.61,2.64,2.27,2.06,2.06,2.06
351.23,-0.57,-2.60,-0.57,-2.59,2.59,2.63,2.25,2.02,2.02,2.03
354.74,-0.58,-2.57,-0.58,-2.57,2.57,2.61,2.23,1.99,1.99,1.99
358.28,-0.60,-2.55,-0.60,-2.55,2.55,2.60,2.22,1.96,1.96,1.95
361.87,-0.61,-2.53,-0.61,-2.53,2.53,2.59,2.20,1.92,1.92,1.92
365.49,-0.62,-2.52,-0.62,-2.51,2.52,2.58,2.19,1.89,1.89,1.89
369.14,-0.63,-2.50,-0.63,-2.50,2.50,2.56,2.18,1.87,1.87,1.87
372.83,-0.64,-2.48,-0.64,-2.48,2.49,2.55,2.17,1.85,1.85,1.84
376.56,-0.65,-2.47,-0.65,-2.48,2.49,2.54,2.17,1.84,1.84,1.82
380.33,-0.66,-2.47,-0.66,-2.47,2.48,2.52,2.16,1.82,1.82,1.81
384.13,-0.67,-2.48,-0.67,-2.48,2.48,2.51,2.16,1.81,1.81,1.81
387.97,-0.69,-2.48,-0.69,-2.48,2.47,2.49,2.15,1.79,1.79,1.80
391.85,-0.70,-2.48,-0.70,-2.48,2.47,2.48,2.15,1.77,1.77,1.78
395.77,-0.72,-2.47,-0.72,-2.47,2.46,2.46,2.15,1.75,1.74,1.75
399.73,-0.73,-2.46,-0.73,-2.46,2.45,2.45,2.15,1.72,1.72,1.72
403.72,-0.75,-2.44,-0.75,-2.44,2.44,2.43,2.16,1.69,1.69,1.69
407.76,-0.76,-2.42,-0.76,-2.42,2.42,2.41,2.16,1.66,1.66,1.65
411.84,-0.78,-2.40,-0.78,-2.40,2.40,2.40,2.16,1.62,1.62,1.62
415.96,-0.79,-2.38,-0.79,-2.38,2.38,2.38,2.17,1.58,1.58,1.58
420.12,-0.81,-2.35,-0.81,-2.35,2.36,2.36,2.17,1.55,1.55,1.54
424.32,-0.83,-2.33,-0.83,-2.33,2.34,2.34,2.18,1.51,1.51,1.51
428.56,-0.84,-2.32,-0.84,-2.32,2.32,2.32,2.18,1.48,1.48,1.47
432.85,-0.86,-2.30,-0.86,-2.30,2.30,2.31,2.18,1.44,1.44,1.44
437.18,-0.87,-2.28,-0.87,-2.28,2.28,2.29,2.19,1.41,1.41,1.41
441.55,-0.89,-2.27,-0.89,-2.26,2.26,2.27,2.19,1.37,1.37,1.38
445.96,-0.90,-2.25,-0.90,-2.25,2.24,2.25,2.19,1.34,1.34,1.34
450.42,-0.92,-2.23,-0.92,-2.23,2.23,2.23,2.20,1.31,1.31,1.31
454.93,-0.93,-2.21,-0.93,-2.21,2.21,2.21,2.20,1.27,1.27,1.27
459.48,-0.95,-2.18,-0.95,-2.19,2.19,2.18,2.20,1.24,1.24,1.24
464.07,-0.97,-2.16,-0.97,-2.16,2.16,2.16,2.19,1.20,1.20,1.20
468.71,-0.98,-2.14,-0.98,-2.14,2.14,2.14,2.19,1.16,1.16,1.16
473.40,-1.00,-2.12,-1.00,-2.12,2.12,2.12,2.18,1.12,1.12,1.12
478.13,-1.02,-2.10,-1.02,-2.09,2.09,2.09,2.17,1.08,1.08,1.08
482.91,-1.03,-2.07,-1.03,-2.07,2.07,2.07,2.16,1.04,1.04,1.04
487.74,-1.04,-2.04,-1.05,-2.04,2.05,2.05,2.15,1.00,1.00,1.00
492.62,-1.06,-2.02,-1.06,-2.02,2.02,2.02,2.13,0.96,0.96,0.96
497.55,-1.08,-1.99,-1.08,-1.99,1.99,2.00,2.11,0.92,0.92,0.92
502.52,-1.09,-1.97,-1.09,-1.97,1.97,1.97,2.09,0.87,0.87,0.87
507.55,-1.11,-1.94,-1.11,-1.94,1.94,1.94,2.07,0.83,0.83,0.83
512.62,-1.12,-1.91,-1.12,-1.91,1.91,1.92,2.04,0.79,0.79,0.79
517.75,-1.14,-1.88,-1.14,-1.88,1.88,1.89,2.01,0.75,0.75,0.75
522.93,-1.15,-1.85,-1.15,-1.85,1.85,1.86,1.98,0.70,0.70,0.70
528.16,-1.16,-1.82,-1.16,-1.82,1.82,1.83,1.94,0.66,0.66,0.66
533.44,-1.17,-1.79,-1.17,-1.79,1.79,1.80,1.90,0.62,0.62,0.62
538.77,-1.18,-1.75,-1.18,-1.75,1.76,1.77,1.86,0.58,0.58,0.57
544.16,-1.19,-1.72,-1.19,-1.72,1.72,1.74,1.82,0.53,0.53,0.53
