frequency,raw,error,smoothed,error_smoothed,equalization,parametric_eq,fixed_band_eq,equalized_raw,equalized_smoothed,target
20.00,7.76,2.48,7.76,2.47,-2.47,-2.22,-0.81,5.29,5.29,5.27
20.20,7.78,2.46,7.78,2.46,-2.47,-2.36,-0.84,5.31,5.31,5.33
20.40,7.80,2.43,7.81,2.46,-2.46,-2.51,-0.86,5.34,5.34,5.37
20.61,7.83,2.46,7.83,2.46,-2.46,-2.63,-0.89,5.37,5.37,5.37
20.81,7.86,2.49,7.86,2.47,-2.46,-2.76,-0.91,5.41,5.41,5.37
21.02,7.89,2.48,7.89,2.47,-2.45,-2.82,-0.94,5.44,5.44,5.42
21.23,7.93,2.44,7.93,2.45,-2.45,-2.88,-0.97,5.48,5.48,5.48
21.44,7.96,2.42,7.96,2.43,-2.44,-2.86,-1.00,5.52,5.52,5.54
21.66,7.99,2.41,7.99,2.42,-2.43,-2.83,-1.02,5.56,5.56,5.57
21.87,8.02,2.45,8.02,2.42,-2.43,-2.75,-1.05,5.59,5.59,5.57
22.09,8.05,2.41,8.05,2.42,-2.42,-2.66,-1.09,5.63,5.63,5.64
22.31,8.08,2.40,8.08,2.41,-2.41,-2.56,-1.12,5.67,5.67,5.67
22.54,8.11,2.42,8.11,2.39,-2.40,-2.46,-1.15,5.70,5.70,5.69
22.76,8.13,2.37,8.13,2.40,-2.39,-2.37,-1.18,5.74,5.74,5.76
22.99,8.16,2.39,8.16,2.40,-2.38,-2.29,-1.22,5.78,5.78,5.77
23.22,8.19,2.41,8.19,2.38,-2.37,-2.22,-1.25,5.82,5.82,5.78
23.45,8.22,2.36,8.22,2.36,-2.36,-2.15,-1.29,5.86,5.86,5.86
23.69,8.25,2.31,8.25,2.34,-2.35,-2.10,-1.32,5.90,5.90,5.94
23.92,8.28,2.31,8.28,2.32,-2.33,-2.06,-1.36,5.95,5.95,5.97
24.16,8.31,2.33,8.31,2.31,-2.31,-2.03,-1.40,6.00,6.00,5.97
24.40,8.34,2.29,8.34,2.29,-2.28,-2.00,-1.44,6.06,6.06,6.04
24.65,8.36,2.25,8.36,2.26,-2.24,-1.98,-1.47,6.12,6.12,6.11
24.89,8.39,2.22,8.39,2.22,-2.21,-1.96,-1.51,6.18,6.18,6.17
25.14,8.41,2.18,8.41,2.17,-2.17,-1.95,-1.55,6.24,6.24,6.24
25.39,8.44,2.13,8.44,2.12,-2.13,-1.94,-1.59,6.31,6.31,6.31
25.65,8.46,2.07,8.46,2.07,-2.09,-1.93,-1.63,6.37,6.37,6.39
25.91,8.47,2.02,8.47,2.04,-2.05,-1.93,-1.67,6.42,6.42,6.45
26.16,8.49,2.01,8.49,2.01,-2.02,-1.93,-1.71,6.47,6.47,6.47
26.43,8.50,2.02,8.50,1.99,-1.99,-1.93,-1.75,6.51,6.51,6.48
26.69,8.50,1.96,8.50,1.97,-1.96,-1.93,-1.79,6.54,6.54,6.55
26.96,8.51,1.93,8.51,1.94,-1.94,-1.93,-1.83,6.56,6.56,6.57
27.23,8.50,1.93,8.50,1.92,-1.93,-1.94,-1.87,6.57,6.57,6.57
27.50,8.50,1.92,8.50,1.92,-1.92,-1.94,-1.90,6.58,6.58,6.57
27.77,8.49,1.91,8.49,1.91,-1.91,-1.95,-1.94,6.58,6.58,6.57
28.05,8.48,1.91,8.48,1.91,-1.91,-1.95,-1.97,6.58,6.58,6.57
28.33,8.48,1.91,8.48,1.91,-1.91,-1.96,-2.01,6.57,6.57,6.57
28.62,8.48,1.91,8.48,1.91,-1.91,-1.96,-2.04,6.57,6.57,6.57
28.90,8.49,1.92,8.49,1.92,-1.92,-1.97,-2.07,6.57,6.57,6.57
29.19,8.50,1.93,8.50,1.93,-1.93,-1.97,-2.10,6.57,6.57,6.57
29.48,8.52,1.94,8.52,1.94,-1.94,-1.98,-2.12,6.57,6.57,6.57
29.78,8.53,1.96,8.53,1.96,-1.96,-1.98,-2.14,6.58,6.58,6.57
30.08,8.55,1.98,8.55,1.98,-1.97,-1.99,-2.16,6.58,6.58,6.57
30.38,8.57,1.99,8.57,1.99,-1.99,-1.99,-2.18,6.58,6.58,6.57
30.68,8.58,2.01,8.58,2.01,-2.00,-2.00,-2.20,6.59,6.58,6.57
30.99,8.60,2.02,8.60,2.02,-2.01,-2.00,-2.21,6.58,6.58,6.57
31.30,8.61,2.03,8.61,2.03,-2.03,-2.00,-2.22,6.58,6.58,6.57
31.61,8.62,2.04,8.62,2.04,-2.05,-2.01,-2.23,6.57,6.57,6.57
31.93,8.63,2.05,8.63,2.05,-2.08,-2.01,-2.24,6.55,6.55,6.57
32.24,8.64,2.06,8.64,2.08,-2.10,-2.01,-2.24,6.53,6.53,6.57
32.57,8.65,2.12,8.65,2.12,-2.13,-2.01,-2.24,6.52,6.52,6.52
32.89,8.66,2.18,8.66,2.16,-2.15,-2.01,-2.24,6.50,6.50,6.47
33.22,8.66,2.19,8.66,2.19,-2.17,-2.01,-2.23,6.49,6.49,6.47
33.55,8.67,2.20,8.67,2.21,-2.19,-2.01,-2.23,6.49,6.49,6.47
33.89,8.68,2.21,8.68,2.21,-2.19,-2.01,-2.22,6.49,6.49,6.47
34.23,8.69,2.21,8.69,2.19,-2.18,-2.01,-2.21,6.51,6.51,6.48
34.57,8.70,2.15,8.70,2.17,-2.16,-2.01,-2.20,6.53,6.53,6.55
34.92,8.70,2.13,8.70,2.13,-2.14,-2.01,-2.19,6.56,6.56,6.57
35.27,8.70,2.12,8.70,2.09,-2.11,-2.01,-2.17,6.60,6.60,6.59
35.62,8.71,2.05,8.71,2.07,-2.07,-2.00,-2.16,6.63,6.63,6.66
35.97,8.71,2.03,8.71,2.03,-2.04,-2.00,-2.14,6.67,6.67,6.67
36.33,8.71,2.01,8.71,1.99,-2.00,-2.00,-2.12,6.71,6.71,6.70
36.70,8.71,1.95,8.71,1.97,-1.96,-2.00,-2.11,6.75,6.75,6.76
37.06,8.72,1.94,8.72,1.94,-1.92,-1.99,-2.09,6.79,6.79,6.77
37.43,8.72,1.92,8.72,1.90,-1.88,-1.99,-2.07,6.84,6.84,6.80
37.81,8.72,1.86,8.72,1.86,-1.84,-1.98,-2.06,6.88,6.88,6.86
38.19,8.72,1.79,8.72,1.80,-1.80,-1.98,-2.04,6.92,6.92,6.93
38.57,8.72,1.75,8.73,1.76,-1.77,-1.98,-2.02,6.95,6.95,6.97
38.95,8.73,1.75,8.73,1.75,-1.76,-1.97,-2.01,6.97,6.97,6.97
39.34,8.73,1.75,8.73,1.74,-1.77,-1.97,-1.99,6.96,6.96,6.97
39.74,8.73,1.76,8.73,1.75,-1.80,-1.96,-1.98,6.93,6.93,6.97
40.14,8.73,1.76,8.73,1.78,-1.84,-1.96,-1.97,6.89,6.89,6.97
40.54,8.74,1.84,8.74,1.85,-1.89,-1.96,-1.96,6.84,6.84,6.90
40.94,8.74,1.95,8.74,1.95,-1.94,-1.95,-1.94,6.80,6.80,6.79
41.35,8.74,2.07,8.74,2.03,-1.97,-1.95,-1.94,6.77,6.77,6.67
41.76,8.75,2.07,8.74,2.09,-1.99,-1.94,-1.93,6.76,6.76,6.67
42.18,8.75,2.07,8.75,2.07,-1.98,-1.94,-1.92,6.76,6.76,6.67
42.60,8.74,2.03,8.74,2.00,-1.96,-1.94,-1.91,6.79,6.79,6.71
43.03,8.74,1.89,8.74,1.91,-1.92,-1.93,-1.91,6.82,6.82,6.85
43.46,8.74,1.80,8.74,1.82,-1.88,-1.93,-1.91,6.86,6.86,6.94
43.90,8.73,1.76,8.73,1.76,-1.83,-1.93,-1.91,6.90,6.90,6.97
44.33,8.72,1.75,8.72,1.74,-1.80,-1.93,-1.91,6.93,6.93,6.97
44.78,8.72,1.74,8.72,1.75,-1.77,-1.92,-1.91,6.94,6.94,6.97
45.23,8.71,1.77,8.71,1.78,-1.77,-1.92,-1.91,6.94,6.94,6.94
45.68,8.70,1.83,8.70,1.80,-1.77,-1.92,-1.92,6.93,6.93,6.88
46.13,8.70,1.82,8.70,1.82,-1.78,-1.92,-1.92,6.91,6.91,6.87
46.60,8.69,1.82,8.69,1.83,-1.80,-1.92,-1.93,6.89,6.89,6.87
47.06,8.69,1.82,8.69,1.82,-1.82,-1.92,-1.94,6.87,6.87,6.87
47.53,8.69,1.82,8.69,1.81,-1.83,-1.92,-1.95,6.86,6.86,6.87
48.01,8.69,1.81,8.69,1.82,-1.84,-1.92,-1.96,6.85,6.85,6.87
48.49,8.69,1.82,8.69,1.84,-1.85,-1.92,-1.97,6.84,6.84,6.86
48.97,8.68,1.89,8.68,1.87,-1.85,-1.92,-1.99,6.83,6.83,6.79
49.46,8.68,1.90,8.68,1.89,-1.86,-1.92,-2.00,6.82,6.82,6.77
49.96,8.67,1.89,8.67,1.90,-1.87,-1.92,-2.02,6.80,6.80,6.77
50.46,8.66,1.88,8.66,1.88,-1.88,-1.92,-2.04,6.77,6.77,6.77
50.96,8.65,1.87,8.65,1.88,-1.91,-1.92,-2.05,6.74,6.74,6.77
51.47,8.64,1.89,8.64,1.90,-1.94,-1.92,-2.07,6.70,6.70,6.75
51.99,8.63,1.95,8.63,1.95,-1.98,-1.93,-2.09,6.65,6.65,6.68
52.51,8.62,2.01,8.62,2.01,-2.04,-1.93,-2.11,6.59,6.59,6.61
53.03,8.62,2.08,8.62,2.08,-2.09,-1.93,-2.13,6.53,6.53,6.54
53.56,8.62,2.15,8.62,2.15,-2.15,-1.94,-2.15,6.47,6.47,6.47
54.10,8.61,2.21,8.61,2.22,-2.19,-1.94,-2.17,6.42,6.42,6.40
54.64,8.61,2.28,8.61,2.28,-2.21,-1.95,-2.19,6.40,6.40,6.33
55.18,8.61,2.32,8.61,2.29,-2.23,-1.95,-2.21,6.38,6.38,6.29
55.74,8.60,2.25,8.60,2.25,-2.23,-1.96,-2.23,6.38,6.38,6.35
56.29,8.60,2.17,8.60,2.19,-2.21,-1.96,-2.25,6.38,6.38,6.42
56.86,8.59,2.11,8.59,2.13,-2.19,-1.97,-2.27,6.40,6.40,6.47
57.42,8.58,2.10,8.58,2.10,-2.15,-1.98,-2.29,6.43,6.43,6.47
58.00,8.57,2.09,8.57,2.09,-2.09,-1.98,-2.30,6.47,6.47,6.47
58.58,8.55,2.08,8.55,2.08,-2.04,-1.99,-2.32,6.51,6.51,6.47
59.16,8.54,2.06,8.54,2.05,-1.99,-2.00,-2.33,6.55,6.55,6.47
59.76,8.53,1.99,8.53,1.98,-1.95,-2.00,-2.35,6.58,6.58,6.54
60.35,8.51,1.91,8.51,1.91,-1.91,-2.01,-2.36,6.60,6.60,6.60
60.96,8.50,1.83,8.50,1.84,-1.89,-2.02,-2.37,6.61,6.61,6.67
61.57,8.48,1.81,8.48,1.81,-1.88,-2.03,-2.37,6.60,6.60,6.67
62.18,8.46,1.83,8.46,1.83,-1.88,-2.04,-2.38,6.58,6.59,6.63
62.80,8.45,1.88,8.45,1.87,-1.90,-2.05,-2.38,6.55,6.55,6.56
63.43,8.43,1.93,8.43,1.93,-1.93,-2.06,-2.39,6.50,6.50,6.50
64.07,8.42,1.98,8.42,1.99,-1.97,-2.07,-2.39,6.45,6.45,6.43
64.71,8.41,2.04,8.41,2.05,-2.01,-2.08,-2.39,6.40,6.40,6.36
65.35,8.40,2.11,8.40,2.09,-2.05,-2.09,-2.38,6.35,6.35,6.29
66.01,8.39,2.12,8.39,2.11,-2.08,-2.10,-2.38,6.31,6.31,6.27
66.67,8.39,2.11,8.39,2.11,-2.11,-2.11,-2.37,6.28,6.28,6.27
67.33,8.38,2.10,8.38,2.10,-2.13,-2.12,-2.37,6.25,6.25,6.27
68.01,8.37,2.10,8.37,2.10,-2.15,-2.13,-2.36,6.22,6.22,6.27
68.69,8.36,2.12,8.36,2.13,-2.17,-2.14,-2.35,6.20,6.20,6.25
69.37,8.36,2.18,8.36,2.18,-2.18,-2.15,-2.34,6.18,6.18,6.18
70.07,8.34,2.24,8.34,2.22,-2.19,-2.17,-2.33,6.15,6.15,6.11
70.77,8.33,2.25,8.33,2.25,-2.20,-2.18,-2.32,6.12,6.12,6.07
71.48,8.31,2.24,8.31,2.24,-2.22,-2.19,-2.31,6.10,6.10,6.07
72.19,8.30,2.22,8.30,2.22,-2.23,-2.20,-2.30,6.07,6.07,6.07
72.91,8.28,2.20,8.28,2.21,-2.23,-2.21,-2.29,6.05,6.05,6.07
73.64,8.26,2.19,8.26,2.21,-2.23,-2.23,-2.28,6.03,6.03,6.06
74.38,8.24,2.24,8.24,2.22,-2.22,-2.24,-2.27,6.01,6.01,5.99
75.12,8.22,2.24,8.22,2.23,-2.22,-2.25,-2.26,6.00,6.00,5.97
75.87,8.20,2.22,8.20,2.22,-2.22,-2.27,-2.25,5.98,5.98,5.97
76.63,8.18,2.20,8.18,2.22,-2.22,-2.28,-2.24,5.95,5.95,5.97
77.40,8.16,2.24,8.16,2.23,-2.23,-2.29,-2.23,5.92,5.92,5.92
78.17,8.14,2.26,8.14,2.24,-2.25,-2.30,-2.22,5.89,5.89,5.87
78.95,8.12,2.24,8.12,2.26,-2.27,-2.32,-2.22,5.84,5.84,5.87
79.74,8.09,2.28,8.09,2.28,-2.30,-2.33,-2.21,5.79,5.79,5.82
80.54,8.07,2.32,8.07,2.32,-2.33,-2.34,-2.21,5.74,5.74,5.75
81.35,8.05,2.37,8.05,2.37,-2.36,-2.36,-2.21,5.68,5.68,5.68
82.16,8.02,2.41,8.02,2.42,-2.39,-2.37,-2.21,5.63,5.63,5.61
82.98,7.99,2.45,7.99,2.45,-2.42,-2.38,-2.21,5.57,5.57,5.54
83.81,7.97,2.49,7.97,2.47,-2.46,-2.40,-2.21,5.51,5.51,5.47
84.65,7.94,2.47,7.94,2.48,-2.48,-2.41,-2.22,5.46,5.46,5.47
85.50,7.91,2.48,7.91,2.49,-2.51,-2.42,-2.23,5.40,5.40,5.43
86.35,7.88,2.52,7.88,2.51,-2.53,-2.44,-2.23,5.35,5.35,5.36
87.22,7.85,2.55,7.85,2.56,-2.56,-2.45,-2.24,5.29,5.29,5.30
88.09,7.82,2.59,7.82,2.58,-2.58,-2.46,-2.25,5.24,5.24,5.23
88.97,7.79,2.62,7.79,2.60,-2.60,-2.47,-2.27,5.19,5.19,5.17
89.86,7.77,2.59,7.77,2.62,-2.62,-2.49,-2.28,5.15,5.15,5.17
90.76,7.75,2.64,7.75,2.63,-2.63,-2.50,-2.30,5.12,5.12,5.12
91.66,7.74,2.66,7.74,2.64,-2.65,-2.51,-2.32,5.09,5.09,5.07
92.58,7.72,2.65,7.72,2.65,-2.65,-2.52,-2.34,5.07,5.07,5.07
93.51,7.70,2.63,7.70,2.64,-2.64,-2.53,-2.36,5.06,5.06,5.07
94.44,7.67,2.63,7.67,2.64,-2.63,-2.55,-2.38,5.04,5.04,5.04
95.39,7.64,2.66,7.64,2.64,-2.61,-2.56,-2.41,5.02,5.02,4.98
96.34,7.59,2.62,7.59,2.61,-2.59,-2.57,-2.43,5.00,5.00,4.97
97.30,7.54,2.56,7.54,2.57,-2.57,-2.58,-2.46,4.97,4.97,4.97
98.28,7.48,2.51,7.48,2.53,-2.55,-2.59,-2.49,4.93,4.93,4.97
99.26,7.42,2.52,7.42,2.51,-2.53,-2.60,-2.52,4.89,4.90,4.90
100.25,7.38,2.50,7.38,2.49,-2.51,-2.61,-2.55,4.87,4.87,4.87
101.25,7.35,2.48,7.35,2.48,-2.49,-2.62,-2.58,4.86,4.86,4.87
102.27,7.34,2.46,7.34,2.48,-2.47,-2.63,-2.62,4.86,4.86,4.87
103.29,7.33,2.48,7.33,2.49,-2.46,-2.64,-2.65,4.87,4.86,4.85
104.32,7.32,2.53,7.32,2.49,-2.46,-2.65,-2.68,4.86,4.86,4.79
105.37,7.32,2.47,7.32,2.47,-2.47,-2.66,-2.72,4.85,4.85,4.84
106.42,7.31,2.43,7.31,2.46,-2.48,-2.67,-2.75,4.83,4.83,4.87
107.48,7.30,2.45,7.30,2.46,-2.50,-2.68,-2.78,4.80,4.80,4.85
108.56,7.29,2.50,7.29,2.50,-2.53,-2.68,-2.82,4.76,4.76,4.80
109.64,7.28,2.57,7.28,2.56,-2.57,-2.69,-2.85,4.71,4.71,4.71
110.74,7.27,2.63,7.27,2.62,-2.62,-2.70,-2.88,4.65,4.65,4.64
111.85,7.25,2.67,7.25,2.69,-2.67,-2.71,-2.91,4.58,4.58,4.58
112.97,7.23,2.75,7.23,2.74,-2.72,-2.71,-2.94,4.51,4.51,4.48
114.10,7.21,2.79,7.21,2.79,-2.77,-2.72,-2.97,4.44,4.43,4.42
115.24,7.18,2.82,7.18,2.82,-2.81,-2.73,-2.99,4.37,4.37,4.36
116.39,7.15,2.85,7.15,2.84,-2.83,-2.73,-3.02,4.32,4.32,4.31
117.55,7.12,2.85,7.12,2.85,-2.85,-2.74,-3.04,4.28,4.27,4.27
118.73,7.09,2.85,7.09,2.86,-2.85,-2.74,-3.06,4.24,4.24,4.24
119.92,7.05,2.87,7.05,2.85,-2.85,-2.75,-3.07,4.20,4.20,4.18
121.12,7.01,2.84,7.01,2.83,-2.84,-2.75,-3.09,4.17,4.17,4.17
122.33,6.98,2.80,6.98,2.81,-2.83,-2.75,-3.09,4.15,4.15,4.17
123.55,6.94,2.77,6.94,2.79,-2.81,-2.76,-3.10,4.13,4.13,4.17
124.79,6.90,2.81,6.90,2.79,-2.78,-2.76,-3.10,4.12,4.12,4.10
126.03,6.87,2.79,6.87,2.78,-2.76,-2.76,-3.10,4.11,4.11,4.07
127.29,6.83,2.76,6.83,2.76,-2.74,-2.76,-3.10,4.09,4.09,4.07
128.57,6.80,2.72,6.80,2.72,-2.72,-2.76,-3.09,4.08,4.08,4.07
129.85,6.76,2.69,6.76,2.69,-2.71,-2.77,-3.08,4.05,4.05,4.07
131.15,6.72,2.66,6.72,2.67,-2.70,-2.77,-3.07,4.03,4.03,4.07
132.46,6.69,2.68,6.69,2.69,-2.70,-2.77,-3.06,3.99,3.99,4.00
133.79,6.65,2.71,6.65,2.70,-2.70,-2.77,-3.04,3.95,3.94,3.94
135.12,6.61,2.73,6.61,2.71,-2.72,-2.77,-3.02,3.89,3.89,3.87
136.48,6.57,2.69,6.57,2.73,-2.74,-2.76,-3.00,3.83,3.83,3.87
137.84,6.53,2.74,6.53,2.76,-2.76,-2.76,-2.97,3.77,3.77,3.79
139.22,6.49,2.82,6.49,2.80,-2.79,-2.76,-2.95,3.70,3.70,3.66
140.61,6.45,2.85,6.44,2.83,-2.80,-2.76,-2.92,3.64,3.64,3.59
142.02,6.40,2.83,6.40,2.84,-2.81,-2.76,-2.89,3.59,3.59,3.57
143.44,6.36,2.81,6.36,2.82,-2.82,-2.75,-2.86,3.54,3.54,3.55
144.87,6.32,2.83,6.31,2.81,-2.82,-2.75,-2.83,3.50,3.50,3.48
146.32,6.27,2.80,6.27,2.81,-2.81,-2.75,-2.80,3.46,3.46,3.47
147.78,6.23,2.79,6.23,2.80,-2.79,-2.74,-2.76,3.43,3.43,3.44
149.26,6.18,2.81,6.18,2.78,-2.78,-2.74,-2.73,3.40,3.40,3.37
150.75,6.14,2.76,6.14,2.77,-2.78,-2.73,-2.70,3.36,3.36,3.37
152.26,6.09,2.76,6.09,2.76,-2.78,-2.73,-2.67,3.31,3.31,3.33
153.78,6.05,2.76,6.05,2.76,-2.79,-2.72,-2.64,3.26,3.26,3.28
155.32,6.00,2.79,6.00,2.79,-2.81,-2.72,-2.61,3.19,3.19,3.21
156.88,5.95,2.82,5.95,2.82,-2.83,-2.71,-2.58,3.12,3.12,3.13
158.44,5.91,2.86,5.91,2.86,-2.87,-2.71,-2.56,3.04,3.04,3.05
160.03,5.87,2.89,5.87,2.88,-2.90,-2.70,-2.53,2.97,2.97,2.97
161.63,5.83,2.90,5.83,2.91,-2.91,-2.69,-2.51,2.91,2.91,2.92
163.24,5.78,2.92,5.79,2.94,-2.91,-2.69,-2.48,2.88,2.88,2.86
164.88,5.75,2.96,5.75,2.95,-2.88,-2.68,-2.46,2.86,2.86,2.78
166.53,5.70,2.93,5.70,2.93,-2.85,-2.67,-2.44,2.86,2.86,2.77
168.19,5.66,2.88,5.66,2.86,-2.81,-2.67,-2.42,2.85,2.85,2.78
169.87,5.62,2.75,5.62,2.75,-2.77,-2.66,-2.40,2.85,2.85,2.87
171.57,5.58,2.62,5.57,2.65,-2.74,-2.65,-2.39,2.83,2.83,2.95
173.29,5.53,2.60,5.53,2.61,-2.72,-2.64,-2.38,2.81,2.81,2.93
175.02,5.48,2.61,5.48,2.64,-2.69,-2.64,-2.37,2.79,2.79,2.87
176.77,5.43,2.74,5.43,2.70,-2.68,-2.63,-2.35,2.75,2.75,2.70
178.54,5.38,2.76,5.38,2.75,-2.68,-2.62,-2.35,2.70,2.70,2.62
180.32,5.34,2.76,5.34,2.76,-2.69,-2.61,-2.34,2.65,2.65,2.57
182.13,5.29,2.71,5.29,2.71,-2.69,-2.60,-2.34,2.60,2.60,2.57
183.95,5.24,2.66,5.24,2.68,-2.68,-2.60,-2.33,2.55,2.55,2.57
185.79,5.19,2.64,5.19,2.65,-2.66,-2.59,-2.33,2.53,2.53,2.55
187.65,5.14,2.65,5.14,2.63,-2.63,-2.58,-2.33,2.51,2.51,2.49
189.52,5.09,2.61,5.09,2.60,-2.60,-2.57,-2.34,2.49,2.49,2.47
191.42,5.04,2.56,5.04,2.56,-2.58,-2.56,-2.34,2.46,2.46,2.47
193.33,4.99,2.51,4.99,2.53,-2.56,-2.56,-2.35,2.42,2.42,2.47
195.27,4.94,2.53,4.94,2.53,-2.56,-2.55,-2.35,2.38,2.38,2.41
197.22,4.89,2.56,4.89,2.55,-2.56,-2.54,-2.36,2.33,2.33,2.33
199.19,4.84,2.57,4.84,2.57,-2.57,-2.54,-2.37,2.28,2.28,2.27
201.18,4.79,2.59,4.79,2.59,-2.57,-2.53,-2.38,2.22,2.22,2.20
203.19,4.74,2.60,4.74,2.60,-2.57,-2.52,-2.40,2.17,2.17,2.14
205.23,4.68,2.61,4.68,2.59,-2.57,-2.52,-2.41,2.12,2.12,2.07
207.28,4.63,2.55,4.63,2.57,-2.56,-2.51,-2.42,2.07,2.07,2.07
209.35,4.57,2.54,4.57,2.55,-2.55,-2.50,-2.43,2.02,2.02,2.03
211.44,4.52,2.54,4.52,2.52,-2.53,-2.50,-2.45,1.98,1.98,1.97
213.56,4.46,2.48,4.46,2.50,-2.52,-2.49,-2.46,1.94,1.94,1.97
215.69,4.40,2.49,4.40,2.49,-2.51,-2.49,-2.48,1.89,1.89,1.92
217.85,4.35,2.50,4.35,2.50,-2.51,-2.48,-2.49,1.84,1.84,1.85
220.03,4.29,2.52,4.29,2.51,-2.52,-2.48,-2.50,1.78,1.78,1.77
222.23,4.24,2.52,4.24,2.52,-2.52,-2.47,-2.52,1.71,1.71,1.72
224.45,4.18,2.52,4.18,2.53,-2.52,-2.47,-2.53,1.66,1.66,1.66
226.70,4.12,2.54,4.12,2.54,-2.52,-2.47,-2.54,1.61,1.61,1.59
228.96,4.06,2.55,4.06,2.54,-2.51,-2.46,-2.55,1.56,1.56,1.51
231.25,4.01,2.53,4.01,2.52,-2.49,-2.46,-2.55,1.51,1.51,1.47
233.57,3.95,2.47,3.95,2.47,-2.48,-2.45,-2.56,1.47,1.47,1.47
235.90,3.88,2.41,3.88,2.42,-2.46,-2.45,-2.56,1.43,1.43,1.47
238.26,3.82,2.39,3.82,2.40,-2.43,-2.45,-2.56,1.39,1.39,1.43
240.64,3.76,2.40,3.76,2.39,-2.41,-2.44,-2.56,1.35,1.35,1.36
243.05,3.69,2.39,3.69,2.40,-2.38,-2.44,-2.55,1.31,1.31,1.30
245.48,3.62,2.39,3.62,2.39,-2.36,-2.44,-2.55,1.26,1.26,1.23
247.93,3.55,2.38,3.55,2.36,-2.34,-2.43,-2.54,1.21,1.21,1.17
250.41,3.48,2.31,3.48,2.32,-2.32,-2.43,-2.52,1.16,1.16,1.17
252.92,3.41,2.29,3.41,2.30,-2.31,-2.42,-2.51,1.10,1.10,1.13
255.45,3.35,2.29,3.34,2.29,-2.30,-2.41,-2.49,1.05,1.05,1.06
258.00,3.28,2.31,3.28,2.28,-2.29,-2.41,-2.47,0.99,0.99,0.97
260.58,3.23,2.26,3.23,2.26,-2.28,-2.40,-2.45,0.95,0.95,0.97
263.19,3.19,2.24,3.19,2.27,-2.28,-2.39,-2.42,0.91,0.91,0.95
265.82,3.16,2.28,3.16,2.29,-2.28,-2.38,-2.39,0.88,0.88,0.88
268.48,3.15,2.34,3.15,2.31,-2.29,-2.37,-2.36,0.85,0.85,0.81
271.16,3.14,2.34,3.14,2.31,-2.31,-2.35,-2.32,0.84,0.84,0.80
273.87,3.14,2.27,3.14,2.29,-2.31,-2.34,-2.29,0.83,0.83,0.87
276.61,3.14,2.27,3.14,2.28,-2.31,-2.32,-2.25,0.83,0.83,0.87
279.38,3.13,2.29,3.13,2.30,-2.30,-2.30,-2.21,0.84,0.83,0.84
282.17,3.11,2.33,3.11,2.31,-2.27,-2.28,-2.17,0.84,0.84,0.77
284.99,3.08,2.30,3.08,2.28,-2.23,-2.26,-2.13,0.85,0.84,0.77
287.84,3.04,2.22,3.04,2.22,-2.19,-2.23,-2.09,0.85,0.85,0.82
290.72,2.99,2.12,2.99,2.13,-2.14,-2.20,-2.04,0.85,0.85,0.87
293.63,2.94,2.06,2.94,2.06,-2.10,-2.18,-2.00,0.84,0.84,0.87
296.57,2.88,2.01,2.88,2.02,-2.05,-2.15,-1.95,0.83,0.83,0.87
299.53,2.83,1.98,2.83,1.99,-2.01,-2.12,-1.91,0.82,0.82,0.84
302.53,2.77,1.99,2.77,1.96,-1.97,-2.08,-1.86,0.80,0.80,0.78
305.55,2.71,1.94,2.71,1.94,-1.95,-2.05,-1.81,0.76,0.76,0.77
308.61,2.65,1.91,2.65,1.93,-1.93,-2.02,-1.77,0.72,0.72,0.74
311.69,2.60,1.91,2.60,1.92,-1.91,-1.98,-1.72,0.68,0.68,0.68
314.81,2.54,1.93,2.54,1.92,-1.89,-1.94,-1.68,0.65,0.65,0.60
317.96,2.48,1.90,2.48,1.90,-1.85,-1.91,-1.63,0.62,0.62,0.57
321.14,2.42,1.85,2.42,1.85,-1.82,-1.87,-1.59,0.60,0.60,0.57
324.35,2.36,1.79,2.36,1.79,-1.80,-1.83,-1.54,0.57,0.57,0.57
327.59,2.31,1.73,2.31,1.74,-1.78,-1.79,-1.50,0.53,0.53,0.57
330.87,2.25,1.69,2.25,1.71,-1.76,-1.75,-1.46,0.49,0.49,0.56
334.18,2.19,1.70,2.19,1.70,-1.73,-1.72,-1.42,0.46,0.46,0.49
337.52,2.13,1.71,2.13,1.71,-1.71,-1.68,-1.38,0.43,0.43,0.42
340.90,2.08,1.72,2.08,1.73,-1.68,-1.64,-1.34,0.40,0.40,0.36
344.30,2.02,1.73,2.02,1.72,-1.66,-1.60,-1.30,0.36,0.36,0.29
347.75,1.96,1.69,1.96,1.67,-1.64,-1.56,-1.26,0.33,0.33,0.27
351.23,1.91,1.61,1.91,1.60,-1.61,-1.52,-1.22,0.30,0.30,0.30
354.74,1.85,1.48,1.85,1.53,-1.58,-1.49,-1.19,0.28,0.28,0.37
358.28,1.80,1.49,1.80,1.50,-1.54,-1.45,-1.15,0.26,0.26,0.31
361.87,1.74,1.51,1.74,1.49,-1.50,-1.41,-1.12,0.24,0.24,0.24
365.49,1.69,1.51,1.69,1.49,-1.47,-1.38,-1.08,0.22,0.22,0.17
369.14,1.64,1.46,1.64,1.46,-1.44,-1.34,-1.05,0.20,0.20,0.17
372.83,1.58,1.41,1.58,1.42,-1.41,-1.31,-1.02,0.17,0.17,0.17
376.56,1.53,1.36,1.53,1.38,-1.39,-1.27,-0.99,0.14,0.14,0.17
380.33,1.48,1.37,1.48,1.36,-1.36,-1.24,-0.96,0.11,0.11,0.10
384.13,1.42,1.35,1.42,1.33,-1.34,-1.20,-0.93,0.09,0.09,0.07
387.97,1.37,1.30,1.37,1.30,-1.31,-1.17,-0.90,0.06,0.06,0.07
391.85,1.32,1.24,1.32,1.27,-1.28,-1.14,-0.87,0.04,0.04,0.07
395.77,1.27,1.25,1.27,1.24,-1.25,-1.11,-0.84,0.02,0.02,0.02
399.73,1.21,1.24,1.22,1.22,-1.21,-1.08,-0.82,0.00,0.00,-0.03
403.72,1.16,1.19,1.16,1.19,-1.17,-1.04,-0.79,-0.00,-0.00,-0.03
407.76,1.11,1.14,1.11,1.15,-1.12,-1.01,-0.77,-0.01,-0.01,-0.03
411.84,1.06,1.09,1.06,1.08,-1.07,-0.98,-0.74,-0.01,-0.01,-0.03
415.96,1.01,1.04,1.01,1.01,-1.02,-0.95,-0.72,-0.01,-0.01,-0.03
420.12,0.96,0.92,0.96,0.94,-0.97,-0.92,-0.69,-0.01,-0.01,0.04
424.32,0.91,0.87,0.91,0.89,-0.91,-0.90,-0.67,-0.00,-0.00,0.04
428.56,0.86,0.88,0.86,0.86,-0.86,-0.87,-0.65,-0.00,-0.00,-0.03
432.85,0.81,0.83,0.81,0.83,-0.81,-0.84,-0.63,-0.00,-0.00,-0.03
437.18,0.76,0.78,0.76,0.78,-0.77,-0.81,-0.61,-0.01,-0.01,-0.03
441.55,0.71,0.73,0.71,0.73,-0.74,-0.78,-0.59,-0.03,-0.03,-0.03
445.96,0.66,0.69,0.66,0.70,-0.71,-0.76,-0.57,-0.05,-0.05,-0.03
450.42,0.61,0.68,0.61,0.68,-0.69,-0.73,-0.55,-0.08,-0.08,-0.07
454.93,0.56,0.69,0.56,0.66,-0.68,-0.70,-0.53,-0.12,-0.12,-0.13
459.48,0.51,0.64,0.51,0.66,-0.67,-0.67,-0.51,-0.16,-0.16,-0.13
464.07,0.47,0.65,0.47,0.65,-0.67,-0.65,-0.49,-0.21,-0.21,-0.18
468.71,0.42,0.67,0.42,0.67,-0.68,-0.62,-0.47,-0.26,-0.26,-0.25
473.40,0.37,0.69,0.37,0.69,-0.68,-0.60,-0.45,-0.31,-0.31,-0.32
478.13,0.33,0.71,0.33,0.71,-0.68,-0.57,-0.44,-0.35,-0.35,-0.38
482.91,0.28,0.71,0.28,0.70,-0.67,-0.54,-0.42,-0.38,-0.38,-0.43
487.74,0.24,0.66,0.24,0.67,-0.65,-0.52,-0.40,-0.41,-0.41,-0.43
492.62,0.19,0.62,0.19,0.62,-0.62,-0.49,-0.38,-0.43,-0.43,-0.43
497.55,0.15,0.57,0.15,0.57,-0.59,-0.47,-0.37,-0.44,-0.44,-0.43
502.52,0.11,0.53,0.11,0.53,-0.54,-0.44,-0.35,-0.44,-0.44,-0.43
507.55,0.06,0.49,0.06,0.49,-0.49,-0.41,-0.34,-0.43,-0.43,-0.43
512.62,0.02,0.44,0.02,0.44,-0.45,-0.39,-0.32,-0.43,-0.43,-0.43
517.75,-0.03,0.40,-0.03,0.40,-0.40,-0.36,-0.30,-0.42,-0.43,-0.43
522.93,-0.07,0.35,-0.07,0.36,-0.35,-0.34,-0.29,-0.42,-0.42,-0.43
528.16,-0.11,0.31,-0.11,0.31,-0.31,-0.31,-0.27,-0.43,-0.43,-0.43
533.44,-0.16,0.27,-0.16,0.27,-0.27,-0.29,-0.26,-0.43,-0.43,-0.43
538.77,-0.20,0.23,-0.20,0.23,-0.23,-0.26,-0.24,-0.43,-0.43,-0.43
