frequency,raw,error,smoothed,error_smoothed,equalization,parametric_eq,fixed_band_eq,equalized_raw,equalized_smoothed,target
20.00,3.80,-7.10,3.81,-7.09,6.00,5.75,2.63,9.80,9.81,10.90
20.20,3.83,-7.16,3.82,-7.16,6.00,5.78,2.71,9.83,9.82,10.98
20.40,3.84,-7.22,3.84,-7.22,6.00,5.80,2.78,9.84,9.84,11.06
20.61,3.86,-7.28,3.86,-7.28,6.00,5.83,2.86,9.86,9.86,11.14
20.81,3.88,-7.34,3.88,-7.34,6.00,5.85,2.94,9.88,9.88,11.22
21.02,3.90,-7.39,3.90,-7.39,6.00,5.87,3.03,9.90,9.90,11.29
21.23,3.93,-7.43,3.93,-7.43,6.00,5.89,3.11,9.93,9.93,11.36
21.44,3.96,-7.46,3.96,-7.46,6.00,5.91,3.20,9.96,9.96,11.42
21.66,4.01,-7.48,4.00,-7.48,6.00,5.93,3.29,10.01,10.00,11.48
21.87,4.05,-7.49,4.05,-7.49,6.00,5.95,3.39,10.05,10.05,11.54
22.09,4.09,-7.51,4.09,-7.51,6.00,5.97,3.48,10.09,10.09,11.60
22.31,4.13,-7.52,4.13,-7.52,6.00,5.98,3.58,10.13,10.13,11.65
22.54,4.16,-7.54,4.16,-7.54,6.00,6.00,3.68,10.16,10.16,11.69
22.76,4.18,-7.56,4.18,-7.56,6.00,6.01,3.79,10.18,10.18,11.74
22.99,4.20,-7.58,4.19,-7.58,6.00,6.02,3.89,10.20,10.19,11.78
23.22,4.20,-7.61,4.20,-7.61,6.00,6.03,4.00,10.20,10.20,11.81
23.45,4.21,-7.63,4.21,-7.63,6.00,6.04,4.12,10.21,10.21,11.84
23.69,4.22,-7.64,4.22,-7.64,6.00,6.05,4.23,10.22,10.22,11.86
23.92,4.24,-7.65,4.24,-7.65,6.00,6.06,4.35,10.24,10.24,11.89
24.16,4.26,-7.65,4.26,-7.65,6.00,6.07,4.46,10.26,10.26,11.90
24.40,4.28,-7.63,4.28,-7.63,6.00,6.08,4.58,10.28,10.28,11.91
24.65,4.30,-7.62,4.30,-7.62,6.00,6.09,4.71,10.30,10.30,11.92
24.89,4.33,-7.60,4.33,-7.60,6.00,6.09,4.83,10.33,10.33,11.92
25.14,4.34,-7.57,4.34,-7.57,6.00,6.10,4.96,10.34,10.34,11.92
25.39,4.36,-7.55,4.36,-7.55,6.00,6.10,5.08,10.36,10.36,11.91
25.65,4.37,-7.53,4.37,-7.53,6.00,6.10,5.21,10.37,10.37,11.90
25.91,4.38,-7.51,4.38,-7.51,6.00,6.11,5.34,10.38,10.38,11.88
26.16,4.38,-7.48,4.38,-7.48,6.00,6.11,5.47,10.38,10.38,11.86
26.43,4.39,-7.45,4.39,-7.45,6.00,6.11,5.60,10.39,10.39,11.83
26.69,4.40,-7.41,4.40,-7.41,6.00,6.11,5.72,10.40,10.40,11.81
26.96,4.41,-7.37,4.41,-7.37,6.00,6.11,5.85,10.41,10.41,11.77
27.23,4.42,-7.32,4.42,-7.32,6.00,6.11,5.97,10.42,10.42,11.74
27.50,4.44,-7.26,4.44,-7.26,6.00,6.11,6.09,10.44,10.44,11.71
27.77,4.46,-7.21,4.46,-7.21,6.00,6.11,6.21,10.46,10.46,11.67
28.05,4.49,-7.14,4.49,-7.14,6.00,6.10,6.32,10.49,10.49,11.63
28.33,4.53,-7.07,4.53,-7.07,6.00,6.10,6.43,10.53,10.53,11.60
28.62,4.56,-7.00,4.56,-7.00,6.00,6.10,6.54,10.56,10.56,11.57
28.90,4.61,-6.93,4.61,-6.92,6.00,6.09,6.63,10.61,10.61,11.53
29.19,4.65,-6.85,4.65,-6.85,6.00,6.09,6.72,10.65,10.65,11.50
29.48,4.70,-6.78,4.70,-6.78,6.00,6.09,6.81,10.70,10.70,11.48
29.78,4.74,-6.71,4.74,-6.71,6.00,6.08,6.88,10.74,10.74,11.46
30.08,4.78,-6.66,4.78,-6.66,6.00,6.08,6.95,10.78,10.78,11.44
30.38,4.81,-6.62,4.81,-6.62,6.00,6.07,7.01,10.81,10.81,11.42
30.68,4.82,-6.60,4.82,-6.60,6.00,6.07,7.06,10.82,10.82,11.41
30.99,4.81,-6.59,4.81,-6.59,6.00,6.06,7.10,10.81,10.81,11.41
31.30,4.80,-6.60,4.80,-6.61,6.00,6.06,7.12,10.80,10.80,11.40
31.61,4.78,-6.63,4.78,-6.63,6.00,6.05,7.15,10.78,10.78,11.41
31.93,4.76,-6.65,4.76,-6.65,6.00,6.04,7.15,10.76,10.76,11.41
32.24,4.75,-6.67,4.75,-6.67,6.00,6.04,7.16,10.75,10.75,11.42
32.57,4.75,-6.68,4.75,-6.68,6.00,6.03,7.15,10.75,10.75,11.43
32.89,4.76,-6.68,4.77,-6.68,6.00,6.03,7.13,10.76,10.77,11.44
33.22,4.79,-6.67,4.79,-6.67,6.00,6.02,7.11,10.79,10.79,11.46
33.55,4.81,-6.66,4.81,-6.66,6.00,6.02,7.08,10.81,10.81,11.47
33.89,4.83,-6.66,4.82,-6.66,6.00,6.01,7.04,10.83,10.82,11.49
34.23,4.83,-6.67,4.83,-6.67,6.00,6.01,6.99,10.83,10.83,11.50
34.57,4.82,-6.70,4.82,-6.70,6.00,6.00,6.94,10.82,10.82,11.52
34.92,4.80,-6.73,4.80,-6.73,6.00,6.00,6.89,10.80,10.80,11.53
35.27,4.78,-6.76,4.79,-6.76,6.00,5.99,6.83,10.78,10.79,11.54
35.62,4.77,-6.78,4.78,-6.78,6.00,5.99,6.77,10.77,10.78,11.56
35.97,4.77,-6.79,4.78,-6.79,6.00,5.98,6.70,10.77,10.78,11.56
36.33,4.79,-6.78,4.79,-6.78,6.00,5.98,6.64,10.79,10.79,11.57
36.70,4.80,-6.77,4.80,-6.77,6.00,5.97,6.57,10.80,10.80,11.58
37.06,4.82,-6.76,4.81,-6.77,6.00,5.97,6.50,10.82,10.81,11.58
37.43,4.82,-6.76,4.82,-6.77,6.00,5.97,6.44,10.82,10.82,11.58
37.81,4.81,-6.78,4.81,-6.77,6.00,5.96,6.37,10.81,10.81,11.58
38.19,4.80,-6.79,4.80,-6.79,6.00,5.96,6.31,10.80,10.80,11.58
38.57,4.78,-6.80,4.78,-6.80,6.00,5.96,6.24,10.78,10.78,11.58
38.95,4.77,-6.81,4.77,-6.81,6.00,5.96,6.18,10.77,10.77,11.58
39.34,4.77,-6.81,4.77,-6.81,6.00,5.96,6.13,10.77,10.77,11.57
39.74,4.77,-6.80,4.77,-6.80,6.00,5.95,6.07,10.77,10.77,11.57
40.14,4.78,-6.78,4.78,-6.78,6.00,5.95,6.02,10.78,10.78,11.56
40.54,4.80,-6.75,4.81,-6.75,6.00,5.95,5.97,10.80,10.81,11.55
40.94,4.84,-6.71,4.84,-6.70,6.00,5.95,5.92,10.84,10.84,11.54
41.35,4.88,-6.66,4.88,-6.66,6.00,5.95,5.88,10.88,10.88,11.54
41.76,4.91,-6.61,4.91,-6.62,6.00,5.95,5.84,10.91,10.91,11.52
42.18,4.93,-6.58,4.93,-6.58,6.00,5.95,5.81,10.93,10.93,11.51
42.60,4.94,-6.56,4.93,-6.57,6.00,5.95,5.78,10.94,10.93,11.50
43.03,4.93,-6.56,4.93,-6.56,6.00,5.95,5.76,10.93,10.93,11.49
43.46,4.91,-6.56,4.91,-6.56,6.00,5.96,5.74,10.91,10.91,11.47
43.90,4.90,-6.55,4.90,-6.55,6.00,5.96,5.72,10.90,10.90,11.45
44.33,4.90,-6.54,4.90,-6.54,6.00,5.96,5.71,10.90,10.90,11.43
44.78,4.90,-6.51,4.90,-6.51,6.00,5.96,5.70,10.90,10.90,11.41
45.23,4.90,-6.49,4.90,-6.49,6.00,5.96,5.70,10.90,10.90,11.39
45.68,4.91,-6.46,4.91,-6.46,6.00,5.97,5.70,10.91,10.91,11.37
46.13,4.92,-6.43,4.91,-6.43,6.00,5.97,5.70,10.92,10.91,11.34
46.60,4.91,-6.41,4.91,-6.41,6.00,5.97,5.71,10.91,10.91,11.32
47.06,4.90,-6.39,4.90,-6.39,6.00,5.98,5.73,10.90,10.90,11.29
47.53,4.88,-6.39,4.88,-6.39,6.00,5.98,5.74,10.88,10.88,11.27
48.01,4.86,-6.38,4.86,-6.38,6.00,5.98,5.76,10.86,10.86,11.24
48.49,4.84,-6.38,4.84,-6.37,6.00,5.99,5.79,10.84,10.84,11.22
48.97,4.83,-6.36,4.83,-6.36,6.00,5.99,5.82,10.83,10.83,11.19
49.46,4.83,-6.33,4.83,-6.33,6.00,5.99,5.85,10.83,10.83,11.16
49.96,4.83,-6.31,4.82,-6.31,6.00,6.00,5.88,10.83,10.82,11.14
50.46,4.81,-6.30,4.81,-6.30,6.00,6.00,5.92,10.81,10.81,11.11
50.96,4.79,-6.29,4.80,-6.29,6.00,6.00,5.96,10.79,10.80,11.09
51.47,4.78,-6.28,4.78,-6.28,6.00,6.01,6.00,10.78,10.78,11.06
51.99,4.77,-6.27,4.77,-6.26,6.00,6.01,6.04,10.77,10.77,11.03
52.51,4.76,-6.25,4.76,-6.25,6.00,6.01,6.09,10.76,10.76,11.01
53.03,4.75,-6.23,4.75,-6.23,6.00,6.02,6.13,10.75,10.75,10.98
53.56,4.73,-6.23,4.73,-6.23,6.00,6.02,6.18,10.73,10.73,10.96
54.10,4.71,-6.22,4.71,-6.22,6.00,6.02,6.22,10.71,10.71,10.93
54.64,4.70,-6.21,4.70,-6.20,6.00,6.02,6.27,10.70,10.70,10.90
55.18,4.70,-6.18,4.70,-6.18,6.00,6.02,6.31,10.70,10.70,10.88
55.74,4.71,-6.15,4.70,-6.15,6.00,6.02,6.35,10.71,10.71,10.85
56.29,4.71,-6.12,4.71,-6.12,6.01,6.02,6.39,10.71,10.71,10.83
56.86,4.70,-6.10,4.70,-6.11,6.01,6.02,6.42,10.71,10.70,10.80
57.42,4.68,-6.10,4.68,-6.10,6.00,6.02,6.45,10.68,10.68,10.78
58.00,4.66,-6.10,4.67,-6.09,6.00,6.02,6.48,10.65,10.66,10.75
58.58,4.67,-6.06,4.67,-6.06,5.98,6.01,6.49,10.65,10.65,10.73
59.16,4.68,-6.02,4.68,-6.01,5.97,6.01,6.51,10.65,10.66,10.70
59.76,4.71,-5.96,4.71,-5.96,5.96,6.00,6.52,10.67,10.67,10.67
60.35,4.72,-5.92,4.72,-5.92,5.94,6.00,6.52,10.67,10.66,10.64
60.96,4.72,-5.89,4.71,-5.90,5.92,5.99,6.51,10.64,10.64,10.61
61.57,4.69,-5.89,4.68,-5.89,5.90,5.98,6.50,10.59,10.58,10.57
62.18,4.65,-5.89,4.65,-5.88,5.87,5.97,6.48,10.52,10.52,10.54
62.80,4.63,-5.87,4.63,-5.87,5.84,5.96,6.45,10.46,10.47,10.50
63.43,4.62,-5.83,4.63,-5.83,5.80,5.95,6.41,10.43,10.43,10.46
64.07,4.63,-5.78,4.63,-5.78,5.78,5.93,6.37,10.41,10.41,10.41
64.71,4.65,-5.72,4.64,-5.73,5.75,5.92,6.32,10.39,10.39,10.37
65.35,4.64,-5.68,4.64,-5.69,5.72,5.90,6.26,10.36,10.36,10.32
66.01,4.62,-5.66,4.61,-5.66,5.69,5.88,6.19,10.31,10.31,10.28
66.67,4.57,-5.65,4.58,-5.65,5.66,5.86,6.12,10.23,10.24,10.23
67.33,4.53,-5.65,4.53,-5.64,5.63,5.84,6.04,10.16,10.16,10.18
68.01,4.50,-5.63,4.50,-5.63,5.59,5.81,5.95,10.09,10.09,10.13
68.69,4.49,-5.59,4.49,-5.59,5.55,5.79,5.86,10.04,10.05,10.08
69.37,4.50,-5.54,4.50,-5.53,5.51,5.76,5.77,10.01,10.01,10.03
70.07,4.52,-5.47,4.52,-5.47,5.47,5.73,5.67,9.99,9.99,9.99
70.77,4.54,-5.40,4.53,-5.41,5.43,5.70,5.57,9.97,9.97,9.94
71.48,4.54,-5.36,4.54,-5.36,5.40,5.67,5.46,9.93,9.93,9.90
72.19,4.52,-5.33,4.52,-5.33,5.36,5.63,5.36,9.89,9.89,9.85
72.91,4.49,-5.32,4.49,-5.32,5.34,5.59,5.25,9.83,9.83,9.81
73.64,4.45,-5.33,4.45,-5.32,5.32,5.56,5.14,9.77,9.78,9.78
74.38,4.41,-5.33,4.41,-5.33,5.31,5.51,5.03,9.72,9.72,9.74
75.12,4.38,-5.32,4.38,-5.32,5.30,5.47,4.92,9.68,9.68,9.70
75.87,4.37,-5.30,4.37,-5.30,5.28,5.43,4.80,9.65,9.65,9.67
76.63,4.36,-5.27,4.36,-5.27,5.25,5.38,4.69,9.62,9.62,9.63
77.40,4.37,-5.23,4.37,-5.23,5.22,5.33,4.58,9.59,9.59,9.60
78.17,4.38,-5.18,4.38,-5.18,5.18,5.28,4.48,9.56,9.56,9.56
78.95,4.40,-5.13,4.40,-5.13,5.13,5.22,4.37,9.53,9.53,9.53
79.74,4.41,-5.08,4.41,-5.08,5.08,5.17,4.26,9.49,9.49,9.49
80.54,4.42,-5.03,4.42,-5.03,5.04,5.11,4.16,9.46,9.46,9.45
81.35,4.42,-4.99,4.41,-4.99,5.01,5.05,4.06,9.42,9.42,9.41
82.16,4.40,-4.96,4.40,-4.96,4.98,4.99,3.96,9.38,9.38,9.36
82.98,4.36,-4.94,4.36,-4.94,4.96,4.92,3.86,9.32,9.32,9.31
83.81,4.31,-4.94,4.31,-4.94,4.94,4.86,3.76,9.26,9.26,9.25
84.65,4.25,-4.94,4.25,-4.94,4.93,4.79,3.67,9.18,9.19,9.19
85.50,4.19,-4.93,4.19,-4.93,4.92,4.72,3.58,9.11,9.12,9.12
86.35,4.13,-4.92,4.13,-4.92,4.91,4.65,3.49,9.05,9.05,9.05
87.22,4.08,-4.90,4.08,-4.90,4.90,4.58,3.40,8.98,8.97,8.97
88.09,4.02,-4.87,4.02,-4.87,4.87,4.50,3.32,8.89,8.89,8.89
88.97,3.96,-4.83,3.96,-4.83,4.83,4.42,3.24,8.79,8.79,8.80
89.86,3.91,-4.79,3.91,-4.79,4.78,4.35,3.16,8.68,8.68,8.70
90.76,3.86,-4.73,3.86,-4.73,4.71,4.27,3.09,8.57,8.57,8.59
91.66,3.83,-4.65,3.83,-4.65,4.63,4.18,3.01,8.46,8.46,8.48
92.58,3.81,-4.55,3.81,-4.55,4.54,4.10,2.94,8.35,8.35,8.36
93.51,3.81,-4.43,3.80,-4.43,4.44,4.02,2.87,8.24,8.24,8.24
94.44,3.79,-4.31,3.79,-4.32,4.33,3.93,2.81,8.13,8.12,8.11
95.39,3.77,-4.20,3.77,-4.20,4.23,3.85,2.74,8.00,7.99,7.97
96.34,3.74,-4.10,3.74,-4.10,4.12,3.76,2.68,7.86,7.85,7.84
97.30,3.70,-4.00,3.70,-4.00,4.01,3.67,2.62,7.71,7.71,7.69
98.28,3.65,-3.90,3.65,-3.90,3.91,3.58,2.56,7.56,7.56,7.55
99.26,3.61,-3.80,3.61,-3.80,3.80,3.49,2.50,7.41,7.41,7.40
100.25,3.57,-3.69,3.57,-3.69,3.68,3.40,2.45,7.25,7.25,7.26
101.25,3.53,-3.57,3.54,-3.57,3.55,3.31,2.40,7.09,7.09,7.11
102.27,3.52,-3.44,3.52,-3.44,3.40,3.21,2.35,6.92,6.92,6.96
103.29,3.52,-3.28,3.53,-3.28,3.23,3.12,2.29,6.75,6.76,6.81
104.32,3.55,-3.10,3.56,-3.09,3.04,3.03,2.25,6.60,6.60,6.65
105.37,3.62,-2.89,3.62,-2.88,2.85,2.93,2.20,6.47,6.47,6.50
106.42,3.69,-2.67,3.69,-2.66,2.67,2.84,2.15,6.36,6.36,6.35
107.48,3.76,-2.45,3.75,-2.45,2.51,2.74,2.11,6.27,6.26,6.21
108.56,3.78,-2.28,3.78,-2.28,2.37,2.65,2.06,6.15,6.15,6.06
109.64,3.75,-2.16,3.75,-2.17,2.26,2.55,2.02,6.01,6.01,5.92
110.74,3.68,-2.10,3.67,-2.11,2.18,2.46,1.98,5.85,5.84,5.77
111.85,3.54,-2.09,3.54,-2.09,2.11,2.36,1.93,5.65,5.65,5.63
112.97,3.40,-2.10,3.40,-2.10,2.05,2.27,1.89,5.46,5.46,5.50
114.10,3.28,-2.09,3.29,-2.08,1.99,2.17,1.85,5.27,5.29,5.37
115.24,3.22,-2.02,3.23,-2.01,1.92,2.08,1.80,5.14,5.15,5.24
116.39,3.23,-1.89,3.22,-1.90,1.83,1.99,1.76,5.06,5.05,5.12
117.55,3.25,-1.75,3.26,-1.74,1.72,1.89,1.72,4.97,4.98,5.00
118.73,3.31,-1.58,3.31,-1.58,1.59,1.80,1.67,4.90,4.90,4.89
119.92,3.37,-1.41,3.36,-1.42,1.45,1.71,1.63,4.82,4.81,4.78
121.12,3.41,-1.27,3.40,-1.27,1.31,1.61,1.59,4.72,4.72,4.67
122.33,3.43,-1.15,3.42,-1.15,1.19,1.52,1.54,4.61,4.61,4.57
123.55,3.42,-1.06,3.43,-1.05,1.07,1.43,1.49,4.50,4.50,4.48
124.79,3.41,-0.98,3.41,-0.98,0.98,1.34,1.45,4.39,4.39,4.39
126.03,3.39,-0.92,3.39,-0.91,0.91,1.25,1.40,4.30,4.30,4.30
127.29,3.36,-0.86,3.36,-0.86,0.85,1.16,1.35,4.21,4.21,4.22
128.57,3.34,-0.80,3.34,-0.80,0.80,1.07,1.30,4.13,4.14,4.14
129.85,3.31,-0.76,3.31,-0.75,0.76,0.99,1.25,4.06,4.07,4.06
131.15,3.28,-0.71,3.28,-0.71,0.72,0.90,1.20,4.00,3.99,3.99
132.46,3.24,-0.67,3.24,-0.67,0.68,0.81,1.14,3.92,3.92,3.91
133.79,3.20,-0.64,3.20,-0.64,0.64,0.73,1.09,3.84,3.84,3.84
135.12,3.16,-0.61,3.16,-0.61,0.59,0.64,1.03,3.75,3.75,3.77
136.48,3.13,-0.57,3.13,-0.57,0.55,0.56,0.98,3.67,3.68,3.70
137.84,3.11,-0.51,3.11,-0.51,0.50,0.48,0.92,3.61,3.61,3.62
139.22,3.10,-0.45,3.10,-0.45,0.44,0.39,0.86,3.54,3.54,3.55
140.61,3.09,-0.38,3.09,-0.38,0.39,0.31,0.80,3.48,3.48,3.47
142.02,3.08,-0.31,3.08,-0.31,0.33,0.23,0.74,3.41,3.41,3.39
143.44,3.06,-0.25,3.06,-0.25,0.27,0.15,0.68,3.33,3.33,3.31
144.87,3.03,-0.20,3.03,-0.20,0.21,0.07,0.62,3.25,3.24,3.23
146.32,2.99,-0.15,3.00,-0.15,0.16,-0.01,0.55,3.15,3.15,3.15
147.78,2.95,-0.10,2.95,-0.10,0.10,-0.09,0.49,3.05,3.05,3.06
149.26,2.91,-0.05,2.91,-0.05,0.04,-0.17,0.43,2.95,2.95,2.96
150.75,2.88,0.01,2.88,0.01,-0.02,-0.25,0.36,2.85,2.85,2.87
152.26,2.84,0.08,2.85,0.08,-0.09,-0.33,0.30,2.75,2.75,2.76
153.78,2.82,0.16,2.82,0.16,-0.16,-0.41,0.23,2.65,2.65,2.66
155.32,2.79,0.24,2.79,0.24,-0.24,-0.49,0.17,2.55,2.55,2.55
156.88,2.76,0.33,2.76,0.33,-0.32,-0.57,0.10,2.44,2.44,2.43
158.44,2.73,0.41,2.73,0.41,-0.41,-0.65,0.03,2.32,2.32,2.31
160.03,2.69,0.50,2.69,0.50,-0.49,-0.72,-0.04,2.20,2.20,2.19
161.63,2.65,0.58,2.65,0.58,-0.58,-0.80,-0.11,2.07,2.07,2.07
163.24,2.61,0.67,2.61,0.67,-0.67,-0.88,-0.17,1.94,1.94,1.94
164.88,2.57,0.76,2.57,0.76,-0.76,-0.96,-0.25,1.81,1.81,1.81
166.53,2.53,0.85,2.53,0.85,-0.85,-1.04,-0.32,1.67,1.67,1.68
168.19,2.49,0.95,2.49,0.95,-0.95,-1.11,-0.39,1.54,1.54,1.54
169.87,2.45,1.05,2.45,1.05,-1.05,-1.19,-0.46,1.40,1.40,1.40
171.57,2.42,1.15,2.42,1.15,-1.15,-1.27,-0.53,1.26,1.26,1.27
173.29,2.38,1.25,2.38,1.25,-1.25,-1.35,-0.60,1.12,1.12,1.13
175.02,2.34,1.36,2.34,1.36,-1.36,-1.42,-0.68,0.98,0.98,0.98
176.77,2.31,1.47,2.31,1.47,-1.47,-1.50,-0.75,0.84,0.84,0.84
178.54,2.27,1.57,2.27,1.57,-1.58,-1.57,-0.83,0.69,0.69,0.70
180.32,2.24,1.68,2.24,1.68,-1.68,-1.65,-0.90,0.55,0.55,0.55
182.13,2.20,1.79,2.20,1.79,-1.79,-1.72,-0.98,0.41,0.41,0.41
183.95,2.16,1.90,2.16,1.90,-1.90,-1.80,-1.06,0.27,0.27,0.26
185.79,2.12,2.00,2.12,2.00,-2.00,-1.87,-1.14,0.13,0.13,0.12
187.65,2.08,2.09,2.08,2.09,-2.09,-1.94,-1.21,-0.01,-0.01,-0.01
189.52,2.04,2.18,2.04,2.18,-2.18,-2.01,-1.29,-0.14,-0.14,-0.15
191.42,1.99,2.27,1.99,2.27,-2.26,-2.08,-1.37,-0.27,-0.27,-0.28
193.33,1.95,2.34,1.95,2.34,-2.34,-2.14,-1.45,-0.39,-0.40,-0.40
195.27,1.90,2.41,1.90,2.41,-2.41,-2.21,-1.53,-0.51,-0.51,-0.51
197.22,1.85,2.47,1.85,2.47,-2.47,-2.27,-1.61,-0.62,-0.62,-0.62
199.19,1.81,2.53,1.81,2.53,-2.53,-2.33,-1.69,-0.72,-0.72,-0.72
201.18,1.77,2.58,1.77,2.58,-2.58,-2.39,-1.78,-0.81,-0.81,-0.81
203.19,1.73,2.62,1.73,2.62,-2.62,-2.44,-1.86,-0.89,-0.89,-0.90
205.23,1.69,2.66,1.69,2.66,-2.65,-2.49,-1.94,-0.97,-0.97,-0.97
207.28,1.64,2.69,1.64,2.69,-2.68,-2.54,-2.01,-1.04,-1.04,-1.04
209.35,1.60,2.70,1.60,2.71,-2.70,-2.59,-2.09,-1.11,-1.11,-1.11
211.44,1.55,2.72,1.55,2.72,-2.72,-2.63,-2.17,-1.17,-1.16,-1.17
213.56,1.51,2.73,1.51,2.72,-2.72,-2.67,-2.25,-1.22,-1.22,-1.22
215.69,1.46,2.73,1.46,2.73,-2.73,-2.70,-2.32,-1.26,-1.26,-1.26
217.85,1.42,2.73,1.42,2.73,-2.73,-2.73,-2.39,-1.31,-1.31,-1.31
220.03,1.38,2.73,1.38,2.73,-2.73,-2.76,-2.46,-1.35,-1.34,-1.34
222.23,1.35,2.72,1.35,2.72,-2.73,-2.78,-2.53,-1.38,-1.38,-1.38
224.45,1.31,2.72,1.31,2.72,-2.72,-2.80,-2.59,-1.41,-1.41,-1.41
226.70,1.28,2.72,1.28,2.72,-2.72,-2.81,-2.65,-1.44,-1.44,-1.44
228.96,1.25,2.72,1.25,2.72,-2.72,-2.82,-2.71,-1.46,-1.46,-1.46
231.25,1.23,2.71,1.23,2.71,-2.71,-2.82,-2.76,-1.49,-1.49,-1.49
233.57,1.20,2.71,1.20,2.71,-2.71,-2.82,-2.81,-1.51,-1.51,-1.51
235.90,1.17,2.71,1.17,2.71,-2.70,-2.82,-2.85,-1.53,-1.53,-1.54
238.26,1.14,2.70,1.14,2.70,-2.69,-2.81,-2.89,-1.55,-1.55,-1.56
240.64,1.11,2.69,1.11,2.69,-2.68,-2.80,-2.93,-1.57,-1.57,-1.58
243.05,1.07,2.67,1.07,2.67,-2.66,-2.79,-2.96,-1.59,-1.59,-1.60
245.48,1.04,2.65,1.04,2.65,-2.64,-2.77,-2.98,-1.61,-1.61,-1.61
247.93,1.00,2.63,1.00,2.63,-2.62,-2.75,-2.99,-1.62,-1.63,-1.63
250.41,0.96,2.60,0.96,2.60,-2.60,-2.72,-3.00,-1.64,-1.64,-1.64
252.92,0.92,2.57,0.93,2.57,-2.58,-2.69,-3.01,-1.66,-1.66,-1.65
255.45,0.90,2.55,0.90,2.55,-2.57,-2.66,-3.01,-1.67,-1.67,-1.65
258.00,0.89,2.54,0.89,2.54,-2.55,-2.63,-3.00,-1.67,-1.67,-1.66
260.58,0.88,2.54,0.88,2.53,-2.54,-2.59,-2.99,-1.66,-1.66,-1.65
263.19,0.88,2.53,0.88,2.53,-2.53,-2.55,-2.97,-1.65,-1.65,-1.65
265.82,0.87,2.52,0.87,2.52,-2.51,-2.51,-2.95,-1.64,-1.64,-1.64
268.48,0.87,2.50,0.87,2.50,-2.49,-2.47,-2.92,-1.63,-1.63,-1.64
271.16,0.85,2.48,0.85,2.48,-2.47,-2.43,-2.89,-1.62,-1.62,-1.62
273.87,0.84,2.45,0.84,2.45,-2.44,-2.38,-2.85,-1.61,-1.61,-1.61
276.61,0.81,2.41,0.81,2.41,-2.41,-2.34,-2.81,-1.60,-1.60,-1.60
279.38,0.79,2.37,0.79,2.37,-2.37,-2.29,-2.77,-1.58,-1.58,-1.58
282.17,0.76,2.32,0.76,2.32,-2.32,-2.24,-2.72,-1.56,-1.56,-1.56
284.99,0.73,2.27,0.73,2.27,-2.27,-2.20,-2.67,-1.54,-1.54,-1.54
287.84,0.70,2.22,0.70,2.22,-2.22,-2.15,-2.62,-1.52,-1.52,-1.52
290.72,0.66,2.16,0.66,2.16,-2.16,-2.10,-2.57,-1.49,-1.49,-1.50
293.63,0.63,2.10,0.63,2.10,-2.10,-2.05,-2.51,-1.47,-1.47,-1.47
296.57,0.59,2.04,0.59,2.04,-2.04,-2.01,-2.46,-1.44,-1.44,-1.44
299.53,0.56,1.97,0.56,1.97,-1.97,-1.96,-2.40,-1.42,-1.42,-1.42
302.53,0.52,1.91,0.52,1.91,-1.91,-1.91,-2.34,-1.39,-1.39,-1.39
305.55,0.48,1.85,0.48,1.85,-1.85,-1.86,-2.28,-1.37,-1.37,-1.37
308.61,0.44,1.79,0.45,1.79,-1.79,-1.82,-2.22,-1.35,-1.35,-1.34
311.69,0.41,1.74,0.41,1.74,-1.74,-1.77,-2.16,-1.33,-1.33,-1.32
314.81,0.38,1.69,0.38,1.69,-1.69,-1.73,-2.10,-1.32,-1.32,-1.31
317.96,0.34,1.65,0.34,1.65,-1.65,-1.68,-2.04,-1.31,-1.31,-1.31
321.14,0.31,1.61,0.31,1.61,-1.62,-1.64,-1.98,-1.31,-1.31,-1.30
324.35,0.28,1.58,0.28,1.58,-1.58,-1.60,-1.93,-1.31,-1.31,-1.31
327.59,0.24,1.56,0.24,1.56,-1.56,-1.55,-1.87,-1.31,-1.31,-1.31
330.87,0.21,1.53,0.21,1.53,-1.53,-1.51,-1.81,-1.32,-1.32,-1.32
334.18,0.18,1.51,0.18,1.51,-1.51,-1.47,-1.76,-1.33,-1.33,-1.33
337.52,0.14,1.49,0.14,1.49,-1.49,-1.43,-1.70,-1.34,-1.34,-1.35
340.90,0.11,1.47,0.11,1.47,-1.47,-1.40,-1.65,-1.35,-1.35,-1.36
344.30,0.08,1.44,0.08,1.44,-1.44,-1.36,-1.60,-1.36,-1.36,-1.36
347.75,0.05,1.42,0.05,1.42,-1.41,-1.32,-1.55,-1.37,-1.37,-1.37
351.23,0.02,1.39,0.02,1.39,-1.38,-1.29,-1.50,-1.37,-1.37,-1.37
354.74,-0.01,1.35,-0.01,1.35,-1.35,-1.25,-1.45,-1.36,-1.36,-1.36
358.28,-0.04,1.32,-0.04,1.32,-1.31,-1.22,-1.40,-1.35,-1.35,-1.36
361.87,-0.07,1.28,-0.07,1.28,-1.27,-1.18,-1.35,-1.34,-1.34,-1.35
365.49,-0.10,1.23,-0.10,1.23,-1.23,-1.15,-1.31,-1.33,-1.33,-1.33
369.14,-0.13,1.19,-0.13,1.19,-1.19,-1.12,-1.26,-1.31,-1.32,-1.32
372.83,-0.16,1.14,-0.16,1.14,-1.14,-1.09,-1.22,-1.30,-1.30,-1.30
376.56,-0.19,1.09,-0.19,1.09,-1.10,-1.06,-1.18,-1.28,-1.28,-1.28
380.33,-0.22,1.05,-0.22,1.05,-1.05,-1.03,-1.14,-1.27,-1.27,-1.27
384.13,-0.25,1.01,-0.25,1.01,-1.01,-1.00,-1.10,-1.25,-1.25,-1.25
387.97,-0.27,0.97,-0.27,0.97,-0.97,-0.98,-1.06,-1.24,-1.24,-1.24
391.85,-0.30,0.93,-0.30,0.93,-0.93,-0.95,-1.02,-1.23,-1.23,-1.23
395.77,-0.32,0.90,-0.32,0.90,-0.90,-0.92,-0.99,-1.22,-1.22,-1.22
399.73,-0.35,0.87,-0.35,0.87,-0.87,-0.90,-0.95,-1.22,-1.22,-1.22
403.72,-0.38,0.84,-0.38,0.84,-0.85,-0.88,-0.92,-1.22,-1.22,-1.22
407.76,-0.40,0.82,-0.40,0.82,-0.83,-0.85,-0.88,-1.23,-1.23,-1.23
411.84,-0.43,0.81,-0.43,0.81,-0.81,-0.83,-0.85,-1.24,-1.24,-1.24
415.96,-0.45,0.79,-0.45,0.80,-0.80,-0.81,-0.82,-1.25,-1.25,-1.25
420.12,-0.48,0.78,-0.48,0.78,-0.78,-0.79,-0.79,-1.26,-1.26,-1.26
424.32,-0.50,0.77,-0.50,0.77,-0.77,-0.77,-0.76,-1.27,-1.27,-1.27
428.56,-0.53,0.76,-0.53,0.76,-0.76,-0.75,-0.73,-1.28,-1.28,-1.29
432.85,-0.55,0.74,-0.55,0.74,-0.74,-0.73,-0.71,-1.29,-1.29,-1.29
437.18,-0.57,0.72,-0.57,0.72,-0.72,-0.71,-0.68,-1.29,-1.29,-1.30
441.55,-0.60,0.70,-0.60,0.70,-0.69,-0.69,-0.66,-1.28,-1.28,-1.29
445.96,-0.62,0.67,-0.62,0.66,-0.66,-0.67,-0.63,-1.27,-1.27,-1.28
450.42,-0.64,0.63,-0.64,0.63,-0.62,-0.66,-0.61,-1.26,-1.26,-1.27
454.93,-0.66,0.58,-0.66,0.58,-0.58,-0.64,-0.59,-1.24,-1.24,-1.25
459.48,-0.68,0.54,-0.68,0.54,-0.54,-0.62,-0.56,-1.22,-1.22,-1.22
464.07,-0.70,0.50,-0.70,0.50,-0.50,-0.61,-0.54,-1.21,-1.21,-1.20
468.71,-0.73,0.46,-0.73,0.46,-0.47,-0.59,-0.52,-1.19,-1.19,-1.19
473.40,-0.75,0.43,-0.75,0.43,-0.43,-0.58,-0.51,-1.18,-1.18,-1.17
478.13,-0.77,0.40,-0.77,0.40,-0.41,-0.57,-0.49,-1.18,-1.18,-1.17
482.91,-0.78,0.39,-0.78,0.39,-0.39,-0.55,-0.47,-1.18,-1.18,-1.17
487.74,-0.80,0.38,-0.80,0.38,-0.38,-0.54,-0.46,-1.18,-1.18,-1.18
492.62,-0.82,0.37,-0.82,0.37,-0.38,-0.53,-0.44,-1.20,-1.20,-1.19
497.55,-0.84,0.38,-0.84,0.38,-0.38,-0.51,-0.43,-1.21,-1.21,-1.21
502.52,-0.85,0.38,-0.85,0.38,-0.38,-0.50,-0.41,-1.24,-1.24,-1.24
