frequency,raw,error,smoothed,error_smoothed,equalization,parametric_eq,fixed_band_eq,equalized_raw,equalized_smoothed,target
20.00,7.92,-6.19,7.90,-6.22,6.26,5.62,1.51,14.18,14.16,14.12
20.20,7.98,-6.10,8.00,-6.08,5.99,5.60,1.55,13.98,13.99,14.08
20.40,8.12,-5.93,8.15,-5.90,5.73,5.58,1.60,13.85,13.88,14.05
20.61,8.33,-5.69,8.34,-5.68,5.49,5.45,1.65,13.82,13.83,14.02
20.81,8.60,-5.39,8.59,-5.39,5.26,5.31,1.70,13.86,13.86,13.98
21.02,8.86,-5.09,8.86,-5.09,5.05,5.14,1.75,13.91,13.91,13.95
21.23,9.11,-4.81,9.10,-4.81,4.85,4.96,1.80,13.96,13.95,13.92
21.44,9.31,-4.57,9.30,-4.58,4.66,4.80,1.86,13.97,13.97,13.88
21.66,9.46,-4.39,9.46,-4.39,4.45,4.63,1.92,13.90,13.91,13.85
21.87,9.58,-4.23,9.58,-4.24,4.27,4.50,1.97,13.85,13.84,13.81
22.09,9.66,-4.12,9.66,-4.12,4.12,4.37,2.03,13.78,13.78,13.77
22.31,9.71,-4.03,9.71,-4.02,4.01,4.27,2.09,13.72,13.73,13.74
22.54,9.75,-3.95,9.75,-3.95,3.92,4.17,2.16,13.67,13.68,13.70
22.76,9.78,-3.88,9.78,-3.88,3.85,4.10,2.22,13.63,13.63,13.66
22.99,9.81,-3.81,9.81,-3.81,3.79,4.03,2.29,13.59,13.60,13.62
23.22,9.83,-3.75,9.83,-3.75,3.73,3.99,2.36,13.56,13.56,13.58
23.45,9.84,-3.70,9.85,-3.70,3.69,3.94,2.42,13.54,13.54,13.55
23.69,9.84,-3.66,9.84,-3.66,3.67,3.91,2.49,13.51,13.51,13.50
23.92,9.82,-3.65,9.81,-3.65,3.68,3.87,2.57,13.49,13.49,13.46
24.16,9.76,-3.66,9.75,-3.67,3.71,3.85,2.64,13.47,13.46,13.42
24.40,9.66,-3.72,9.65,-3.72,3.78,3.83,2.71,13.43,13.43,13.38
24.65,9.52,-3.81,9.52,-3.81,3.87,3.81,2.79,13.39,13.39,13.33
24.89,9.36,-3.93,9.35,-3.94,3.98,3.79,2.86,13.34,13.34,13.29
25.14,9.18,-4.07,9.17,-4.08,4.10,3.77,2.94,13.27,13.27,13.25
25.39,8.99,-4.22,9.00,-4.21,4.19,3.75,3.01,13.19,13.19,13.21
25.65,8.86,-4.32,8.85,-4.32,4.26,3.72,3.09,13.11,13.11,13.17
25.91,8.77,-4.37,8.77,-4.37,4.27,3.70,3.16,13.04,13.04,13.13
26.16,8.75,-4.34,8.77,-4.33,4.22,3.68,3.24,12.97,12.99,13.10
26.43,8.84,-4.22,8.85,-4.21,4.11,3.65,3.31,12.95,12.96,13.06
26.69,9.01,-4.01,9.00,-4.01,3.95,3.62,3.38,12.95,12.95,13.01
26.96,9.21,-3.76,9.21,-3.76,3.75,3.59,3.45,12.95,12.96,12.97
27.23,9.43,-3.49,9.43,-3.50,3.53,3.55,3.52,12.96,12.96,12.92
27.50,9.63,-3.25,9.63,-3.25,3.32,3.51,3.59,12.95,12.94,12.88
27.77,9.78,-3.05,9.78,-3.05,3.13,3.47,3.65,12.92,12.91,12.83
28.05,9.88,-2.90,9.87,-2.92,2.99,3.43,3.71,12.88,12.87,12.79
28.33,9.90,-2.85,9.90,-2.85,2.91,3.38,3.76,12.81,12.81,12.75
28.62,9.87,-2.83,9.87,-2.84,2.89,3.33,3.82,12.76,12.75,12.70
28.90,9.78,-2.88,9.78,-2.88,2.92,3.27,3.86,12.70,12.70,12.66
29.19,9.66,-2.95,9.66,-2.95,2.99,3.22,3.90,12.65,12.65,12.61
29.48,9.52,-3.05,9.52,-3.05,3.07,3.15,3.93,12.59,12.59,12.57
29.78,9.37,-3.15,9.37,-3.15,3.15,3.09,3.96,12.52,12.51,12.52
30.08,9.23,-3.24,9.23,-3.24,3.19,3.03,3.98,12.42,12.41,12.47
30.38,9.13,-3.29,9.14,-3.28,3.17,2.96,3.99,12.30,12.31,12.42
30.68,9.11,-3.26,9.13,-3.24,3.09,2.90,4.00,12.20,12.22,12.37
30.99,9.22,-3.11,9.22,-3.11,2.95,2.83,4.00,12.17,12.17,12.33
31.30,9.40,-2.88,9.41,-2.87,2.77,2.75,3.99,12.17,12.18,12.28
31.61,9.65,-2.59,9.65,-2.59,2.58,2.68,3.97,12.22,12.23,12.24
31.93,9.91,-2.28,9.89,-2.30,2.40,2.61,3.94,12.30,12.29,12.19
32.24,10.07,-2.07,10.07,-2.07,2.26,2.54,3.91,12.33,12.33,12.14
32.57,10.16,-1.93,10.13,-1.96,2.18,2.46,3.87,12.34,12.31,12.09
32.89,10.08,-1.96,10.07,-1.98,2.16,2.39,3.83,12.24,12.22,12.04
33.22,9.89,-2.10,9.89,-2.11,2.18,2.31,3.77,12.07,12.07,12.00
33.55,9.65,-2.30,9.65,-2.30,2.24,2.24,3.71,11.89,11.89,11.95
33.89,9.42,-2.48,9.44,-2.46,2.31,2.17,3.64,11.73,11.75,11.90
34.23,9.30,-2.56,9.31,-2.54,2.37,2.09,3.57,11.67,11.68,11.85
34.57,9.26,-2.54,9.28,-2.52,2.41,2.02,3.50,11.66,11.68,11.80
34.92,9.34,-2.41,9.33,-2.42,2.39,1.94,3.41,11.73,11.72,11.75
35.27,9.43,-2.27,9.42,-2.28,2.32,1.87,3.33,11.76,11.74,11.70
35.62,9.52,-2.14,9.51,-2.15,2.20,1.80,3.24,11.72,11.71,11.66
35.97,9.58,-2.02,9.59,-2.02,2.04,1.73,3.14,11.63,11.63,11.61
36.33,9.66,-1.90,9.67,-1.89,1.86,1.66,3.05,11.53,11.53,11.56
36.70,9.77,-1.73,9.78,-1.72,1.68,1.59,2.95,11.46,11.47,11.51
37.06,9.92,-1.54,9.92,-1.53,1.51,1.52,2.85,11.43,11.43,11.46
37.43,10.08,-1.32,10.07,-1.33,1.35,1.45,2.74,11.43,11.42,11.40
37.81,10.20,-1.14,10.20,-1.14,1.19,1.38,2.64,11.39,11.40,11.34
38.19,10.31,-0.98,10.29,-1.00,1.05,1.32,2.53,11.36,11.34,11.29
38.57,10.33,-0.90,10.33,-0.90,0.92,1.25,2.43,11.25,11.25,11.23
38.95,10.34,-0.83,10.35,-0.82,0.81,1.19,2.32,11.15,11.15,11.17
39.34,10.35,-0.77,10.35,-0.76,0.72,1.12,2.22,11.07,11.07,11.11
39.74,10.37,-0.69,10.37,-0.69,0.66,1.06,2.11,11.03,11.04,11.06
40.14,10.39,-0.63,10.39,-0.63,0.63,1.00,2.00,11.02,11.03,11.02
40.54,10.40,-0.58,10.39,-0.59,0.63,0.94,1.89,11.03,11.02,10.98
40.94,10.35,-0.59,10.35,-0.59,0.65,0.88,1.79,11.00,11.00,10.94
41.35,10.26,-0.63,10.25,-0.63,0.68,0.82,1.68,10.94,10.93,10.88
41.76,10.12,-0.70,10.11,-0.70,0.73,0.76,1.58,10.84,10.84,10.82
42.18,9.96,-0.79,9.96,-0.79,0.78,0.70,1.47,10.73,10.73,10.75
42.60,9.81,-0.87,9.81,-0.86,0.82,0.64,1.37,10.63,10.64,10.68
43.03,9.70,-0.91,9.71,-0.91,0.85,0.59,1.26,10.55,10.56,10.62
43.46,9.66,-0.91,9.66,-0.91,0.85,0.53,1.16,10.51,10.51,10.57
43.90,9.65,-0.87,9.65,-0.87,0.83,0.48,1.06,10.48,10.48,10.52
44.33,9.68,-0.79,9.68,-0.79,0.77,0.42,0.95,10.44,10.44,10.47
44.78,9.73,-0.68,9.73,-0.69,0.68,0.37,0.85,10.41,10.40,10.41
45.23,9.79,-0.56,9.79,-0.56,0.57,0.32,0.75,10.36,10.36,10.35
45.68,9.85,-0.44,9.85,-0.44,0.45,0.27,0.65,10.30,10.30,10.29
46.13,9.91,-0.32,9.91,-0.32,0.34,0.22,0.55,10.25,10.25,10.23
46.60,9.96,-0.21,9.96,-0.21,0.24,0.17,0.46,10.20,10.20,10.17
47.06,10.00,-0.12,10.00,-0.12,0.15,0.12,0.36,10.15,10.15,10.12
47.53,10.02,-0.04,10.02,-0.05,0.07,0.07,0.26,10.09,10.09,10.06
48.01,10.02,0.00,10.02,0.00,0.01,0.02,0.17,10.03,10.03,10.02
48.49,10.01,0.04,10.01,0.04,-0.04,-0.03,0.07,9.97,9.97,9.97
48.97,9.99,0.07,9.99,0.07,-0.08,-0.07,-0.02,9.90,9.90,9.91
49.46,9.96,0.10,9.97,0.11,-0.12,-0.12,-0.11,9.84,9.84,9.86
49.96,9.95,0.14,9.95,0.15,-0.16,-0.17,-0.20,9.79,9.79,9.81
50.46,9.94,0.19,9.94,0.19,-0.20,-0.21,-0.29,9.74,9.74,9.75
50.96,9.94,0.25,9.94,0.25,-0.25,-0.26,-0.38,9.69,9.69,9.69
51.47,9.94,0.30,9.94,0.30,-0.30,-0.30,-0.47,9.64,9.64,9.63
51.99,9.93,0.36,9.93,0.36,-0.35,-0.34,-0.55,9.58,9.58,9.57
52.51,9.92,0.41,9.92,0.41,-0.41,-0.39,-0.64,9.51,9.51,9.51
53.03,9.91,0.46,9.92,0.47,-0.48,-0.43,-0.72,9.44,9.44,9.45
53.56,9.91,0.53,9.91,0.53,-0.54,-0.47,-0.80,9.37,9.37,9.39
54.10,9.91,0.59,9.91,0.59,-0.60,-0.51,-0.87,9.32,9.32,9.32
54.64,9.92,0.66,9.92,0.66,-0.65,-0.55,-0.95,9.27,9.27,9.26
55.18,9.92,0.72,9.92,0.72,-0.70,-0.59,-1.02,9.22,9.22,9.20
55.74,9.91,0.76,9.91,0.76,-0.75,-0.63,-1.09,9.17,9.16,9.15
56.29,9.89,0.79,9.89,0.79,-0.78,-0.67,-1.15,9.11,9.11,9.10
56.86,9.86,0.81,9.86,0.81,-0.81,-0.71,-1.22,9.05,9.05,9.05
57.42,9.82,0.83,9.82,0.83,-0.82,-0.74,-1.27,8.99,8.99,8.99
58.00,9.77,0.84,9.77,0.84,-0.83,-0.78,-1.33,8.94,8.94,8.94
58.58,9.72,0.84,9.72,0.84,-0.84,-0.81,-1.38,8.88,8.88,8.88
59.16,9.67,0.84,9.67,0.84,-0.85,-0.85,-1.42,8.82,8.82,8.83
59.76,9.62,0.85,9.63,0.85,-0.86,-0.88,-1.46,8.76,8.76,8.78
60.35,9.58,0.86,9.58,0.87,-0.87,-0.91,-1.50,8.71,8.71,8.72
60.96,9.54,0.89,9.54,0.89,-0.88,-0.94,-1.53,8.66,8.66,8.65
61.57,9.50,0.92,9.50,0.91,-0.90,-0.97,-1.55,8.60,8.60,8.59
62.18,9.46,0.93,9.46,0.93,-0.92,-1.00,-1.57,8.54,8.54,8.53
62.80,9.42,0.94,9.42,0.95,-0.95,-1.03,-1.59,8.47,8.47,8.47
63.43,9.38,0.97,9.38,0.97,-0.98,-1.06,-1.60,8.40,8.40,8.41
64.07,9.35,1.00,9.35,1.00,-1.02,-1.08,-1.60,8.33,8.33,8.35
64.71,9.34,1.05,9.34,1.05,-1.06,-1.10,-1.60,8.28,8.28,8.29
65.35,9.33,1.10,9.33,1.10,-1.10,-1.13,-1.60,8.23,8.23,8.23
66.01,9.33,1.16,9.33,1.15,-1.14,-1.15,-1.59,8.19,8.18,8.17
66.67,9.31,1.20,9.31,1.20,-1.18,-1.17,-1.57,8.13,8.13,8.11
67.33,9.28,1.23,9.28,1.23,-1.21,-1.18,-1.55,8.07,8.07,8.05
68.01,9.24,1.25,9.24,1.25,-1.24,-1.20,-1.53,8.01,8.00,7.99
68.69,9.19,1.25,9.19,1.26,-1.25,-1.21,-1.50,7.93,7.94,7.93
69.37,9.13,1.25,9.13,1.26,-1.26,-1.22,-1.47,7.87,7.87,7.87
70.07,9.06,1.25,9.07,1.25,-1.25,-1.23,-1.44,7.81,7.81,7.81
70.77,9.00,1.24,9.00,1.25,-1.24,-1.24,-1.40,7.76,7.76,7.76
71.48,8.93,1.24,8.93,1.23,-1.23,-1.25,-1.36,7.71,7.70,7.70
72.19,8.86,1.22,8.86,1.22,-1.22,-1.25,-1.32,7.65,7.64,7.64
72.91,8.78,1.20,8.78,1.20,-1.21,-1.25,-1.28,7.57,7.58,7.58
73.64,8.71,1.18,8.71,1.19,-1.20,-1.25,-1.23,7.50,7.51,7.52
74.38,8.64,1.18,8.65,1.18,-1.20,-1.25,-1.18,7.44,7.44,7.46
75.12,8.59,1.19,8.60,1.19,-1.21,-1.24,-1.13,7.38,7.39,7.40
75.87,8.56,1.21,8.56,1.21,-1.22,-1.23,-1.08,7.34,7.34,7.35
76.63,8.52,1.24,8.52,1.24,-1.23,-1.22,-1.03,7.29,7.29,7.29
77.40,8.49,1.26,8.49,1.26,-1.24,-1.21,-0.98,7.25,7.24,7.23
78.17,8.44,1.27,8.44,1.27,-1.25,-1.20,-0.93,7.19,7.19,7.17
78.95,8.38,1.27,8.38,1.27,-1.26,-1.18,-0.87,7.13,7.12,7.11
79.74,8.31,1.26,8.31,1.26,-1.25,-1.16,-0.82,7.06,7.06,7.05
80.54,8.23,1.24,8.24,1.24,-1.24,-1.13,-0.76,6.99,7.00,7.00
81.35,8.15,1.22,8.15,1.22,-1.22,-1.11,-0.71,6.93,6.93,6.94
82.16,8.07,1.19,8.07,1.19,-1.19,-1.08,-0.65,6.87,6.87,6.88
82.98,7.98,1.16,7.98,1.16,-1.16,-1.05,-0.60,6.82,6.82,6.82
83.81,7.89,1.12,7.89,1.12,-1.12,-1.01,-0.54,6.76,6.76,6.76
84.65,7.79,1.08,7.79,1.08,-1.08,-0.98,-0.49,6.71,6.71,6.71
85.50,7.68,1.04,7.68,1.04,-1.04,-0.93,-0.43,6.65,6.65,6.65
86.35,7.57,0.99,7.57,0.99,-0.99,-0.89,-0.38,6.59,6.59,6.58
87.22,7.46,0.93,7.46,0.93,-0.93,-0.84,-0.32,6.53,6.53,6.52
88.09,7.34,0.87,7.34,0.87,-0.87,-0.80,-0.27,6.47,6.47,6.47
88.97,7.22,0.81,7.22,0.81,-0.81,-0.74,-0.21,6.41,6.41,6.41
89.86,7.10,0.74,7.10,0.74,-0.75,-0.69,-0.16,6.35,6.35,6.36
90.76,6.98,0.67,6.98,0.67,-0.68,-0.63,-0.10,6.30,6.30,6.30
91.66,6.85,0.61,6.85,0.61,-0.61,-0.57,-0.05,6.24,6.24,6.25
92.58,6.73,0.53,6.73,0.54,-0.54,-0.50,0.00,6.19,6.19,6.19
93.51,6.60,0.46,6.60,0.46,-0.46,-0.44,0.06,6.13,6.13,6.13
94.44,6.46,0.39,6.46,0.39,-0.38,-0.37,0.11,6.08,6.08,6.08
95.39,6.32,0.31,6.32,0.31,-0.29,-0.29,0.16,6.03,6.03,6.02
96.34,6.18,0.22,6.17,0.22,-0.20,-0.22,0.22,5.97,5.97,5.96
97.30,6.02,0.11,6.02,0.11,-0.11,-0.14,0.27,5.91,5.91,5.90
98.28,5.85,0.01,5.85,0.01,-0.00,-0.06,0.32,5.85,5.85,5.85
99.26,5.68,-0.10,5.69,-0.10,0.10,0.03,0.37,5.78,5.78,5.79
100.25,5.52,-0.21,5.52,-0.21,0.20,0.11,0.42,5.72,5.72,5.73
101.25,5.37,-0.31,5.37,-0.31,0.30,0.20,0.47,5.66,5.67,5.68
102.27,5.22,-0.40,5.22,-0.40,0.39,0.29,0.52,5.61,5.61,5.62
103.29,5.08,-0.48,5.08,-0.48,0.48,0.38,0.56,5.56,5.56,5.56
104.32,4.95,-0.56,4.95,-0.56,0.56,0.46,0.61,5.51,5.51,5.51
105.37,4.82,-0.64,4.82,-0.64,0.64,0.55,0.65,5.46,5.46,5.46
106.42,4.69,-0.71,4.69,-0.71,0.71,0.64,0.70,5.40,5.40,5.40
107.48,4.56,-0.78,4.56,-0.78,0.79,0.73,0.74,5.35,5.35,5.35
108.56,4.44,-0.85,4.44,-0.85,0.86,0.81,0.77,5.30,5.30,5.29
109.64,4.32,-0.92,4.32,-0.92,0.93,0.89,0.81,5.24,5.24,5.24
110.74,4.19,-0.99,4.19,-0.99,1.00,0.96,0.85,5.19,5.19,5.19
111.85,4.07,-1.06,4.07,-1.06,1.06,1.03,0.88,5.13,5.13,5.13
112.97,3.95,-1.12,3.95,-1.12,1.12,1.10,0.91,5.07,5.07,5.07
114.10,3.83,-1.19,3.83,-1.18,1.18,1.16,0.93,5.01,5.01,5.02
115.24,3.72,-1.24,3.73,-1.24,1.23,1.21,0.95,4.96,4.96,4.96
116.39,3.63,-1.28,3.63,-1.28,1.28,1.25,0.97,4.91,4.91,4.91
117.55,3.54,-1.31,3.55,-1.31,1.31,1.28,0.99,4.85,4.86,4.86
118.73,3.47,-1.34,3.47,-1.34,1.34,1.32,1.00,4.81,4.81,4.81
119.92,3.41,-1.36,3.40,-1.35,1.35,1.33,1.01,4.76,4.75,4.76
121.12,3.35,-1.36,3.35,-1.36,1.35,1.34,1.01,4.70,4.70,4.71
122.33,3.30,-1.35,3.30,-1.35,1.35,1.34,1.01,4.65,4.65,4.64
123.55,3.26,-1.33,3.26,-1.34,1.33,1.34,1.01,4.59,4.59,4.59
124.79,3.23,-1.32,3.23,-1.31,1.31,1.32,1.00,4.54,4.54,4.54
126.03,3.20,-1.29,3.20,-1.29,1.29,1.30,0.98,4.49,4.49,4.49
127.29,3.19,-1.25,3.19,-1.25,1.26,1.27,0.96,4.44,4.44,4.44
128.57,3.17,-1.21,3.17,-1.21,1.22,1.24,0.94,4.39,4.39,4.38
129.85,3.16,-1.18,3.16,-1.18,1.19,1.19,0.91,4.34,4.34,4.33
131.15,3.14,-1.14,3.14,-1.14,1.14,1.15,0.88,4.29,4.29,4.28
132.46,3.13,-1.10,3.13,-1.10,1.10,1.10,0.85,4.23,4.23,4.23
133.79,3.13,-1.06,3.13,-1.06,1.05,1.04,0.81,4.17,4.17,4.19
135.12,3.13,-1.00,3.13,-1.00,0.99,0.99,0.76,4.12,4.12,4.13
136.48,3.15,-0.93,3.15,-0.93,0.93,0.93,0.72,4.07,4.07,4.08
137.84,3.17,-0.86,3.17,-0.86,0.86,0.86,0.66,4.03,4.03,4.03
139.22,3.20,-0.78,3.20,-0.78,0.78,0.79,0.61,3.99,3.98,3.98
140.61,3.23,-0.70,3.23,-0.70,0.71,0.72,0.55,3.94,3.94,3.94
142.02,3.27,-0.62,3.27,-0.62,0.63,0.65,0.49,3.89,3.89,3.89
143.44,3.30,-0.54,3.30,-0.54,0.54,0.57,0.43,3.84,3.84,3.84
144.87,3.33,-0.46,3.33,-0.46,0.46,0.49,0.36,3.79,3.79,3.79
146.32,3.36,-0.38,3.36,-0.38,0.38,0.40,0.29,3.74,3.74,3.74
147.78,3.39,-0.30,3.39,-0.30,0.30,0.32,0.23,3.69,3.69,3.69
149.26,3.43,-0.22,3.43,-0.22,0.22,0.22,0.15,3.65,3.64,3.64
150.75,3.46,-0.13,3.46,-0.13,0.14,0.13,0.08,3.60,3.60,3.59
152.26,3.49,-0.05,3.49,-0.05,0.05,0.03,0.00,3.54,3.55,3.54
153.78,3.53,0.03,3.53,0.03,-0.03,-0.07,-0.07,3.50,3.50,3.50
155.32,3.57,0.12,3.57,0.12,-0.12,-0.17,-0.15,3.45,3.45,3.45
156.88,3.62,0.21,3.62,0.21,-0.22,-0.28,-0.23,3.40,3.40,3.41
158.44,3.67,0.31,3.67,0.31,-0.31,-0.39,-0.32,3.36,3.36,3.36
160.03,3.72,0.41,3.72,0.41,-0.41,-0.49,-0.40,3.31,3.31,3.32
161.63,3.78,0.51,3.78,0.51,-0.52,-0.60,-0.48,3.26,3.26,3.27
163.24,3.84,0.62,3.84,0.62,-0.62,-0.72,-0.57,3.22,3.22,3.22
164.88,3.91,0.73,3.91,0.73,-0.73,-0.83,-0.66,3.17,3.18,3.17
166.53,3.98,0.85,3.98,0.85,-0.84,-0.94,-0.74,3.13,3.13,3.13
168.19,4.04,0.96,4.04,0.96,-0.96,-1.05,-0.83,3.09,3.09,3.08
169.87,4.11,1.07,4.11,1.07,-1.07,-1.16,-0.92,3.04,3.04,3.04
171.57,4.17,1.18,4.17,1.18,-1.18,-1.26,-1.01,2.99,2.99,2.99
173.29,4.23,1.29,4.23,1.29,-1.29,-1.37,-1.10,2.94,2.94,2.95
175.02,4.30,1.40,4.30,1.40,-1.40,-1.47,-1.19,2.90,2.90,2.90
176.77,4.36,1.51,4.36,1.51,-1.51,-1.58,-1.29,2.85,2.85,2.85
178.54,4.42,1.62,4.42,1.61,-1.61,-1.68,-1.38,2.81,2.81,2.81
180.32,4.48,1.72,4.48,1.72,-1.71,-1.77,-1.48,2.77,2.77,2.76
182.13,4.54,1.81,4.54,1.82,-1.81,-1.87,-1.57,2.72,2.72,2.72
183.95,4.59,1.91,4.59,1.91,-1.92,-1.96,-1.67,2.67,2.67,2.67
185.79,4.64,2.01,4.64,2.01,-2.02,-2.05,-1.77,2.63,2.63,2.63
187.65,4.69,2.11,4.69,2.11,-2.11,-2.14,-1.87,2.58,2.58,2.59
189.52,4.75,2.21,4.75,2.21,-2.21,-2.22,-1.97,2.53,2.53,2.54
191.42,4.80,2.31,4.80,2.31,-2.31,-2.30,-2.07,2.49,2.49,2.49
193.33,4.85,2.41,4.85,2.41,-2.41,-2.38,-2.17,2.44,2.44,2.44
195.27,4.90,2.51,4.90,2.51,-2.51,-2.46,-2.27,2.40,2.40,2.39
197.22,4.95,2.61,4.95,2.61,-2.60,-2.54,-2.37,2.35,2.35,2.35
199.19,5.00,2.70,5.00,2.70,-2.70,-2.61,-2.48,2.30,2.30,2.30
201.18,5.04,2.79,5.04,2.79,-2.79,-2.68,-2.58,2.25,2.25,2.25
203.19,5.08,2.88,5.08,2.88,-2.88,-2.75,-2.68,2.20,2.20,2.19
205.23,5.11,2.97,5.11,2.97,-2.97,-2.81,-2.78,2.14,2.14,2.14
207.28,5.15,3.06,5.15,3.06,-3.06,-2.88,-2.88,2.08,2.08,2.09
209.35,5.18,3.15,5.18,3.15,-3.16,-2.94,-2.98,2.02,2.03,2.03
211.44,5.22,3.25,5.22,3.25,-3.25,-3.00,-3.08,1.96,1.96,1.97
213.56,5.25,3.35,5.25,3.35,-3.36,-3.06,-3.18,1.89,1.89,1.91
215.69,5.29,3.45,5.29,3.44,-3.47,-3.11,-3.28,1.82,1.82,1.84
217.85,5.32,3.54,5.32,3.54,-3.58,-3.17,-3.37,1.74,1.74,1.77
220.03,5.35,3.64,5.35,3.64,-3.67,-3.22,-3.46,1.67,1.67,1.71
222.23,5.37,3.73,5.38,3.74,-3.74,-3.27,-3.55,1.63,1.63,1.64
224.45,5.40,3.82,5.40,3.82,-3.78,-3.32,-3.64,1.63,1.63,1.58
226.70,5.43,3.88,5.43,3.87,-3.77,-3.36,-3.72,1.66,1.66,1.55
228.96,5.46,3.85,5.45,3.85,-3.73,-3.41,-3.80,1.72,1.72,1.60
231.25,5.48,3.76,5.48,3.74,-3.66,-3.45,-3.87,1.82,1.82,1.72
233.57,5.50,3.59,5.50,3.59,-3.58,-3.50,-3.94,1.92,1.92,1.91
235.90,5.52,3.39,5.52,3.42,-3.48,-3.54,-4.00,2.04,2.04,2.13
238.26,5.54,3.29,5.54,3.29,-3.40,-3.58,-4.06,2.14,2.14,2.25
240.64,5.56,3.23,5.56,3.23,-3.33,-3.61,-4.11,2.23,2.23,2.33
243.05,5.57,3.23,5.57,3.23,-3.29,-3.65,-4.16,2.28,2.28,2.34
245.48,5.59,3.28,5.59,3.27,-3.28,-3.69,-4.20,2.30,2.30,2.31
247.93,5.60,3.33,5.60,3.33,-3.31,-3.72,-4.23,2.29,2.29,2.27
250.41,5.61,3.40,5.61,3.40,-3.37,-3.75,-4.25,2.25,2.25,2.21
252.92,5.62,3.46,5.62,3.46,-3.43,-3.78,-4.27,2.19,2.19,2.16
255.45,5.63,3.52,5.63,3.52,-3.50,-3.81,-4.29,2.13,2.13,2.11
258.00,5.64,3.58,5.64,3.58,-3.57,-3.84,-4.29,2.07,2.07,2.07
260.58,5.65,3.63,5.65,3.63,-3.63,-3.87,-4.29,2.02,2.02,2.02
263.19,5.66,3.68,5.66,3.69,-3.68,-3.89,-4.29,1.97,1.97,1.97
265.82,5.66,3.74,5.66,3.73,-3.73,-3.92,-4.28,1.93,1.93,1.93
268.48,5.66,3.78,5.66,3.78,-3.78,-3.94,-4.26,1.89,1.89,1.88
271.16,5.66,3.82,5.66,3.82,-3.82,-3.96,-4.24,1.85,1.85,1.85
273.87,5.66,3.85,5.66,3.85,-3.85,-3.98,-4.22,1.81,1.81,1.81
276.61,5.66,3.89,5.66,3.89,-3.89,-4.00,-4.19,1.77,1.77,1.78
279.38,5.66,3.91,5.66,3.92,-3.92,-4.02,-4.16,1.74,1.74,1.74
282.17,5.65,3.94,5.66,3.94,-3.95,-4.03,-4.12,1.71,1.71,1.71
284.99,5.65,3.97,5.65,3.97,-3.97,-4.05,-4.08,1.68,1.68,1.68
287.84,5.65,4.00,5.65,4.00,-4.00,-4.06,-4.04,1.65,1.65,1.65
290.72,5.64,4.02,5.64,4.02,-4.02,-4.07,-4.00,1.62,1.62,1.62
293.63,5.63,4.04,5.63,4.04,-4.04,-4.09,-3.96,1.60,1.60,1.59
296.57,5.62,4.05,5.62,4.05,-4.05,-4.10,-3.92,1.57,1.57,1.57
299.53,5.61,4.06,5.61,4.07,-4.07,-4.10,-3.87,1.54,1.54,1.55
302.53,5.60,4.08,5.60,4.08,-4.08,-4.11,-3.83,1.52,1.52,1.52
305.55,5.59,4.09,5.59,4.09,-4.09,-4.12,-3.79,1.49,1.49,1.49
308.61,5.57,4.10,5.57,4.10,-4.10,-4.12,-3.75,1.47,1.47,1.47
311.69,5.56,4.11,5.56,4.11,-4.11,-4.13,-3.71,1.45,1.45,1.45
314.81,5.54,4.12,5.54,4.12,-4.12,-4.13,-3.67,1.43,1.43,1.42
317.96,5.52,4.12,5.52,4.12,-4.12,-4.13,-3.63,1.40,1.40,1.40
321.14,5.50,4.12,5.50,4.12,-4.12,-4.13,-3.59,1.38,1.38,1.38
324.35,5.48,4.12,5.48,4.12,-4.12,-4.13,-3.56,1.36,1.36,1.36
327.59,5.46,4.12,5.46,4.12,-4.12,-4.12,-3.52,1.34,1.34,1.34
330.87,5.44,4.12,5.44,4.12,-4.12,-4.12,-3.49,1.32,1.32,1.32
334.18,5.42,4.11,5.42,4.12,-4.12,-4.11,-3.47,1.30,1.30,1.30
337.52,5.40,4.11,5.40,4.11,-4.11,-4.11,-3.44,1.28,1.28,1.28
340.90,5.38,4.11,5.38,4.11,-4.11,-4.10,-3.42,1.27,1.27,1.26
344.30,5.35,4.10,5.35,4.10,-4.10,-4.09,-3.40,1.25,1.25,1.25
347.75,5.33,4.09,5.33,4.09,-4.10,-4.08,-3.38,1.23,1.23,1.24
351.23,5.30,4.08,5.30,4.09,-4.09,-4.07,-3.37,1.22,1.22,1.22
354.74,5.28,4.08,5.28,4.08,-4.08,-4.06,-3.35,1.20,1.20,1.20
358.28,5.25,4.07,5.26,4.07,-4.07,-4.04,-3.34,1.19,1.19,1.19
361.87,5.23,4.05,5.23,4.06,-4.05,-4.03,-3.34,1.18,1.18,1.18
365.49,5.20,4.04,5.20,4.04,-4.04,-4.01,-3.33,1.17,1.16,1.16
369.14,5.17,4.03,5.17,4.02,-4.02,-3.99,-3.33,1.15,1.15,1.15
372.83,5.14,4.00,5.14,4.00,-4.00,-3.97,-3.33,1.14,1.14,1.14
376.56,5.11,3.98,5.11,3.98,-3.98,-3.95,-3.33,1.12,1.12,1.13
380.33,5.07,3.96,5.07,3.96,-3.96,-3.93,-3.34,1.11,1.11,1.12
384.13,5.04,3.94,5.04,3.94,-3.94,-3.91,-3.35,1.10,1.10,1.10
387.97,5.01,3.92,5.01,3.92,-3.92,-3.89,-3.36,1.09,1.09,1.09
391.85,4.97,3.90,4.98,3.90,-3.90,-3.86,-3.37,1.08,1.08,1.08
395.77,4.94,3.88,4.94,3.88,-3.87,-3.84,-3.38,1.07,1.07,1.07
399.73,4.91,3.85,4.91,3.85,-3.85,-3.81,-3.40,1.06,1.06,1.05
403.72,4.87,3.83,4.87,3.83,-3.83,-3.78,-3.42,1.05,1.05,1.05
407.76,4.84,3.80,4.84,3.80,-3.80,-3.75,-3.44,1.04,1.04,1.04
411.84,4.80,3.77,4.80,3.77,-3.77,-3.72,-3.45,1.03,1.03,1.03
415.96,4.76,3.74,4.76,3.74,-3.74,-3.69,-3.47,1.02,1.02,1.02
420.12,4.73,3.71,4.73,3.71,-3.71,-3.66,-3.49,1.02,1.02,1.02
424.32,4.69,3.68,4.69,3.68,-3.68,-3.63,-3.51,1.01,1.01,1.01
428.56,4.65,3.64,4.65,3.64,-3.64,-3.59,-3.53,1.00,1.00,1.00
432.85,4.61,3.61,4.61,3.61,-3.61,-3.56,-3.55,0.99,1.00,1.00
437.18,4.56,3.57,4.56,3.57,-3.58,-3.52,-3.57,0.99,0.99,0.99
441.55,4.52,3.54,4.52,3.54,-3.54,-3.48,-3.59,0.98,0.98,0.98
445.96,4.48,3.51,4.48,3.51,-3.50,-3.45,-3.60,0.98,0.98,0.98
450.42,4.44,3.47,4.44,3.47,-3.47,-3.41,-3.61,0.98,0.98,0.97
454.93,4.40,3.43,4.40,3.43,-3.43,-3.37,-3.62,0.97,0.97,0.97
459.48,4.36,3.39,4.36,3.39,-3.39,-3.33,-3.63,0.97,0.97,0.97
464.07,4.32,3.35,4.32,3.35,-3.35,-3.28,-3.63,0.97,0.97,0.97
468.71,4.27,3.31,4.27,3.31,-3.31,-3.24,-3.63,0.96,0.96,0.96
473.40,4.23,3.27,4.23,3.27,-3.27,-3.20,-3.63,0.96,0.96,0.96
478.13,4.18,3.22,4.18,3.23,-3.22,-3.15,-3.62,0.96,0.96,0.96
482.91,4.14,3.18,4.13,3.18,-3.18,-3.10,-3.60,0.96,0.96,0.95
487.74,4.09,3.13,4.09,3.13,-3.13,-3.06,-3.58,0.96,0.96,0.95
492.62,4.04,3.08,4.04,3.08,-3.08,-3.01,-3.56,0.95,0.95,0.95
497.55,3.98,3.03,3.98,3.03,-3.03,-2.96,-3.53,0.95,0.95,0.95
502.52,3.93,2.98,3.93,2.98,-2.98,-2.91,-3.49,0.95,0.95,0.95
507.55,3.88,2.92,3.88,2.92,-2.93,-2.86,-3.45,0.95,0.95,0.95
512.62,3.82,2.87,3.82,2.87,-2.87,-2.81,-3.41,0.95,0.95,0.95
517.75,3.77,2.82,3.77,2.82,-2.82,-2.76,-3.35,0.95,0.95,0.95
522.93,3.71,2.76,3.71,2.76,-2.76,-2.70,-3.30,0.95,0.95,0.95
528.16,3.66,2.70,3.66,2.70,-2.70,-2.65,-3.23,0.96,0.96,0.96
533.44,3.60,2.64,3.60,2.64,-2.64,-2.59,-3.17,0.96,0.96,0.96
