frequency,raw,error,smoothed,error_smoothed,equalization,parametric_eq,fixed_band_eq,equalized_raw,equalized_smoothed,target
20.00,6.31,-3.79,6.31,-3.79,3.81,-0.00,1.37,10.11,10.11,10.10
20.20,6.36,-3.78,6.36,-3.78,3.79,-0.00,1.41,10.15,10.15,10.14
20.40,6.41,-3.77,6.41,-3.78,3.77,-0.00,1.45,10.19,10.19,10.19
20.61,6.47,-3.77,6.47,-3.76,3.76,-0.00,1.50,10.22,10.22,10.23
20.81,6.52,-3.75,6.52,-3.75,3.74,-0.00,1.54,10.26,10.26,10.27
21.02,6.57,-3.74,6.57,-3.74,3.72,-0.00,1.59,10.29,10.29,10.30
21.23,6.62,-3.71,6.62,-3.71,3.70,-0.00,1.64,10.32,10.32,10.33
21.44,6.67,-3.69,6.67,-3.69,3.68,-0.00,1.69,10.35,10.35,10.36
21.66,6.72,-3.66,6.72,-3.66,3.66,-0.00,1.73,10.38,10.38,10.38
21.87,6.77,-3.63,6.77,-3.63,3.63,-0.00,1.79,10.40,10.40,10.40
22.09,6.82,-3.60,6.82,-3.60,3.61,-0.00,1.84,10.43,10.43,10.42
22.31,6.87,-3.58,6.87,-3.58,3.59,-0.00,1.89,10.47,10.47,10.45
22.54,6.92,-3.57,6.92,-3.57,3.58,-0.00,1.95,10.50,10.50,10.49
22.76,6.97,-3.56,6.97,-3.56,3.57,-0.00,2.01,10.54,10.54,10.53
22.99,7.02,-3.56,7.02,-3.56,3.56,-0.00,2.07,10.58,10.58,10.58
23.22,7.07,-3.56,7.07,-3.56,3.55,-0.00,2.13,10.62,10.62,10.63
23.45,7.12,-3.55,7.12,-3.55,3.54,-0.00,2.19,10.66,10.65,10.67
23.69,7.17,-3.54,7.17,-3.53,3.52,-0.00,2.25,10.68,10.68,10.70
23.92,7.22,-3.51,7.22,-3.51,3.49,-0.00,2.31,10.71,10.71,10.72
24.16,7.26,-3.47,7.26,-3.47,3.46,-0.00,2.38,10.72,10.72,10.74
24.40,7.31,-3.43,7.31,-3.43,3.43,-0.00,2.44,10.74,10.74,10.74
24.65,7.36,-3.38,7.36,-3.38,3.40,-0.00,2.51,10.76,10.76,10.74
24.89,7.41,-3.35,7.41,-3.35,3.37,-0.00,2.58,10.78,10.78,10.75
25.14,7.45,-3.32,7.45,-3.32,3.35,-0.00,2.65,10.80,10.80,10.78
25.39,7.50,-3.31,7.50,-3.32,3.34,-0.00,2.71,10.83,10.83,10.81
25.65,7.54,-3.32,7.54,-3.32,3.32,-0.00,2.78,10.87,10.87,10.86
25.91,7.59,-3.32,7.59,-3.32,3.31,-0.00,2.85,10.90,10.90,10.91
26.16,7.63,-3.33,7.63,-3.32,3.30,-0.00,2.92,10.93,10.93,10.96
26.43,7.67,-3.31,7.67,-3.31,3.28,-0.00,2.99,10.96,10.96,10.99
26.69,7.72,-3.28,7.72,-3.28,3.26,-0.00,3.05,10.98,10.98,11.00
26.96,7.76,-3.24,7.76,-3.24,3.24,-0.00,3.12,11.00,11.00,11.00
27.23,7.80,-3.20,7.80,-3.20,3.21,-0.00,3.18,11.01,11.01,11.00
27.50,7.84,-3.15,7.84,-3.16,3.18,-0.00,3.24,11.02,11.02,11.00
27.77,7.88,-3.12,7.88,-3.12,3.14,-0.00,3.30,11.03,11.03,11.00
28.05,7.92,-3.10,7.92,-3.10,3.12,-0.00,3.36,11.04,11.04,11.02
28.33,7.96,-3.09,7.96,-3.09,3.09,-0.00,3.41,11.05,11.05,11.05
28.62,8.00,-3.08,8.00,-3.08,3.07,-0.00,3.46,11.07,11.07,11.08
28.90,8.04,-3.06,8.04,-3.06,3.05,-0.00,3.51,11.09,11.09,11.10
29.19,8.08,-3.04,8.08,-3.04,3.03,-0.00,3.55,11.10,11.10,11.12
29.48,8.11,-3.01,8.11,-3.01,3.01,-0.00,3.59,11.12,11.12,11.13
29.78,8.15,-2.98,8.15,-2.98,2.99,-0.00,3.62,11.14,11.14,11.13
30.08,8.19,-2.95,8.19,-2.95,2.96,-0.00,3.65,11.15,11.15,11.14
30.38,8.22,-2.93,8.22,-2.93,2.94,-0.00,3.67,11.16,11.16,11.15
30.68,8.26,-2.91,8.26,-2.91,2.91,-0.00,3.69,11.17,11.17,11.17
30.99,8.29,-2.89,8.29,-2.89,2.89,-0.00,3.70,11.18,11.18,11.19
31.30,8.33,-2.87,8.33,-2.87,2.86,-0.00,3.70,11.19,11.19,11.20
31.61,8.36,-2.84,8.36,-2.84,2.84,-0.00,3.71,11.20,11.20,11.20
31.93,8.40,-2.81,8.40,-2.81,2.81,-0.00,3.70,11.21,11.21,11.21
32.24,8.43,-2.78,8.43,-2.78,2.79,-0.00,3.69,11.22,11.22,11.21
32.57,8.46,-2.76,8.46,-2.76,2.77,-0.00,3.67,11.23,11.23,11.22
32.89,8.49,-2.74,8.49,-2.74,2.75,-0.00,3.65,11.24,11.24,11.24
33.22,8.53,-2.73,8.53,-2.73,2.73,-0.00,3.63,11.26,11.26,11.26
33.55,8.56,-2.72,8.56,-2.72,2.72,-0.00,3.60,11.27,11.27,11.28
33.89,8.59,-2.71,8.59,-2.71,2.70,-0.00,3.56,11.29,11.29,11.29
34.23,8.62,-2.69,8.62,-2.69,2.68,-0.00,3.52,11.30,11.30,11.31
34.57,8.65,-2.67,8.65,-2.67,2.67,-0.00,3.48,11.31,11.31,11.32
34.92,8.68,-2.65,8.68,-2.65,2.65,-0.00,3.44,11.33,11.33,11.33
35.27,8.71,-2.63,8.71,-2.63,2.63,-0.00,3.39,11.33,11.33,11.33
35.62,8.73,-2.60,8.73,-2.60,2.61,-0.00,3.34,11.34,11.34,11.34
35.97,8.76,-2.58,8.76,-2.58,2.58,-0.00,3.28,11.34,11.34,11.34
36.33,8.79,-2.56,8.79,-2.56,2.56,-0.00,3.23,11.35,11.35,11.35
36.70,8.81,-2.53,8.81,-2.53,2.53,-0.00,3.17,11.35,11.35,11.35
37.06,8.84,-2.51,8.84,-2.51,2.51,-0.00,3.12,11.35,11.35,11.35
37.43,8.87,-2.49,8.87,-2.48,2.48,-0.00,3.06,11.35,11.35,11.35
37.81,8.89,-2.46,8.89,-2.46,2.46,-0.00,3.00,11.35,11.35,11.35
38.19,8.91,-2.43,8.91,-2.43,2.43,-0.00,2.94,11.35,11.35,11.35
38.57,8.94,-2.41,8.94,-2.41,2.41,-0.00,2.88,11.35,11.35,11.35
38.95,8.96,-2.39,8.96,-2.39,2.38,-0.00,2.83,11.34,11.34,11.35
39.34,8.98,-2.36,8.98,-2.36,2.36,-0.00,2.77,11.34,11.34,11.35
39.74,9.01,-2.34,9.01,-2.34,2.34,-0.00,2.71,11.34,11.34,11.34
40.14,9.03,-2.31,9.03,-2.31,2.32,-0.00,2.66,11.35,11.35,11.34
40.54,9.05,-2.29,9.05,-2.29,2.30,-0.00,2.60,11.35,11.35,11.34
40.94,9.07,-2.28,9.07,-2.28,2.28,-0.00,2.55,11.35,11.35,11.35
41.35,9.09,-2.27,9.09,-2.27,2.27,-0.00,2.50,11.35,11.35,11.36
41.76,9.11,-2.26,9.11,-2.26,2.25,-0.00,2.45,11.35,11.35,11.37
42.18,9.13,-2.24,9.13,-2.24,2.23,-0.00,2.40,11.35,11.35,11.37
42.60,9.14,-2.22,9.14,-2.22,2.21,-0.00,2.36,11.35,11.35,11.36
43.03,9.16,-2.19,9.16,-2.19,2.19,-0.00,2.31,11.35,11.35,11.35
43.46,9.18,-2.16,9.18,-2.16,2.17,-0.00,2.27,11.35,11.35,11.34
43.90,9.19,-2.14,9.20,-2.14,2.15,-0.00,2.23,11.34,11.34,11.34
44.33,9.21,-2.12,9.21,-2.12,2.13,-0.00,2.18,11.34,11.34,11.33
44.78,9.23,-2.11,9.23,-2.11,2.11,-0.00,2.15,11.33,11.33,11.34
45.23,9.24,-2.09,9.24,-2.09,2.09,-0.00,2.11,11.33,11.33,11.33
45.68,9.26,-2.07,9.26,-2.07,2.07,-0.00,2.07,11.33,11.33,11.33
46.13,9.27,-2.05,9.27,-2.05,2.05,-0.00,2.04,11.32,11.32,11.32
46.60,9.28,-2.03,9.28,-2.04,2.04,-0.00,2.01,11.32,11.32,11.32
47.06,9.29,-2.02,9.30,-2.02,2.02,-0.00,1.98,11.31,11.31,11.31
47.53,9.31,-2.00,9.31,-2.00,2.00,-0.00,1.95,11.31,11.31,11.31
48.01,9.32,-1.98,9.32,-1.98,1.98,-0.00,1.92,11.30,11.30,11.30
48.49,9.33,-1.97,9.33,-1.97,1.97,-0.00,1.90,11.29,11.29,11.30
48.97,9.34,-1.95,9.34,-1.95,1.95,-0.00,1.88,11.29,11.29,11.29
49.46,9.35,-1.93,9.35,-1.93,1.93,-0.00,1.85,11.28,11.28,11.28
49.96,9.36,-1.91,9.36,-1.91,1.92,-0.00,1.83,11.28,11.28,11.27
50.46,9.37,-1.90,9.37,-1.90,1.90,-0.00,1.81,11.27,11.27,11.26
50.96,9.38,-1.88,9.38,-1.88,1.88,-0.00,1.79,11.26,11.26,11.26
51.47,9.38,-1.87,9.38,-1.87,1.87,-0.00,1.78,11.25,11.25,11.25
51.99,9.39,-1.86,9.39,-1.85,1.85,-0.00,1.76,11.24,11.24,11.25
52.51,9.40,-1.84,9.40,-1.84,1.83,-0.00,1.74,11.23,11.23,11.23
53.03,9.40,-1.81,9.40,-1.81,1.81,-0.00,1.73,11.22,11.22,11.22
53.56,9.41,-1.79,9.41,-1.79,1.79,-0.00,1.71,11.20,11.20,11.20
54.10,9.41,-1.77,9.41,-1.77,1.78,-0.00,1.70,11.19,11.19,11.18
54.64,9.42,-1.75,9.42,-1.75,1.76,-0.00,1.69,11.18,11.18,11.17
55.18,9.42,-1.74,9.42,-1.74,1.74,-0.00,1.68,11.16,11.16,11.16
55.74,9.43,-1.72,9.43,-1.72,1.72,-0.00,1.66,11.15,11.15,11.15
56.29,9.43,-1.71,9.43,-1.71,1.70,-0.00,1.65,11.13,11.13,11.13
56.86,9.43,-1.69,9.43,-1.69,1.68,-0.01,1.64,11.11,11.11,11.12
57.42,9.43,-1.67,9.43,-1.67,1.67,-0.01,1.63,11.10,11.10,11.10
58.00,9.43,-1.65,9.43,-1.65,1.65,-0.01,1.62,11.08,11.08,11.08
58.58,9.43,-1.63,9.43,-1.63,1.63,-0.01,1.60,11.06,11.06,11.06
59.16,9.43,-1.61,9.43,-1.61,1.61,-0.01,1.59,11.05,11.05,11.05
59.76,9.43,-1.60,9.43,-1.60,1.60,-0.01,1.58,11.03,11.03,11.03
60.35,9.43,-1.58,9.43,-1.58,1.58,-0.01,1.56,11.01,11.01,11.01
60.96,9.43,-1.56,9.43,-1.56,1.56,-0.01,1.55,10.99,10.99,10.99
61.57,9.43,-1.54,9.43,-1.54,1.54,-0.01,1.54,10.97,10.97,10.97
62.18,9.42,-1.53,9.42,-1.52,1.53,-0.01,1.52,10.95,10.95,10.95
62.80,9.42,-1.51,9.42,-1.51,1.51,-0.01,1.51,10.93,10.93,10.92
63.43,9.41,-1.49,9.41,-1.49,1.49,-0.01,1.49,10.90,10.90,10.90
64.07,9.41,-1.48,9.41,-1.48,1.47,-0.01,1.47,10.88,10.88,10.88
64.71,9.40,-1.46,9.40,-1.46,1.46,-0.01,1.45,10.86,10.86,10.86
65.35,9.40,-1.44,9.40,-1.44,1.44,-0.01,1.44,10.84,10.84,10.84
66.01,9.39,-1.42,9.39,-1.43,1.43,-0.01,1.42,10.82,10.82,10.81
66.67,9.38,-1.41,9.38,-1.41,1.41,-0.01,1.40,10.79,10.79,10.80
67.33,9.37,-1.40,9.37,-1.40,1.40,-0.01,1.38,10.77,10.77,10.77
68.01,9.37,-1.38,9.37,-1.38,1.38,-0.01,1.36,10.75,10.75,10.75
68.69,9.36,-1.37,9.36,-1.37,1.37,-0.01,1.34,10.72,10.72,10.72
69.37,9.35,-1.35,9.35,-1.35,1.35,-0.01,1.32,10.70,10.70,10.70
70.07,9.34,-1.34,9.34,-1.34,1.34,-0.01,1.30,10.68,10.68,10.68
70.77,9.33,-1.33,9.33,-1.33,1.33,-0.01,1.27,10.66,10.66,10.66
71.48,9.32,-1.32,9.32,-1.32,1.32,-0.01,1.25,10.64,10.64,10.64
72.19,9.30,-1.32,9.30,-1.31,1.32,-0.01,1.23,10.62,10.62,10.62
72.91,9.29,-1.31,9.29,-1.31,1.31,-0.01,1.21,10.60,10.60,10.60
73.64,9.28,-1.30,9.28,-1.30,1.30,-0.01,1.19,10.58,10.58,10.58
74.38,9.26,-1.29,9.26,-1.29,1.29,-0.01,1.17,10.55,10.55,10.56
75.12,9.25,-1.28,9.25,-1.28,1.28,-0.01,1.15,10.53,10.53,10.53
75.87,9.24,-1.27,9.24,-1.27,1.27,-0.01,1.12,10.50,10.50,10.50
76.63,9.22,-1.25,9.22,-1.25,1.25,-0.01,1.10,10.47,10.47,10.47
77.40,9.21,-1.24,9.21,-1.24,1.24,-0.01,1.08,10.44,10.44,10.44
78.17,9.19,-1.22,9.19,-1.22,1.22,-0.01,1.06,10.41,10.41,10.41
78.95,9.17,-1.21,9.17,-1.21,1.21,-0.01,1.05,10.38,10.38,10.38
79.74,9.16,-1.20,9.16,-1.19,1.19,-0.01,1.03,10.35,10.35,10.35
80.54,9.14,-1.18,9.14,-1.18,1.18,-0.01,1.01,10.31,10.31,10.32
81.35,9.12,-1.16,9.12,-1.16,1.16,-0.01,0.99,10.28,10.28,10.28
82.16,9.10,-1.14,9.10,-1.14,1.14,-0.02,0.97,10.24,10.24,10.24
82.98,9.08,-1.13,9.08,-1.13,1.13,-0.02,0.96,10.21,10.21,10.21
83.81,9.06,-1.11,9.06,-1.11,1.11,-0.02,0.94,10.17,10.17,10.17
84.65,9.04,-1.10,9.04,-1.10,1.10,-0.02,0.93,10.13,10.14,10.13
85.50,9.02,-1.08,9.02,-1.08,1.08,-0.02,0.91,10.10,10.10,10.10
86.35,9.00,-1.06,9.00,-1.06,1.07,-0.02,0.90,10.06,10.06,10.06
87.22,8.97,-1.05,8.97,-1.05,1.05,-0.02,0.89,10.02,10.02,10.02
88.09,8.95,-1.04,8.95,-1.04,1.04,-0.02,0.87,9.98,9.98,9.98
88.97,8.92,-1.02,8.92,-1.02,1.02,-0.02,0.86,9.94,9.94,9.95
89.86,8.90,-1.00,8.90,-1.01,1.00,-0.02,0.85,9.90,9.90,9.90
90.76,8.88,-0.99,8.88,-0.99,0.99,-0.02,0.84,9.86,9.86,9.87
91.66,8.85,-0.97,8.85,-0.97,0.97,-0.02,0.83,9.82,9.82,9.82
92.58,8.82,-0.96,8.82,-0.96,0.96,-0.02,0.82,9.78,9.78,9.78
93.51,8.80,-0.94,8.80,-0.94,0.94,-0.02,0.81,9.74,9.74,9.74
94.44,8.77,-0.92,8.77,-0.92,0.92,-0.02,0.81,9.69,9.69,9.70
95.39,8.74,-0.91,8.74,-0.91,0.91,-0.03,0.80,9.65,9.65,9.65
96.34,8.72,-0.89,8.72,-0.89,0.89,-0.03,0.79,9.61,9.61,9.60
97.30,8.69,-0.87,8.69,-0.87,0.87,-0.03,0.78,9.56,9.56,9.56
98.28,8.66,-0.86,8.66,-0.86,0.86,-0.03,0.78,9.51,9.51,9.52
99.26,8.63,-0.84,8.63,-0.84,0.84,-0.03,0.77,9.47,9.47,9.47
100.25,8.60,-0.82,8.60,-0.82,0.82,-0.03,0.77,9.42,9.42,9.42
101.25,8.57,-0.80,8.57,-0.80,0.80,-0.03,0.76,9.37,9.37,9.37
102.27,8.54,-0.78,8.54,-0.78,0.78,-0.03,0.76,9.32,9.32,9.32
103.29,8.51,-0.76,8.51,-0.76,0.76,-0.03,0.75,9.27,9.27,9.27
104.32,8.48,-0.73,8.48,-0.74,0.74,-0.04,0.75,9.22,9.22,9.22
105.37,8.45,-0.72,8.45,-0.72,0.72,-0.04,0.74,9.17,9.17,9.17
106.42,8.42,-0.70,8.42,-0.70,0.70,-0.04,0.74,9.12,9.12,9.12
107.48,8.39,-0.68,8.39,-0.68,0.68,-0.04,0.73,9.07,9.07,9.07
108.56,8.36,-0.66,8.36,-0.66,0.66,-0.04,0.73,9.01,9.01,9.01
109.64,8.32,-0.64,8.32,-0.64,0.64,-0.04,0.72,8.96,8.96,8.96
110.74,8.29,-0.61,8.29,-0.61,0.61,-0.04,0.72,8.90,8.90,8.91
111.85,8.26,-0.59,8.26,-0.59,0.59,-0.05,0.71,8.85,8.85,8.85
112.97,8.22,-0.57,8.22,-0.57,0.57,-0.05,0.71,8.79,8.79,8.79
114.10,8.19,-0.55,8.19,-0.55,0.55,-0.05,0.70,8.73,8.73,8.74
115.24,8.15,-0.53,8.15,-0.53,0.52,-0.05,0.69,8.68,8.68,8.68
116.39,8.12,-0.50,8.12,-0.50,0.50,-0.05,0.68,8.62,8.62,8.62
117.55,8.08,-0.48,8.08,-0.48,0.48,-0.05,0.67,8.56,8.56,8.56
118.73,8.04,-0.45,8.04,-0.45,0.45,-0.06,0.66,8.50,8.50,8.50
119.92,8.01,-0.43,8.01,-0.43,0.43,-0.06,0.65,8.44,8.44,8.44
121.12,7.97,-0.41,7.97,-0.41,0.41,-0.06,0.64,8.38,8.38,8.38
122.33,7.93,-0.38,7.93,-0.38,0.38,-0.06,0.63,8.32,8.32,8.31
123.55,7.89,-0.36,7.89,-0.36,0.36,-0.07,0.61,8.25,8.25,8.25
124.79,7.85,-0.34,7.85,-0.34,0.34,-0.07,0.60,8.19,8.19,8.19
126.03,7.81,-0.32,7.81,-0.32,0.31,-0.07,0.58,8.13,8.13,8.13
127.29,7.77,-0.29,7.77,-0.29,0.29,-0.08,0.56,8.06,8.06,8.06
128.57,7.73,-0.27,7.73,-0.27,0.27,-0.08,0.54,8.00,8.00,8.00
129.85,7.69,-0.24,7.69,-0.24,0.24,-0.08,0.52,7.93,7.93,7.93
131.15,7.65,-0.22,7.65,-0.22,0.22,-0.09,0.50,7.86,7.86,7.86
132.46,7.60,-0.20,7.60,-0.20,0.19,-0.09,0.48,7.80,7.80,7.80
133.79,7.56,-0.17,7.56,-0.17,0.17,-0.09,0.45,7.73,7.73,7.73
135.12,7.52,-0.14,7.52,-0.14,0.15,-0.10,0.43,7.66,7.66,7.66
136.48,7.47,-0.12,7.47,-0.12,0.12,-0.10,0.40,7.59,7.59,7.59
137.84,7.42,-0.09,7.42,-0.09,0.10,-0.10,0.38,7.52,7.52,7.52
139.22,7.38,-0.07,7.38,-0.07,0.07,-0.11,0.35,7.45,7.45,7.45
140.61,7.33,-0.05,7.33,-0.05,0.05,-0.11,0.32,7.38,7.38,7.38
142.02,7.29,-0.03,7.29,-0.03,0.02,-0.12,0.29,7.31,7.31,7.31
143.44,7.24,-0.00,7.24,0.00,-0.01,-0.12,0.26,7.23,7.23,7.24
144.87,7.19,0.03,7.19,0.03,-0.03,-0.13,0.23,7.16,7.16,7.16
146.32,7.14,0.06,7.14,0.06,-0.06,-0.14,0.19,7.08,7.08,7.08
147.78,7.09,0.09,7.09,0.09,-0.08,-0.14,0.16,7.01,7.01,7.01
149.26,7.04,0.11,7.04,0.11,-0.10,-0.15,0.13,6.94,6.94,6.93
150.75,6.99,0.13,6.99,0.13,-0.13,-0.15,0.09,6.86,6.86,6.86
152.26,6.94,0.15,6.94,0.15,-0.15,-0.16,0.06,6.79,6.79,6.79
153.78,6.89,0.17,6.89,0.17,-0.17,-0.17,0.02,6.72,6.72,6.72
155.32,6.84,0.19,6.84,0.19,-0.20,-0.18,-0.01,6.64,6.64,6.65
156.88,6.79,0.22,6.79,0.22,-0.22,-0.18,-0.05,6.57,6.57,6.57
158.44,6.73,0.24,6.73,0.24,-0.25,-0.19,-0.09,6.49,6.49,6.49
160.03,6.68,0.27,6.68,0.27,-0.27,-0.20,-0.13,6.41,6.41,6.41
161.63,6.63,0.30,6.63,0.30,-0.30,-0.21,-0.17,6.32,6.32,6.32
163.24,6.57,0.33,6.57,0.33,-0.33,-0.22,-0.20,6.24,6.24,6.24
164.88,6.52,0.36,6.52,0.36,-0.36,-0.23,-0.24,6.16,6.16,6.15
166.53,6.46,0.39,6.46,0.39,-0.39,-0.24,-0.28,6.07,6.07,6.07
168.19,6.40,0.42,6.41,0.42,-0.42,-0.25,-0.32,5.98,5.98,5.98
169.87,6.35,0.45,6.35,0.45,-0.45,-0.27,-0.36,5.90,5.90,5.90
171.57,6.29,0.48,6.29,0.48,-0.48,-0.28,-0.41,5.81,5.81,5.81
173.29,6.23,0.50,6.23,0.50,-0.50,-0.29,-0.45,5.73,5.73,5.73
175.02,6.17,0.53,6.17,0.53,-0.53,-0.31,-0.49,5.64,5.64,5.65
176.77,6.11,0.55,6.11,0.55,-0.55,-0.32,-0.53,5.56,5.56,5.56
178.54,6.05,0.57,6.05,0.57,-0.58,-0.34,-0.58,5.47,5.47,5.47
180.32,5.99,0.60,5.99,0.60,-0.60,-0.36,-0.62,5.38,5.38,5.39
182.13,5.92,0.63,5.92,0.62,-0.63,-0.37,-0.67,5.30,5.30,5.30
183.95,5.86,0.65,5.86,0.65,-0.65,-0.39,-0.71,5.21,5.21,5.21
185.79,5.80,0.67,5.80,0.67,-0.67,-0.41,-0.76,5.13,5.13,5.12
187.65,5.73,0.69,5.73,0.69,-0.68,-0.43,-0.80,5.05,5.05,5.04
189.52,5.67,0.70,5.67,0.70,-0.69,-0.45,-0.85,4.97,4.97,4.96
191.42,5.61,0.71,5.61,0.71,-0.71,-0.48,-0.89,4.90,4.90,4.89
193.33,5.55,0.72,5.55,0.72,-0.72,-0.50,-0.94,4.82,4.82,4.82
195.27,5.49,0.73,5.49,0.73,-0.74,-0.52,-0.99,4.75,4.75,4.76
197.22,5.43,0.73,5.43,0.74,-0.75,-0.55,-1.03,4.67,4.68,4.69
199.19,5.37,0.76,5.37,0.76,-0.77,-0.58,-1.08,4.60,4.60,4.61
201.18,5.32,0.80,5.32,0.80,-0.80,-0.61,-1.12,4.53,4.53,4.52
203.19,5.27,0.84,5.27,0.83,-0.82,-0.64,-1.17,4.45,4.45,4.44
205.23,5.23,0.87,5.23,0.86,-0.86,-0.67,-1.22,4.38,4.37,4.37
207.28,5.19,0.89,5.19,0.89,-0.89,-0.70,-1.26,4.30,4.30,4.30
209.35,5.16,0.92,5.16,0.93,-0.93,-0.74,-1.31,4.23,4.23,4.23
211.44,5.13,0.97,5.13,0.97,-0.97,-0.77,-1.35,4.16,4.16,4.16
213.56,5.11,1.02,5.11,1.02,-1.02,-0.81,-1.39,4.09,4.09,4.09
215.69,5.09,1.07,5.09,1.07,-1.07,-0.85,-1.43,4.02,4.02,4.02
217.85,5.07,1.12,5.08,1.12,-1.12,-0.89,-1.47,3.95,3.96,3.95
220.03,5.06,1.17,5.07,1.18,-1.18,-0.93,-1.51,3.89,3.89,3.89
222.23,5.06,1.23,5.06,1.23,-1.23,-0.97,-1.55,3.83,3.82,3.82
224.45,5.05,1.29,5.05,1.29,-1.29,-1.02,-1.58,3.76,3.76,3.76
226.70,5.05,1.34,5.05,1.35,-1.35,-1.06,-1.61,3.70,3.70,3.70
228.96,5.04,1.40,5.04,1.40,-1.40,-1.10,-1.64,3.64,3.64,3.64
231.25,5.03,1.45,5.03,1.45,-1.45,-1.15,-1.67,3.58,3.58,3.58
233.57,5.02,1.50,5.02,1.50,-1.50,-1.19,-1.69,3.52,3.52,3.52
235.90,5.01,1.55,5.01,1.54,-1.54,-1.24,-1.71,3.47,3.46,3.46
238.26,4.99,1.58,4.99,1.58,-1.58,-1.28,-1.72,3.41,3.41,3.41
240.64,4.97,1.61,4.97,1.61,-1.61,-1.32,-1.73,3.35,3.35,3.36
243.05,4.94,1.64,4.94,1.64,-1.64,-1.36,-1.74,3.30,3.30,3.30
245.48,4.91,1.66,4.91,1.66,-1.66,-1.40,-1.75,3.25,3.25,3.25
247.93,4.87,1.67,4.87,1.67,-1.67,-1.43,-1.75,3.20,3.20,3.20
250.41,4.83,1.68,4.83,1.68,-1.68,-1.46,-1.74,3.16,3.16,3.15
252.92,4.79,1.68,4.79,1.68,-1.68,-1.49,-1.73,3.11,3.11,3.11
255.45,4.74,1.67,4.74,1.67,-1.67,-1.51,-1.72,3.07,3.07,3.07
258.00,4.69,1.66,4.69,1.66,-1.66,-1.52,-1.70,3.02,3.02,3.03
260.58,4.64,1.65,4.64,1.65,-1.65,-1.53,-1.68,2.98,2.98,2.98
263.19,4.58,1.63,4.58,1.63,-1.64,-1.54,-1.66,2.94,2.94,2.95
265.82,4.52,1.61,4.52,1.62,-1.62,-1.54,-1.63,2.91,2.91,2.91
268.48,4.46,1.59,4.46,1.59,-1.59,-1.53,-1.60,2.87,2.87,2.87
271.16,4.40,1.57,4.40,1.57,-1.57,-1.51,-1.56,2.83,2.83,2.83
273.87,4.34,1.54,4.34,1.54,-1.54,-1.49,-1.52,2.80,2.80,2.80
276.61,4.27,1.50,4.27,1.50,-1.51,-1.47,-1.48,2.77,2.77,2.77
279.38,4.21,1.47,4.21,1.47,-1.47,-1.43,-1.44,2.74,2.74,2.74
282.17,4.15,1.43,4.15,1.43,-1.43,-1.39,-1.39,2.71,2.71,2.71
284.99,4.08,1.40,4.08,1.39,-1.39,-1.35,-1.34,2.69,2.69,2.69
287.84,4.02,1.35,4.02,1.35,-1.35,-1.30,-1.29,2.67,2.67,2.67
290.72,3.95,1.30,3.95,1.30,-1.30,-1.25,-1.24,2.65,2.65,2.65
293.63,3.89,1.24,3.89,1.25,-1.25,-1.20,-1.18,2.64,2.64,2.64
296.57,3.82,1.19,3.82,1.19,-1.19,-1.14,-1.13,2.63,2.63,2.63
299.53,3.76,1.14,3.76,1.14,-1.14,-1.08,-1.07,2.62,2.62,2.62
302.53,3.69,1.08,3.69,1.08,-1.08,-1.01,-1.01,2.62,2.62,2.61
305.55,3.63,1.02,3.63,1.02,-1.01,-0.95,-0.95,2.61,2.61,2.61
308.61,3.57,0.96,3.57,0.95,-0.95,-0.88,-0.89,2.61,2.61,2.61
311.69,3.50,0.89,3.50,0.89,-0.89,-0.82,-0.83,2.61,2.61,2.61
314.81,3.44,0.81,3.44,0.82,-0.83,-0.75,-0.77,2.61,2.61,2.62
317.96,3.38,0.76,3.38,0.76,-0.76,-0.69,-0.71,2.61,2.61,2.62
321.14,3.31,0.70,3.31,0.70,-0.70,-0.62,-0.65,2.61,2.61,2.61
324.35,3.25,0.64,3.25,0.64,-0.64,-0.56,-0.59,2.61,2.61,2.61
327.59,3.19,0.58,3.19,0.58,-0.58,-0.49,-0.52,2.60,2.60,2.60
330.87,3.13,0.53,3.13,0.53,-0.53,-0.43,-0.46,2.60,2.60,2.60
334.18,3.06,0.47,3.06,0.47,-0.47,-0.37,-0.40,2.59,2.59,2.59
337.52,3.00,0.42,3.00,0.42,-0.42,-0.30,-0.34,2.59,2.59,2.58
340.90,2.94,0.37,2.94,0.36,-0.36,-0.24,-0.27,2.58,2.58,2.58
344.30,2.88,0.30,2.88,0.30,-0.30,-0.19,-0.21,2.57,2.57,2.58
347.75,2.82,0.25,2.82,0.25,-0.25,-0.13,-0.15,2.57,2.57,2.57
351.23,2.76,0.19,2.76,0.19,-0.19,-0.07,-0.09,2.56,2.56,2.56
354.74,2.70,0.14,2.70,0.14,-0.14,-0.02,-0.02,2.56,2.56,2.56
358.28,2.64,0.08,2.64,0.08,-0.08,0.04,0.04,2.56,2.56,2.56
361.87,2.58,0.03,2.58,0.03,-0.03,0.09,0.10,2.55,2.55,2.55
365.49,2.52,-0.02,2.52,-0.03,0.03,0.14,0.16,2.55,2.55,2.54
369.14,2.46,-0.08,2.46,-0.08,0.09,0.20,0.22,2.55,2.55,2.54
372.83,2.40,-0.14,2.40,-0.14,0.14,0.25,0.28,2.54,2.54,2.54
376.56,2.34,-0.20,2.34,-0.20,0.20,0.30,0.35,2.54,2.54,2.54
380.33,2.29,-0.26,2.29,-0.26,0.25,0.34,0.41,2.54,2.54,2.54
384.13,2.23,-0.31,2.23,-0.31,0.30,0.39,0.47,2.53,2.53,2.54
387.97,2.17,-0.36,2.17,-0.36,0.36,0.44,0.53,2.53,2.53,2.53
391.85,2.11,-0.41,2.11,-0.41,0.41,0.49,0.59,2.53,2.53,2.52
395.77,2.06,-0.46,2.06,-0.46,0.47,0.53,0.65,2.52,2.52,2.52
399.73,2.00,-0.52,2.00,-0.52,0.52,0.58,0.71,2.52,2.52,2.52
403.72,1.94,-0.57,1.94,-0.57,0.57,0.62,0.77,2.52,2.52,2.52
407.76,1.89,-0.63,1.89,-0.63,0.63,0.67,0.83,2.52,2.52,2.52
411.84,1.83,-0.68,1.83,-0.68,0.68,0.71,0.89,2.51,2.51,2.52
415.96,1.78,-0.73,1.78,-0.73,0.73,0.75,0.95,2.51,2.51,2.51
420.12,1.72,-0.78,1.72,-0.78,0.78,0.80,1.01,2.50,2.50,2.51
424.32,1.67,-0.83,1.67,-0.83,0.83,0.84,1.06,2.50,2.50,2.50
428.56,1.61,-0.88,1.61,-0.88,0.88,0.88,1.12,2.49,2.49,2.49
432.85,1.56,-0.92,1.56,-0.92,0.93,0.93,1.17,2.49,2.49,2.48
437.18,1.51,-0.97,1.51,-0.97,0.97,0.97,1.23,2.48,2.48,2.47
441.55,1.45,-1.02,1.45,-1.02,1.02,1.01,1.28,2.47,2.47,2.47
445.96,1.40,-1.06,1.40,-1.06,1.06,1.05,1.33,2.46,2.46,2.46
450.42,1.35,-1.11,1.35,-1.11,1.10,1.10,1.38,2.45,2.45,2.45
454.93,1.29,-1.15,1.29,-1.15,1.14,1.14,1.43,2.44,2.44,2.44
459.48,1.24,-1.18,1.24,-1.19,1.18,1.18,1.48,2.42,2.42,2.43
464.07,1.19,-1.22,1.19,-1.22,1.21,1.22,1.52,2.40,2.40,2.41
468.71,1.14,-1.25,1.14,-1.25,1.24,1.27,1.56,2.38,2.38,2.39
473.40,1.09,-1.27,1.09,-1.27,1.28,1.31,1.60,2.36,2.36,2.36
478.13,1.04,-1.30,1.04,-1.29,1.32,1.35,1.64,2.35,2.35,2.33
482.91,0.99,-1.33,0.99,-1.33,1.36,1.39,1.68,2.35,2.35,2.31
487.74,0.94,-1.37,0.94,-1.38,1.41,1.43,1.71,2.35,2.35,2.30
492.62,0.89,-1.45,0.89,-1.45,1.46,1.48,1.74,2.34,2.34,2.34
497.55,0.84,-1.54,0.84,-1.53,1.51,1.52,1.77,2.34,2.34,2.38
502.52,0.79,-1.59,0.79,-1.59,1.55,1.56,1.80,2.34,2.34,2.38
507.55,0.74,-1.62,0.74,-1.62,1.59,1.61,1.82,2.33,2.33,2.36
512.62,0.69,-1.63,0.69,-1.64,1.63,1.65,1.84,2.32,2.32,2.32
