frequency,raw,error,smoothed,error_smoothed,equalization,parametric_eq,fixed_band_eq,equalized_raw,equalized_smoothed,target
20.00,10.87,2.68,10.87,2.68,-2.69,-2.58,-1.22,8.19,8.19,8.19
20.20,10.90,2.68,10.90,2.68,-2.69,-2.59,-1.26,8.22,8.22,8.22
20.40,10.93,2.69,10.93,2.69,-2.68,-2.60,-1.29,8.25,8.25,8.24
20.61,10.96,2.69,10.96,2.69,-2.68,-2.61,-1.33,8.27,8.27,8.27
20.81,10.98,2.69,10.98,2.69,-2.68,-2.61,-1.37,8.30,8.30,8.29
21.02,11.00,2.69,11.00,2.69,-2.68,-2.62,-1.41,8.32,8.32,8.32
21.23,11.02,2.68,11.02,2.68,-2.68,-2.63,-1.45,8.34,8.34,8.34
21.44,11.04,2.68,11.04,2.68,-2.68,-2.64,-1.49,8.36,8.36,8.36
21.66,11.06,2.68,11.06,2.68,-2.68,-2.64,-1.54,8.38,8.38,8.38
21.87,11.08,2.68,11.08,2.68,-2.68,-2.65,-1.58,8.40,8.40,8.40
22.09,11.09,2.68,11.09,2.68,-2.68,-2.66,-1.63,8.41,8.41,8.41
22.31,11.11,2.68,11.11,2.68,-2.68,-2.66,-1.68,8.43,8.43,8.43
22.54,11.12,2.68,11.12,2.68,-2.68,-2.67,-1.73,8.44,8.44,8.45
22.76,11.14,2.68,11.14,2.68,-2.68,-2.68,-1.78,8.46,8.46,8.46
22.99,11.16,2.68,11.16,2.68,-2.69,-2.68,-1.83,8.47,8.47,8.47
23.22,11.17,2.69,11.17,2.69,-2.69,-2.69,-1.88,8.48,8.48,8.48
23.45,11.19,2.69,11.19,2.69,-2.69,-2.69,-1.93,8.50,8.50,8.50
23.69,11.20,2.70,11.20,2.70,-2.69,-2.70,-1.99,8.51,8.51,8.51
23.92,11.22,2.70,11.22,2.70,-2.69,-2.71,-2.05,8.52,8.52,8.52
24.16,11.23,2.70,11.23,2.70,-2.69,-2.71,-2.10,8.54,8.54,8.53
24.40,11.24,2.69,11.24,2.69,-2.69,-2.72,-2.16,8.55,8.55,8.55
24.65,11.24,2.68,11.24,2.68,-2.68,-2.72,-2.22,8.56,8.56,8.56
24.89,11.24,2.68,11.24,2.68,-2.68,-2.73,-2.28,8.57,8.57,8.57
25.14,11.25,2.67,11.25,2.67,-2.67,-2.73,-2.34,8.58,8.58,8.58
25.39,11.24,2.66,11.24,2.66,-2.66,-2.73,-2.40,8.58,8.58,8.59
25.65,11.24,2.65,11.24,2.65,-2.65,-2.74,-2.46,8.59,8.59,8.59
25.91,11.24,2.65,11.24,2.65,-2.65,-2.74,-2.52,8.60,8.60,8.60
26.16,11.24,2.64,11.24,2.64,-2.64,-2.75,-2.58,8.60,8.60,8.60
26.43,11.24,2.64,11.24,2.64,-2.64,-2.75,-2.64,8.61,8.61,8.61
26.69,11.25,2.63,11.25,2.63,-2.64,-2.76,-2.70,8.61,8.61,8.61
26.96,11.25,2.63,11.25,2.63,-2.64,-2.76,-2.76,8.61,8.62,8.62
27.23,11.26,2.63,11.26,2.63,-2.64,-2.76,-2.81,8.62,8.62,8.62
27.50,11.26,2.64,11.26,2.64,-2.64,-2.77,-2.87,8.62,8.62,8.63
27.77,11.27,2.64,11.27,2.64,-2.64,-2.77,-2.92,8.63,8.63,8.63
28.05,11.28,2.65,11.28,2.65,-2.65,-2.77,-2.97,8.63,8.63,8.63
28.33,11.28,2.65,11.28,2.65,-2.65,-2.78,-3.02,8.63,8.63,8.63
28.62,11.29,2.66,11.29,2.66,-2.65,-2.78,-3.07,8.63,8.63,8.63
28.90,11.29,2.66,11.29,2.66,-2.66,-2.78,-3.12,8.63,8.63,8.63
29.19,11.29,2.66,11.29,2.66,-2.66,-2.79,-3.16,8.63,8.63,8.63
29.48,11.29,2.66,11.29,2.66,-2.66,-2.79,-3.19,8.63,8.63,8.62
29.78,11.29,2.66,11.29,2.66,-2.66,-2.79,-3.23,8.62,8.62,8.62
30.08,11.28,2.66,11.28,2.66,-2.66,-2.79,-3.26,8.62,8.62,8.62
30.38,11.28,2.66,11.28,2.66,-2.67,-2.80,-3.29,8.62,8.62,8.62
30.68,11.28,2.67,11.28,2.67,-2.67,-2.80,-3.31,8.61,8.61,8.62
30.99,11.28,2.68,11.28,2.68,-2.68,-2.80,-3.33,8.61,8.61,8.61
31.30,11.29,2.69,11.29,2.69,-2.69,-2.80,-3.34,8.60,8.60,8.60
31.61,11.29,2.70,11.29,2.70,-2.69,-2.80,-3.35,8.59,8.59,8.59
31.93,11.29,2.71,11.29,2.71,-2.70,-2.80,-3.36,8.58,8.58,8.58
32.24,11.28,2.72,11.28,2.71,-2.71,-2.81,-3.36,8.57,8.57,8.57
32.57,11.28,2.72,11.28,2.72,-2.72,-2.81,-3.36,8.56,8.56,8.56
32.89,11.28,2.73,11.28,2.73,-2.73,-2.81,-3.35,8.55,8.55,8.55
33.22,11.28,2.74,11.28,2.74,-2.74,-2.81,-3.34,8.54,8.54,8.55
33.55,11.28,2.75,11.28,2.75,-2.75,-2.81,-3.33,8.53,8.53,8.54
33.89,11.28,2.76,11.28,2.76,-2.76,-2.81,-3.31,8.52,8.52,8.52
34.23,11.28,2.77,11.28,2.77,-2.77,-2.81,-3.30,8.51,8.51,8.51
34.57,11.28,2.78,11.28,2.78,-2.78,-2.81,-3.27,8.50,8.50,8.50
34.92,11.28,2.79,11.28,2.79,-2.79,-2.81,-3.25,8.49,8.49,8.49
35.27,11.28,2.80,11.27,2.80,-2.80,-2.82,-3.23,8.48,8.48,8.48
35.62,11.27,2.81,11.27,2.80,-2.80,-2.82,-3.20,8.46,8.46,8.46
35.97,11.26,2.81,11.26,2.81,-2.81,-2.82,-3.17,8.45,8.45,8.45
36.33,11.25,2.82,11.25,2.82,-2.82,-2.82,-3.14,8.43,8.43,8.44
36.70,11.24,2.82,11.25,2.82,-2.83,-2.82,-3.11,8.42,8.42,8.42
37.06,11.24,2.83,11.24,2.84,-2.84,-2.82,-3.08,8.40,8.40,8.40
37.43,11.23,2.85,11.23,2.85,-2.85,-2.82,-3.05,8.39,8.39,8.39
37.81,11.23,2.86,11.23,2.86,-2.86,-2.82,-3.03,8.37,8.37,8.37
38.19,11.22,2.87,11.22,2.87,-2.87,-2.82,-3.00,8.35,8.35,8.35
38.57,11.21,2.88,11.21,2.88,-2.88,-2.82,-2.97,8.33,8.33,8.33
38.95,11.20,2.89,11.20,2.89,-2.89,-2.82,-2.94,8.31,8.31,8.31
39.34,11.18,2.90,11.18,2.90,-2.90,-2.82,-2.91,8.29,8.29,8.29
39.74,11.17,2.90,11.17,2.90,-2.90,-2.82,-2.89,8.27,8.27,8.26
40.14,11.15,2.91,11.15,2.91,-2.91,-2.81,-2.87,8.24,8.24,8.24
40.54,11.14,2.92,11.14,2.92,-2.91,-2.81,-2.84,8.22,8.22,8.22
40.94,11.12,2.92,11.12,2.92,-2.92,-2.81,-2.82,8.20,8.20,8.20
41.35,11.10,2.92,11.10,2.92,-2.93,-2.81,-2.81,8.18,8.18,8.18
41.76,11.08,2.92,11.08,2.93,-2.93,-2.81,-2.79,8.15,8.15,8.16
42.18,11.07,2.93,11.07,2.93,-2.94,-2.81,-2.77,8.13,8.13,8.13
42.60,11.05,2.94,11.05,2.94,-2.94,-2.81,-2.76,8.11,8.11,8.11
43.03,11.03,2.95,11.03,2.95,-2.95,-2.81,-2.75,8.08,8.08,8.08
43.46,11.01,2.96,11.01,2.96,-2.96,-2.81,-2.74,8.06,8.06,8.05
43.90,10.99,2.96,10.99,2.96,-2.96,-2.81,-2.74,8.03,8.03,8.03
44.33,10.97,2.96,10.97,2.96,-2.96,-2.80,-2.73,8.01,8.01,8.01
44.78,10.94,2.96,10.94,2.96,-2.96,-2.80,-2.73,7.98,7.98,7.98
45.23,10.91,2.96,10.91,2.96,-2.96,-2.80,-2.73,7.95,7.95,7.95
45.68,10.88,2.96,10.88,2.96,-2.96,-2.80,-2.73,7.92,7.92,7.92
46.13,10.84,2.95,10.84,2.95,-2.95,-2.80,-2.74,7.89,7.89,7.90
46.60,10.81,2.94,10.81,2.94,-2.95,-2.80,-2.74,7.86,7.86,7.87
47.06,10.78,2.94,10.78,2.94,-2.94,-2.80,-2.75,7.84,7.84,7.84
47.53,10.74,2.94,10.74,2.94,-2.94,-2.79,-2.76,7.81,7.81,7.80
48.01,10.71,2.94,10.71,2.93,-2.93,-2.79,-2.77,7.78,7.78,7.77
48.49,10.67,2.93,10.67,2.93,-2.93,-2.79,-2.79,7.75,7.75,7.75
48.97,10.64,2.92,10.64,2.92,-2.92,-2.79,-2.80,7.71,7.71,7.72
49.46,10.60,2.91,10.60,2.91,-2.91,-2.79,-2.82,7.68,7.68,7.69
49.96,10.56,2.91,10.56,2.91,-2.91,-2.78,-2.84,7.65,7.65,7.65
50.46,10.52,2.90,10.52,2.90,-2.90,-2.78,-2.86,7.62,7.62,7.61
50.96,10.47,2.89,10.47,2.89,-2.89,-2.78,-2.88,7.58,7.58,7.58
51.47,10.43,2.87,10.43,2.88,-2.88,-2.78,-2.90,7.55,7.55,7.56
51.99,10.38,2.87,10.38,2.87,-2.87,-2.77,-2.92,7.51,7.51,7.52
52.51,10.34,2.86,10.34,2.86,-2.86,-2.77,-2.95,7.48,7.48,7.48
53.03,10.29,2.86,10.29,2.85,-2.85,-2.77,-2.97,7.44,7.44,7.43
53.56,10.25,2.84,10.25,2.84,-2.84,-2.77,-2.99,7.41,7.41,7.41
54.10,10.20,2.83,10.20,2.83,-2.83,-2.76,-3.02,7.37,7.37,7.38
54.64,10.16,2.82,10.16,2.82,-2.82,-2.76,-3.04,7.33,7.33,7.34
55.18,10.11,2.81,10.11,2.81,-2.81,-2.76,-3.06,7.30,7.30,7.30
55.74,10.06,2.81,10.06,2.81,-2.80,-2.75,-3.08,7.26,7.26,7.25
56.29,10.01,2.80,10.01,2.80,-2.79,-2.75,-3.10,7.22,7.22,7.22
56.86,9.96,2.78,9.96,2.78,-2.78,-2.75,-3.12,7.18,7.18,7.19
57.42,9.91,2.77,9.91,2.77,-2.77,-2.75,-3.13,7.14,7.14,7.15
58.00,9.86,2.75,9.86,2.76,-2.76,-2.74,-3.15,7.10,7.10,7.11
58.58,9.81,2.75,9.81,2.75,-2.75,-2.74,-3.16,7.06,7.06,7.06
59.16,9.76,2.74,9.76,2.74,-2.74,-2.73,-3.16,7.02,7.02,7.02
59.76,9.71,2.72,9.71,2.72,-2.73,-2.73,-3.17,6.98,6.98,6.99
60.35,9.66,2.71,9.66,2.71,-2.72,-2.73,-3.17,6.94,6.94,6.95
60.96,9.61,2.70,9.61,2.70,-2.71,-2.72,-3.17,6.90,6.90,6.91
61.57,9.56,2.70,9.56,2.70,-2.70,-2.72,-3.16,6.86,6.86,6.86
62.18,9.51,2.69,9.51,2.69,-2.69,-2.71,-3.16,6.82,6.82,6.81
62.80,9.46,2.68,9.46,2.68,-2.68,-2.71,-3.14,6.78,6.78,6.77
63.43,9.41,2.67,9.41,2.67,-2.67,-2.71,-3.13,6.73,6.73,6.74
64.07,9.35,2.65,9.35,2.65,-2.66,-2.70,-3.11,6.69,6.69,6.70
64.71,9.30,2.65,9.30,2.65,-2.65,-2.70,-3.09,6.65,6.65,6.66
65.35,9.25,2.65,9.25,2.65,-2.64,-2.69,-3.06,6.61,6.61,6.61
66.01,9.20,2.65,9.20,2.64,-2.63,-2.68,-3.03,6.57,6.57,6.55
66.67,9.15,2.63,9.15,2.63,-2.62,-2.68,-3.00,6.53,6.53,6.52
67.33,9.09,2.61,9.09,2.61,-2.61,-2.67,-2.96,6.48,6.48,6.48
68.01,9.04,2.60,9.04,2.60,-2.60,-2.67,-2.92,6.44,6.44,6.44
68.69,8.98,2.59,8.98,2.59,-2.59,-2.66,-2.88,6.39,6.39,6.40
69.37,8.93,2.58,8.93,2.58,-2.58,-2.65,-2.84,6.34,6.34,6.35
70.07,8.87,2.58,8.87,2.58,-2.57,-2.64,-2.80,6.30,6.30,6.29
70.77,8.82,2.57,8.82,2.57,-2.57,-2.64,-2.75,6.25,6.25,6.25
71.48,8.77,2.56,8.77,2.56,-2.56,-2.63,-2.70,6.21,6.21,6.21
72.19,8.72,2.54,8.72,2.55,-2.56,-2.62,-2.65,6.16,6.16,6.18
72.91,8.67,2.55,8.67,2.55,-2.56,-2.61,-2.60,6.12,6.12,6.12
73.64,8.62,2.55,8.62,2.55,-2.55,-2.60,-2.55,6.07,6.07,6.07
74.38,8.58,2.55,8.58,2.55,-2.55,-2.59,-2.50,6.03,6.03,6.02
75.12,8.53,2.55,8.53,2.55,-2.54,-2.58,-2.45,5.99,5.98,5.97
75.87,8.47,2.55,8.47,2.54,-2.53,-2.57,-2.40,5.94,5.94,5.92
76.63,8.42,2.53,8.42,2.53,-2.53,-2.56,-2.35,5.89,5.89,5.88
77.40,8.36,2.50,8.36,2.51,-2.52,-2.55,-2.30,5.84,5.84,5.85
78.17,8.30,2.50,8.30,2.50,-2.51,-2.54,-2.25,5.79,5.79,5.79
78.95,8.24,2.50,8.24,2.49,-2.50,-2.52,-2.20,5.74,5.74,5.74
79.74,8.18,2.48,8.18,2.49,-2.49,-2.51,-2.15,5.69,5.69,5.70
80.54,8.12,2.48,8.12,2.49,-2.48,-2.50,-2.11,5.64,5.64,5.64
81.35,8.06,2.48,8.06,2.48,-2.47,-2.48,-2.06,5.60,5.60,5.58
82.16,8.00,2.46,8.00,2.46,-2.45,-2.46,-2.02,5.55,5.55,5.54
82.98,7.94,2.44,7.94,2.44,-2.44,-2.45,-1.97,5.50,5.50,5.51
83.81,7.88,2.41,7.88,2.42,-2.42,-2.43,-1.93,5.46,5.46,5.47
84.65,7.81,2.40,7.81,2.40,-2.40,-2.41,-1.89,5.41,5.41,5.41
85.50,7.74,2.38,7.74,2.38,-2.38,-2.40,-1.85,5.36,5.36,5.36
86.35,7.66,2.35,7.66,2.36,-2.36,-2.38,-1.81,5.31,5.31,5.31
87.22,7.59,2.34,7.59,2.34,-2.33,-2.36,-1.77,5.25,5.25,5.25
88.09,7.51,2.32,7.51,2.31,-2.31,-2.33,-1.74,5.20,5.20,5.19
88.97,7.43,2.29,7.43,2.29,-2.29,-2.31,-1.70,5.14,5.14,5.14
89.86,7.36,2.25,7.36,2.26,-2.27,-2.29,-1.67,5.09,5.10,5.11
90.76,7.30,2.24,7.30,2.24,-2.25,-2.27,-1.64,5.05,5.05,5.05
91.66,7.24,2.24,7.24,2.23,-2.23,-2.24,-1.61,5.01,5.01,5.00
92.58,7.18,2.22,7.18,2.21,-2.22,-2.21,-1.58,4.96,4.96,4.96
93.51,7.11,2.19,7.11,2.20,-2.20,-2.19,-1.55,4.91,4.91,4.92
94.44,7.05,2.19,7.05,2.19,-2.19,-2.16,-1.52,4.86,4.86,4.87
95.39,6.99,2.18,6.99,2.18,-2.19,-2.13,-1.50,4.80,4.80,4.80
96.34,6.93,2.18,6.93,2.17,-2.18,-2.10,-1.47,4.75,4.75,4.75
97.30,6.87,2.16,6.87,2.16,-2.16,-2.07,-1.45,4.70,4.70,4.71
98.28,6.80,2.15,6.80,2.15,-2.14,-2.04,-1.43,4.66,4.66,4.65
99.26,6.73,2.14,6.73,2.13,-2.12,-2.00,-1.41,4.61,4.61,4.59
100.25,6.64,2.11,6.64,2.10,-2.09,-1.97,-1.39,4.56,4.55,4.53
101.25,6.55,2.05,6.55,2.06,-2.05,-1.93,-1.37,4.50,4.50,4.49
102.27,6.44,2.00,6.44,2.00,-2.00,-1.90,-1.35,4.44,4.44,4.44
103.29,6.33,1.94,6.33,1.94,-1.94,-1.86,-1.33,4.39,4.39,4.39
104.32,6.22,1.88,6.22,1.88,-1.88,-1.82,-1.31,4.33,4.33,4.34
105.37,6.11,1.83,6.11,1.82,-1.82,-1.78,-1.29,4.29,4.29,4.28
106.42,6.00,1.76,6.00,1.75,-1.76,-1.74,-1.27,4.24,4.24,4.24
107.48,5.89,1.67,5.89,1.69,-1.69,-1.70,-1.25,4.19,4.19,4.22
108.56,5.78,1.63,5.78,1.63,-1.63,-1.65,-1.24,4.15,4.15,4.15
109.64,5.68,1.59,5.68,1.58,-1.58,-1.61,-1.22,4.10,4.10,4.09
110.74,5.57,1.53,5.57,1.53,-1.52,-1.56,-1.20,4.05,4.05,4.04
111.85,5.47,1.46,5.47,1.47,-1.47,-1.52,-1.18,4.00,4.00,4.01
112.97,5.37,1.41,5.37,1.41,-1.43,-1.47,-1.16,3.95,3.95,3.96
114.10,5.28,1.37,5.28,1.37,-1.38,-1.42,-1.14,3.90,3.90,3.91
115.24,5.18,1.34,5.18,1.34,-1.33,-1.37,-1.11,3.85,3.85,3.84
116.39,5.09,1.30,5.09,1.30,-1.29,-1.32,-1.09,3.80,3.80,3.79
117.55,4.99,1.26,4.99,1.25,-1.24,-1.26,-1.06,3.75,3.75,3.74
118.73,4.89,1.20,4.89,1.20,-1.19,-1.21,-1.04,3.70,3.70,3.69
119.92,4.79,1.14,4.79,1.14,-1.14,-1.15,-1.01,3.65,3.65,3.65
121.12,4.68,1.08,4.68,1.08,-1.08,-1.10,-0.98,3.60,3.60,3.60
122.33,4.58,1.03,4.58,1.03,-1.02,-1.04,-0.94,3.56,3.56,3.55
123.55,4.47,0.97,4.47,0.96,-0.95,-0.98,-0.91,3.52,3.52,3.51
124.79,4.36,0.89,4.36,0.89,-0.88,-0.92,-0.87,3.48,3.48,3.47
126.03,4.26,0.81,4.26,0.81,-0.82,-0.86,-0.84,3.44,3.44,3.45
127.29,4.15,0.73,4.15,0.73,-0.75,-0.80,-0.80,3.39,3.39,3.42
128.57,4.04,0.67,4.04,0.67,-0.69,-0.74,-0.75,3.35,3.35,3.37
129.85,3.93,0.62,3.93,0.62,-0.63,-0.68,-0.71,3.30,3.30,3.31
131.15,3.82,0.57,3.82,0.57,-0.56,-0.62,-0.66,3.26,3.26,3.25
132.46,3.70,0.51,3.70,0.51,-0.49,-0.55,-0.61,3.21,3.21,3.19
133.79,3.58,0.45,3.58,0.44,-0.42,-0.49,-0.56,3.16,3.16,3.14
135.12,3.46,0.36,3.46,0.36,-0.35,-0.42,-0.51,3.12,3.12,3.10
136.48,3.34,0.27,3.35,0.27,-0.27,-0.35,-0.45,3.07,3.07,3.07
137.84,3.23,0.18,3.23,0.18,-0.19,-0.29,-0.40,3.03,3.04,3.05
139.22,3.12,0.10,3.12,0.10,-0.12,-0.22,-0.34,3.00,3.00,3.02
140.61,3.00,0.03,3.00,0.03,-0.04,-0.15,-0.28,2.97,2.97,2.98
142.02,2.89,-0.04,2.89,-0.04,0.04,-0.08,-0.22,2.93,2.93,2.93
143.44,2.78,-0.10,2.78,-0.10,0.11,-0.01,-0.15,2.89,2.89,2.88
144.87,2.67,-0.17,2.67,-0.17,0.17,0.06,-0.09,2.84,2.84,2.84
146.32,2.56,-0.23,2.56,-0.23,0.23,0.13,-0.02,2.79,2.79,2.79
147.78,2.45,-0.29,2.45,-0.29,0.29,0.20,0.05,2.74,2.74,2.75
149.26,2.35,-0.35,2.35,-0.35,0.35,0.28,0.12,2.70,2.70,2.70
150.75,2.24,-0.41,2.24,-0.41,0.41,0.35,0.19,2.65,2.65,2.65
152.26,2.14,-0.47,2.14,-0.47,0.47,0.42,0.26,2.61,2.61,2.60
153.78,2.03,-0.53,2.03,-0.53,0.53,0.49,0.33,2.56,2.56,2.56
155.32,1.92,-0.60,1.92,-0.59,0.60,0.57,0.40,2.52,2.52,2.52
156.88,1.81,-0.66,1.81,-0.66,0.66,0.64,0.48,2.47,2.47,2.47
158.44,1.70,-0.72,1.70,-0.72,0.72,0.71,0.56,2.43,2.43,2.43
160.03,1.59,-0.79,1.60,-0.79,0.79,0.79,0.63,2.38,2.38,2.38
161.63,1.49,-0.85,1.49,-0.85,0.85,0.86,0.71,2.34,2.34,2.34
163.24,1.38,-0.92,1.38,-0.92,0.92,0.94,0.79,2.30,2.30,2.30
164.88,1.28,-0.98,1.28,-0.98,0.98,1.01,0.87,2.26,2.26,2.26
166.53,1.18,-1.05,1.18,-1.05,1.04,1.08,0.95,2.22,2.22,2.23
168.19,1.08,-1.11,1.08,-1.11,1.11,1.15,1.04,2.19,2.19,2.19
169.87,0.98,-1.17,0.98,-1.17,1.17,1.23,1.12,2.15,2.15,2.15
171.57,0.88,-1.23,0.88,-1.24,1.24,1.30,1.20,2.12,2.12,2.11
173.29,0.78,-1.30,0.78,-1.30,1.31,1.37,1.29,2.08,2.08,2.08
175.02,0.68,-1.37,0.68,-1.37,1.37,1.44,1.38,2.05,2.05,2.05
176.77,0.58,-1.44,0.58,-1.44,1.44,1.51,1.47,2.02,2.02,2.02
178.54,0.48,-1.51,0.48,-1.51,1.51,1.58,1.56,1.99,1.99,1.99
180.32,0.38,-1.58,0.38,-1.58,1.58,1.65,1.65,1.96,1.96,1.96
182.13,0.28,-1.65,0.28,-1.65,1.65,1.72,1.74,1.93,1.93,1.93
183.95,0.19,-1.72,0.19,-1.72,1.72,1.79,1.83,1.90,1.90,1.90
185.79,0.09,-1.79,0.09,-1.79,1.78,1.86,1.93,1.87,1.87,1.88
187.65,-0.01,-1.86,-0.01,-1.85,1.85,1.93,2.02,1.84,1.85,1.85
189.52,-0.10,-1.92,-0.10,-1.92,1.92,1.99,2.12,1.82,1.82,1.82
191.42,-0.19,-1.98,-0.19,-1.98,1.98,2.06,2.21,1.79,1.79,1.79
193.33,-0.28,-2.04,-0.28,-2.04,2.04,2.12,2.31,1.76,1.77,1.76
195.27,-0.37,-2.11,-0.37,-2.11,2.11,2.19,2.41,1.74,1.74,1.74
197.22,-0.45,-2.17,-0.45,-2.17,2.17,2.25,2.51,1.72,1.72,1.72
199.19,-0.54,-2.23,-0.54,-2.23,2.23,2.31,2.61,1.70,1.70,1.69
201.18,-0.62,-2.29,-0.63,-2.29,2.30,2.37,2.71,1.67,1.67,1.67
203.19,-0.71,-2.36,-0.71,-2.36,2.36,2.43,2.81,1.65,1.65,1.65
205.23,-0.80,-2.43,-0.80,-2.43,2.42,2.49,2.91,1.62,1.62,1.63
207.28,-0.89,-2.49,-0.89,-2.49,2.49,2.55,3.01,1.60,1.60,1.61
209.35,-0.97,-2.55,-0.97,-2.55,2.55,2.60,3.11,1.58,1.58,1.58
211.44,-1.05,-2.60,-1.05,-2.61,2.61,2.66,3.20,1.56,1.56,1.55
213.56,-1.14,-2.67,-1.14,-2.67,2.68,2.72,3.30,1.54,1.54,1.53
215.69,-1.21,-2.74,-1.21,-2.74,2.74,2.77,3.39,1.52,1.52,1.52
217.85,-1.29,-2.81,-1.29,-2.80,2.80,2.82,3.49,1.51,1.51,1.51
220.03,-1.37,-2.87,-1.37,-2.87,2.86,2.88,3.58,1.49,1.50,1.50
222.23,-1.44,-2.92,-1.44,-2.92,2.92,2.93,3.66,1.48,1.48,1.48
224.45,-1.51,-2.98,-1.51,-2.98,2.98,2.98,3.75,1.47,1.47,1.47
226.70,-1.58,-3.04,-1.58,-3.04,3.04,3.03,3.83,1.45,1.45,1.45
228.96,-1.65,-3.09,-1.65,-3.09,3.09,3.08,3.91,1.44,1.44,1.44
231.25,-1.72,-3.15,-1.72,-3.15,3.14,3.13,3.98,1.43,1.43,1.43
233.57,-1.79,-3.20,-1.79,-3.20,3.20,3.18,4.04,1.41,1.41,1.41
235.90,-1.85,-3.25,-1.85,-3.25,3.25,3.23,4.10,1.40,1.40,1.40
238.26,-1.92,-3.30,-1.92,-3.30,3.31,3.28,4.16,1.39,1.39,1.39
240.64,-1.98,-3.36,-1.98,-3.36,3.36,3.33,4.21,1.38,1.38,1.37
243.05,-2.05,-3.41,-2.05,-3.41,3.42,3.38,4.25,1.37,1.37,1.37
245.48,-2.11,-3.47,-2.11,-3.47,3.47,3.42,4.29,1.36,1.36,1.36
247.93,-2.18,-3.53,-2.18,-3.53,3.53,3.47,4.32,1.35,1.35,1.35
250.41,-2.24,-3.59,-2.24,-3.58,3.58,3.52,4.34,1.34,1.34,1.35
252.92,-2.30,-3.64,-2.30,-3.64,3.63,3.57,4.36,1.33,1.33,1.34
255.45,-2.36,-3.69,-2.36,-3.69,3.69,3.61,4.37,1.33,1.33,1.33
258.00,-2.41,-3.74,-2.41,-3.74,3.74,3.66,4.38,1.32,1.32,1.32
260.58,-2.47,-3.78,-2.47,-3.78,3.78,3.71,4.37,1.32,1.32,1.32
263.19,-2.52,-3.83,-2.52,-3.83,3.83,3.76,4.37,1.31,1.31,1.31
265.82,-2.57,-3.87,-2.57,-3.87,3.88,3.80,4.35,1.31,1.31,1.30
268.48,-2.62,-3.92,-2.62,-3.92,3.93,3.85,4.33,1.30,1.30,1.30
271.16,-2.68,-3.97,-2.68,-3.97,3.97,3.90,4.31,1.30,1.30,1.29
273.87,-2.73,-4.02,-2.73,-4.02,4.02,3.94,4.28,1.29,1.29,1.29
276.61,-2.78,-4.07,-2.77,-4.07,4.06,3.99,4.25,1.29,1.29,1.29
279.38,-2.82,-4.11,-2.82,-4.11,4.10,4.04,4.21,1.28,1.28,1.29
282.17,-2.86,-4.15,-2.86,-4.15,4.15,4.08,4.17,1.28,1.28,1.28
284.99,-2.90,-4.19,-2.90,-4.19,4.19,4.13,4.13,1.28,1.28,1.28
287.84,-2.94,-4.22,-2.94,-4.22,4.23,4.17,4.09,1.28,1.28,1.28
290.72,-2.98,-4.26,-2.98,-4.26,4.26,4.22,4.04,1.28,1.28,1.28
293.63,-3.02,-4.30,-3.02,-4.30,4.30,4.26,4.00,1.28,1.28,1.28
296.57,-3.06,-4.33,-3.06,-4.33,4.33,4.31,3.95,1.28,1.28,1.28
299.53,-3.09,-4.37,-3.09,-4.37,4.37,4.35,3.90,1.28,1.28,1.27
302.53,-3.12,-4.40,-3.12,-4.40,4.40,4.39,3.86,1.28,1.28,1.28
305.55,-3.16,-4.43,-3.16,-4.43,4.43,4.43,3.81,1.28,1.28,1.28
308.61,-3.18,-4.46,-3.18,-4.46,4.46,4.47,3.76,1.28,1.28,1.28
311.69,-3.21,-4.49,-3.21,-4.49,4.49,4.51,3.72,1.27,1.28,1.28
314.81,-3.24,-4.51,-3.24,-4.51,4.51,4.54,3.67,1.27,1.28,1.28
317.96,-3.26,-4.54,-3.26,-4.54,4.53,4.58,3.63,1.28,1.28,1.28
321.14,-3.28,-4.56,-3.28,-4.56,4.56,4.61,3.59,1.28,1.28,1.28
324.35,-3.30,-4.57,-3.29,-4.57,4.57,4.64,3.55,1.28,1.28,1.28
327.59,-3.31,-4.59,-3.31,-4.59,4.59,4.67,3.51,1.28,1.28,1.28
330.87,-3.32,-4.61,-3.32,-4.61,4.61,4.69,3.47,1.29,1.29,1.28
334.18,-3.34,-4.63,-3.34,-4.62,4.62,4.71,3.44,1.29,1.29,1.29
337.52,-3.35,-4.64,-3.35,-4.64,4.64,4.73,3.41,1.29,1.29,1.29
340.90,-3.36,-4.65,-3.36,-4.65,4.65,4.75,3.38,1.29,1.29,1.29
344.30,-3.37,-4.66,-3.37,-4.66,4.66,4.76,3.36,1.29,1.29,1.29
347.75,-3.37,-4.67,-3.37,-4.67,4.67,4.77,3.33,1.30,1.30,1.30
351.23,-3.38,-4.68,-3.38,-4.68,4.68,4.78,3.31,1.30,1.30,1.30
354.74,-3.38,-4.68,-3.38,-4.68,4.68,4.78,3.29,1.30,1.30,1.30
358.28,-3.38,-4.68,-3.38,-4.68,4.68,4.78,3.28,1.30,1.30,1.30
361.87,-3.37,-4.67,-3.37,-4.67,4.68,4.78,3.27,1.31,1.31,1.30
365.49,-3.36,-4.67,-3.36,-4.67,4.67,4.77,3.26,1.31,1.31,1.31
369.14,-3.35,-4.66,-3.35,-4.66,4.66,4.76,3.25,1.31,1.31,1.31
372.83,-3.33,-4.65,-3.33,-4.65,4.65,4.75,3.24,1.32,1.32,1.32
376.56,-3.32,-4.64,-3.32,-4.64,4.64,4.73,3.24,1.32,1.32,1.32
380.33,-3.30,-4.62,-3.30,-4.62,4.63,4.71,3.24,1.32,1.32,1.32
384.13,-3.29,-4.61,-3.29,-4.61,4.61,4.68,3.24,1.32,1.32,1.32
387.97,-3.27,-4.59,-3.27,-4.59,4.59,4.65,3.25,1.32,1.32,1.32
391.85,-3.25,-4.57,-3.25,-4.57,4.57,4.62,3.25,1.32,1.32,1.32
395.77,-3.23,-4.55,-3.23,-4.55,4.55,4.59,3.26,1.32,1.32,1.32
399.73,-3.20,-4.52,-3.20,-4.52,4.52,4.55,3.27,1.32,1.32,1.32
403.72,-3.17,-4.49,-3.17,-4.49,4.49,4.51,3.28,1.33,1.33,1.33
407.76,-3.13,-4.46,-3.13,-4.46,4.46,4.46,3.29,1.33,1.33,1.33
411.84,-3.10,-4.43,-3.10,-4.43,4.43,4.41,3.31,1.33,1.33,1.34
415.96,-3.06,-4.40,-3.06,-4.39,4.39,4.36,3.32,1.33,1.33,1.33
420.12,-3.02,-4.36,-3.03,-4.36,4.36,4.31,3.34,1.33,1.33,1.33
424.32,-2.99,-4.31,-2.99,-4.31,4.31,4.26,3.36,1.33,1.33,1.32
428.56,-2.95,-4.27,-2.95,-4.27,4.27,4.20,3.37,1.32,1.32,1.32
432.85,-2.91,-4.22,-2.91,-4.22,4.23,4.15,3.39,1.32,1.32,1.32
437.18,-2.86,-4.18,-2.86,-4.18,4.18,4.09,3.41,1.31,1.32,1.31
441.55,-2.81,-4.13,-2.81,-4.13,4.13,4.03,3.42,1.31,1.31,1.32
445.96,-2.76,-4.08,-2.76,-4.08,4.07,3.96,3.44,1.31,1.31,1.32
450.42,-2.71,-4.02,-2.71,-4.02,4.02,3.90,3.45,1.31,1.31,1.31
454.93,-2.65,-3.96,-2.65,-3.96,3.96,3.84,3.46,1.31,1.31,1.31
459.48,-2.60,-3.90,-2.60,-3.90,3.90,3.77,3.47,1.30,1.30,1.30
464.07,-2.54,-3.83,-2.54,-3.83,3.84,3.71,3.48,1.30,1.30,1.29
468.71,-2.48,-3.77,-2.48,-3.77,3.77,3.64,3.49,1.29,1.29,1.28
473.40,-2.43,-3.70,-2.43,-3.70,3.71,3.58,3.49,1.28,1.28,1.28
478.13,-2.37,-3.64,-2.37,-3.64,3.64,3.51,3.49,1.27,1.27,1.27
482.91,-2.31,-3.58,-2.31,-3.58,3.58,3.45,3.49,1.27,1.27,1.27
487.74,-2.25,-3.51,-2.25,-3.51,3.51,3.38,3.49,1.26,1.26,1.26
492.62,-2.19,-3.45,-2.19,-3.45,3.44,3.32,3.48,1.25,1.25,1.26
497.55,-2.13,-3.37,-2.13,-3.37,3.37,3.25,3.47,1.24,1.24,1.24
502.52,-2.07,-3.30,-2.07,-3.30,3.29,3.19,3.45,1.23,1.23,1.23
507.55,-2.00,-3.22,-2.00,-3.22,3.21,3.12,3.43,1.21,1.21,1.21
512.62,-1.93,-3.13,-1.93,-3.13,3.14,3.06,3.41,1.20,1.20,1.20
517.75,-1.87,-3.05,-1.87,-3.05,3.06,3.00,3.38,1.19,1.19,1.18
522.93,-1.80,-2.97,-1.80,-2.97,2.97,2.94,3.36,1.17,1.17,1.17
