frequency,raw,error,smoothed,error_smoothed,equalization,parametric_eq,fixed_band_eq,equalized_raw,equalized_smoothed,target
20.00,5.79,-5.55,5.79,-5.55,5.54,5.31,2.43,11.33,11.33,11.34
20.20,5.83,-5.60,5.83,-5.60,5.60,5.45,2.50,11.42,11.42,11.42
20.40,5.86,-5.65,5.86,-5.65,5.65,5.60,2.57,11.51,11.51,11.50
20.61,5.89,-5.69,5.89,-5.69,5.70,5.72,2.65,11.59,11.59,11.58
20.81,5.92,-5.74,5.92,-5.74,5.74,5.84,2.72,11.66,11.66,11.66
21.02,5.95,-5.78,5.95,-5.78,5.79,5.91,2.80,11.74,11.74,11.73
21.23,5.98,-5.82,5.98,-5.82,5.83,5.98,2.88,11.80,11.80,11.80
21.44,6.01,-5.86,6.01,-5.86,5.86,6.00,2.96,11.87,11.87,11.86
21.66,6.03,-5.89,6.03,-5.89,5.90,6.01,3.05,11.93,11.93,11.93
21.87,6.06,-5.93,6.06,-5.93,5.93,5.98,3.14,11.99,11.99,11.98
22.09,6.08,-5.96,6.08,-5.96,5.95,5.95,3.22,12.04,12.04,12.04
22.31,6.11,-5.98,6.11,-5.98,5.97,5.91,3.32,12.08,12.08,12.09
22.54,6.13,-6.00,6.13,-6.01,5.99,5.87,3.41,12.12,12.12,12.14
22.76,6.15,-6.03,6.15,-6.02,6.00,5.89,3.51,12.15,12.15,12.18
22.99,6.18,-6.04,6.18,-6.04,6.00,5.90,3.61,12.18,12.18,12.22
23.22,6.20,-6.05,6.20,-6.05,6.01,5.95,3.71,12.20,12.20,12.25
23.45,6.22,-6.06,6.22,-6.06,6.01,6.01,3.81,12.23,12.23,12.28
23.69,6.24,-6.06,6.24,-6.06,6.01,6.06,3.92,12.25,12.25,12.31
23.92,6.26,-6.06,6.26,-6.06,6.01,6.11,4.03,12.27,12.27,12.33
24.16,6.28,-6.06,6.28,-6.06,6.01,6.13,4.14,12.29,12.29,12.34
24.40,6.30,-6.05,6.30,-6.05,6.01,6.14,4.25,12.31,12.31,12.35
24.65,6.32,-6.04,6.32,-6.04,6.00,6.12,4.37,12.33,12.33,12.36
24.89,6.34,-6.02,6.34,-6.02,5.99,6.09,4.48,12.34,12.34,12.36
25.14,6.36,-6.00,6.36,-6.00,5.98,6.05,4.60,12.34,12.34,12.36
25.39,6.38,-5.97,6.38,-5.97,5.96,5.99,4.72,12.34,12.34,12.35
25.65,6.40,-5.94,6.40,-5.94,5.93,5.93,4.84,12.34,12.34,12.34
25.91,6.42,-5.90,6.42,-5.90,5.90,5.87,4.95,12.32,12.32,12.32
26.16,6.44,-5.86,6.44,-5.86,5.86,5.81,5.07,12.30,12.30,12.30
26.43,6.46,-5.81,6.46,-5.81,5.81,5.74,5.19,12.28,12.28,12.28
26.69,6.48,-5.77,6.48,-5.76,5.77,5.68,5.31,12.25,12.25,12.25
26.96,6.50,-5.71,6.50,-5.71,5.71,5.62,5.42,12.21,12.21,12.22
27.23,6.52,-5.66,6.52,-5.66,5.66,5.57,5.54,12.18,12.18,12.18
27.50,6.54,-5.61,6.54,-5.61,5.61,5.51,5.65,12.15,12.15,12.15
27.77,6.56,-5.56,6.56,-5.56,5.56,5.47,5.76,12.11,12.11,12.11
28.05,6.57,-5.50,6.57,-5.50,5.50,5.42,5.86,12.08,12.08,12.07
28.33,6.59,-5.45,6.59,-5.45,5.45,5.38,5.96,12.04,12.04,12.04
28.62,6.61,-5.40,6.61,-5.40,5.40,5.35,6.05,12.01,12.01,12.01
28.90,6.62,-5.35,6.62,-5.35,5.35,5.32,6.14,11.98,11.98,11.98
29.19,6.64,-5.31,6.64,-5.31,5.31,5.28,6.22,11.95,11.95,11.95
29.48,6.65,-5.27,6.65,-5.27,5.27,5.26,6.30,11.92,11.92,11.92
29.78,6.66,-5.23,6.66,-5.23,5.23,5.24,6.37,11.90,11.90,11.90
30.08,6.68,-5.20,6.68,-5.20,5.20,5.22,6.42,11.88,11.88,11.88
30.38,6.69,-5.18,6.69,-5.18,5.18,5.20,6.48,11.87,11.87,11.87
30.68,6.70,-5.15,6.70,-5.15,5.15,5.19,6.51,11.86,11.86,11.86
30.99,6.71,-5.14,6.71,-5.14,5.14,5.17,6.55,11.85,11.85,11.85
31.30,6.72,-5.12,6.72,-5.12,5.12,5.16,6.57,11.85,11.85,11.85
31.61,6.74,-5.11,6.73,-5.11,5.11,5.15,6.59,11.85,11.85,11.85
31.93,6.74,-5.11,6.74,-5.11,5.11,5.15,6.59,11.85,11.85,11.85
32.24,6.75,-5.11,6.75,-5.11,5.11,5.14,6.59,11.86,11.86,11.86
32.57,6.76,-5.11,6.76,-5.11,5.11,5.14,6.57,11.87,11.87,11.87
32.89,6.77,-5.11,6.77,-5.11,5.11,5.13,6.55,11.88,11.88,11.88
33.22,6.78,-5.12,6.78,-5.12,5.12,5.13,6.52,11.90,11.90,11.90
33.55,6.79,-5.12,6.79,-5.12,5.12,5.13,6.48,11.91,11.91,11.91
33.89,6.80,-5.13,6.80,-5.13,5.13,5.13,6.44,11.93,11.93,11.93
34.23,6.80,-5.14,6.80,-5.14,5.14,5.13,6.39,11.94,11.94,11.94
34.57,6.81,-5.15,6.81,-5.15,5.15,5.13,6.34,11.96,11.96,11.96
34.92,6.82,-5.15,6.82,-5.15,5.15,5.13,6.28,11.97,11.97,11.97
35.27,6.83,-5.16,6.83,-5.16,5.16,5.13,6.21,11.98,11.98,11.98
35.62,6.83,-5.16,6.83,-5.16,5.16,5.13,6.15,12.00,12.00,12.00
35.97,6.84,-5.17,6.84,-5.17,5.17,5.13,6.08,12.00,12.00,12.01
36.33,6.84,-5.17,6.84,-5.17,5.17,5.13,6.01,12.01,12.01,12.01
36.70,6.85,-5.17,6.85,-5.17,5.17,5.13,5.94,12.02,12.02,12.02
37.06,6.85,-5.17,6.85,-5.17,5.17,5.14,5.86,12.02,12.02,12.02
37.43,6.86,-5.17,6.86,-5.17,5.17,5.14,5.79,12.02,12.02,12.02
37.81,6.86,-5.16,6.86,-5.16,5.16,5.14,5.72,12.03,12.03,12.03
38.19,6.86,-5.16,6.86,-5.16,5.16,5.14,5.65,12.02,12.02,12.02
38.57,6.87,-5.15,6.87,-5.16,5.16,5.14,5.58,12.02,12.02,12.02
38.95,6.87,-5.15,6.87,-5.15,5.15,5.14,5.51,12.02,12.02,12.02
39.34,6.87,-5.14,6.87,-5.14,5.14,5.14,5.45,12.01,12.01,12.01
39.74,6.87,-5.14,6.87,-5.14,5.14,5.14,5.38,12.01,12.01,12.01
40.14,6.87,-5.13,6.87,-5.13,5.13,5.13,5.32,12.00,12.00,12.00
40.54,6.87,-5.12,6.87,-5.12,5.12,5.13,5.26,11.99,11.99,11.99
40.94,6.87,-5.11,6.87,-5.11,5.12,5.13,5.21,11.99,11.99,11.99
41.35,6.87,-5.11,6.87,-5.11,5.11,5.13,5.16,11.98,11.98,11.98
41.76,6.87,-5.10,6.87,-5.10,5.10,5.12,5.11,11.97,11.97,11.97
42.18,6.86,-5.09,6.86,-5.09,5.09,5.12,5.06,11.95,11.95,11.95
42.60,6.86,-5.08,6.86,-5.08,5.08,5.11,5.02,11.94,11.94,11.94
43.03,6.86,-5.07,6.86,-5.07,5.07,5.10,4.98,11.93,11.93,11.93
43.46,6.85,-5.06,6.85,-5.06,5.06,5.10,4.95,11.91,11.91,11.91
43.90,6.85,-5.05,6.85,-5.05,5.04,5.09,4.92,11.89,11.89,11.89
44.33,6.84,-5.03,6.84,-5.03,5.03,5.08,4.89,11.87,11.87,11.87
44.78,6.84,-5.02,6.84,-5.02,5.02,5.07,4.87,11.85,11.85,11.85
45.23,6.83,-5.00,6.83,-5.00,5.00,5.06,4.85,11.83,11.83,11.83
45.68,6.82,-4.99,6.82,-4.99,4.99,5.05,4.84,11.81,11.81,11.81
46.13,6.81,-4.97,6.82,-4.97,4.97,5.04,4.82,11.79,11.79,11.79
46.60,6.81,-4.95,6.81,-4.95,4.95,5.03,4.82,11.76,11.76,11.76
47.06,6.80,-4.94,6.80,-4.94,4.94,5.01,4.81,11.74,11.74,11.74
47.53,6.79,-4.92,6.79,-4.92,4.92,5.00,4.81,11.71,11.71,11.71
48.01,6.78,-4.90,6.78,-4.90,4.90,4.98,4.81,11.68,11.68,11.68
48.49,6.77,-4.89,6.77,-4.89,4.89,4.97,4.82,11.66,11.66,11.66
48.97,6.76,-4.87,6.76,-4.87,4.87,4.95,4.83,11.63,11.63,11.63
49.46,6.75,-4.85,6.75,-4.85,4.85,4.94,4.84,11.61,11.61,11.61
49.96,6.74,-4.84,6.74,-4.84,4.84,4.92,4.85,11.58,11.58,11.58
50.46,6.73,-4.82,6.73,-4.82,4.82,4.90,4.87,11.55,11.55,11.55
50.96,6.72,-4.81,6.72,-4.81,4.81,4.88,4.88,11.53,11.53,11.53
51.47,6.70,-4.80,6.70,-4.80,4.80,4.86,4.90,11.50,11.50,11.50
51.99,6.69,-4.78,6.69,-4.78,4.78,4.84,4.92,11.47,11.47,11.47
52.51,6.68,-4.77,6.68,-4.77,4.77,4.82,4.95,11.45,11.45,11.45
53.03,6.67,-4.76,6.67,-4.76,4.76,4.80,4.97,11.42,11.42,11.42
53.56,6.65,-4.74,6.65,-4.74,4.74,4.78,4.99,11.40,11.40,11.40
54.10,6.64,-4.73,6.64,-4.73,4.73,4.76,5.02,11.37,11.37,11.37
54.64,6.62,-4.72,6.62,-4.72,4.72,4.73,5.04,11.35,11.35,11.35
55.18,6.61,-4.71,6.61,-4.71,4.71,4.71,5.06,11.32,11.32,11.32
55.74,6.59,-4.70,6.59,-4.70,4.70,4.69,5.08,11.30,11.30,11.30
56.29,6.58,-4.69,6.58,-4.69,4.69,4.66,5.10,11.27,11.27,11.27
56.86,6.56,-4.68,6.56,-4.68,4.68,4.64,5.12,11.25,11.25,11.25
57.42,6.55,-4.67,6.55,-4.67,4.67,4.62,5.13,11.22,11.22,11.22
58.00,6.53,-4.66,6.53,-4.66,4.66,4.59,5.14,11.19,11.19,11.19
58.58,6.51,-4.65,6.51,-4.65,4.65,4.57,5.15,11.17,11.17,11.17
59.16,6.50,-4.64,6.50,-4.64,4.64,4.55,5.15,11.14,11.14,11.14
59.76,6.48,-4.63,6.48,-4.63,4.63,4.52,5.15,11.11,11.11,11.11
60.35,6.46,-4.62,6.46,-4.62,4.62,4.50,5.14,11.08,11.08,11.08
60.96,6.44,-4.61,6.44,-4.61,4.61,4.48,5.13,11.05,11.05,11.05
61.57,6.42,-4.59,6.42,-4.59,4.59,4.46,5.12,11.01,11.01,11.01
62.18,6.40,-4.57,6.40,-4.57,4.57,4.43,5.09,10.98,10.98,10.98
62.80,6.38,-4.56,6.38,-4.56,4.56,4.41,5.07,10.94,10.94,10.94
63.43,6.36,-4.54,6.36,-4.54,4.54,4.39,5.03,10.90,10.90,10.90
64.07,6.34,-4.51,6.34,-4.51,4.51,4.37,5.00,10.85,10.85,10.85
64.71,6.32,-4.49,6.32,-4.49,4.49,4.35,4.95,10.81,10.81,10.81
65.35,6.30,-4.47,6.30,-4.47,4.47,4.34,4.91,10.76,10.76,10.76
66.01,6.27,-4.44,6.27,-4.44,4.44,4.32,4.85,10.72,10.72,10.72
66.67,6.25,-4.42,6.25,-4.42,4.42,4.31,4.79,10.67,10.67,10.67
67.33,6.23,-4.39,6.23,-4.39,4.39,4.29,4.73,10.62,10.62,10.62
68.01,6.20,-4.37,6.20,-4.37,4.37,4.28,4.66,10.57,10.57,10.57
68.69,6.18,-4.34,6.18,-4.34,4.34,4.27,4.59,10.52,10.52,10.52
69.37,6.15,-4.32,6.15,-4.32,4.32,4.26,4.52,10.48,10.48,10.47
70.07,6.13,-4.30,6.13,-4.30,4.30,4.26,4.44,10.43,10.43,10.43
70.77,6.10,-4.28,6.10,-4.28,4.28,4.25,4.37,10.38,10.38,10.38
71.48,6.07,-4.27,6.07,-4.27,4.27,4.25,4.28,10.34,10.34,10.34
72.19,6.04,-4.25,6.04,-4.25,4.26,4.25,4.20,10.30,10.30,10.30
72.91,6.01,-4.24,6.01,-4.24,4.24,4.25,4.12,10.26,10.26,10.26
73.64,5.98,-4.23,5.98,-4.23,4.24,4.26,4.03,10.22,10.22,10.22
74.38,5.95,-4.23,5.95,-4.23,4.23,4.26,3.95,10.18,10.18,10.18
75.12,5.92,-4.23,5.92,-4.23,4.23,4.27,3.86,10.14,10.14,10.14
75.87,5.88,-4.22,5.88,-4.22,4.22,4.28,3.78,10.11,10.11,10.11
76.63,5.85,-4.22,5.85,-4.22,4.22,4.29,3.69,10.07,10.07,10.07
77.40,5.81,-4.22,5.81,-4.22,4.23,4.30,3.61,10.04,10.04,10.04
78.17,5.78,-4.23,5.78,-4.23,4.23,4.31,3.52,10.00,10.00,10.00
78.95,5.74,-4.23,5.74,-4.23,4.23,4.32,3.44,9.97,9.97,9.97
79.74,5.70,-4.23,5.70,-4.23,4.23,4.32,3.36,9.93,9.93,9.93
80.54,5.66,-4.23,5.66,-4.23,4.23,4.33,3.28,9.89,9.89,9.89
81.35,5.62,-4.23,5.62,-4.23,4.23,4.33,3.20,9.85,9.85,9.85
82.16,5.58,-4.22,5.58,-4.22,4.22,4.32,3.13,9.80,9.80,9.80
82.98,5.54,-4.21,5.54,-4.21,4.21,4.31,3.05,9.75,9.75,9.75
83.81,5.50,-4.20,5.50,-4.20,4.20,4.28,2.98,9.69,9.69,9.69
84.65,5.45,-4.18,5.45,-4.18,4.18,4.26,2.91,9.63,9.63,9.63
85.50,5.41,-4.15,5.41,-4.15,4.15,4.22,2.84,9.57,9.57,9.57
86.35,5.37,-4.12,5.37,-4.12,4.12,4.17,2.77,9.49,9.49,9.49
87.22,5.33,-4.09,5.33,-4.09,4.08,4.11,2.71,9.41,9.41,9.42
88.09,5.29,-4.04,5.29,-4.04,4.04,4.05,2.64,9.33,9.33,9.33
88.97,5.25,-3.99,5.25,-3.99,3.98,3.97,2.58,9.24,9.24,9.24
89.86,5.21,-3.93,5.21,-3.92,3.92,3.89,2.52,9.14,9.14,9.14
90.76,5.18,-3.86,5.18,-3.86,3.85,3.80,2.46,9.03,9.03,9.03
91.66,5.14,-3.78,5.14,-3.78,3.78,3.70,2.41,8.92,8.92,8.92
92.58,5.11,-3.69,5.11,-3.69,3.69,3.60,2.35,8.80,8.80,8.80
93.51,5.08,-3.60,5.08,-3.60,3.60,3.49,2.30,8.68,8.68,8.68
94.44,5.05,-3.50,5.05,-3.50,3.50,3.38,2.25,8.55,8.55,8.55
95.39,5.02,-3.39,5.02,-3.39,3.39,3.28,2.20,8.41,8.41,8.41
96.34,4.99,-3.28,4.99,-3.28,3.28,3.16,2.16,8.28,8.28,8.28
97.30,4.97,-3.17,4.97,-3.17,3.17,3.05,2.11,8.14,8.14,8.13
98.28,4.94,-3.05,4.94,-3.05,3.05,2.94,2.07,7.99,7.99,7.99
99.26,4.92,-2.93,4.92,-2.93,2.93,2.83,2.03,7.85,7.85,7.85
100.25,4.89,-2.81,4.89,-2.81,2.81,2.73,1.99,7.70,7.70,7.70
101.25,4.86,-2.68,4.86,-2.68,2.68,2.62,1.95,7.55,7.55,7.55
102.27,4.84,-2.56,4.84,-2.56,2.56,2.52,1.91,7.40,7.40,7.40
103.29,4.81,-2.44,4.81,-2.44,2.44,2.42,1.87,7.25,7.25,7.25
104.32,4.78,-2.31,4.78,-2.31,2.31,2.32,1.84,7.10,7.10,7.10
105.37,4.75,-2.19,4.75,-2.19,2.19,2.22,1.80,6.95,6.95,6.95
106.42,4.72,-2.07,4.72,-2.07,2.07,2.13,1.77,6.80,6.80,6.80
107.48,4.69,-1.96,4.69,-1.96,1.96,2.04,1.74,6.65,6.65,6.65
108.56,4.66,-1.84,4.66,-1.84,1.84,1.95,1.70,6.50,6.50,6.50
109.64,4.63,-1.73,4.63,-1.73,1.73,1.86,1.67,6.36,6.36,6.36
110.74,4.59,-1.62,4.59,-1.62,1.62,1.78,1.64,6.22,6.22,6.22
111.85,4.56,-1.52,4.56,-1.52,1.52,1.70,1.61,6.08,6.08,6.08
112.97,4.52,-1.42,4.52,-1.42,1.42,1.62,1.57,5.94,5.94,5.94
114.10,4.49,-1.32,4.49,-1.32,1.32,1.54,1.54,5.81,5.81,5.81
115.24,4.45,-1.23,4.45,-1.23,1.23,1.46,1.51,5.68,5.68,5.68
116.39,4.41,-1.15,4.41,-1.15,1.15,1.39,1.48,5.56,5.56,5.56
117.55,4.37,-1.07,4.37,-1.07,1.07,1.32,1.44,5.44,5.44,5.44
118.73,4.33,-1.00,4.33,-0.99,1.00,1.24,1.41,5.33,5.33,5.33
119.92,4.29,-0.93,4.29,-0.93,0.93,1.17,1.37,5.22,5.22,5.22
121.12,4.25,-0.86,4.25,-0.86,0.86,1.10,1.34,5.12,5.12,5.11
122.33,4.21,-0.81,4.21,-0.80,0.81,1.04,1.30,5.02,5.02,5.02
123.55,4.17,-0.75,4.17,-0.75,0.75,0.97,1.26,4.92,4.92,4.92
124.79,4.13,-0.70,4.13,-0.70,0.70,0.90,1.22,4.83,4.83,4.83
126.03,4.09,-0.66,4.09,-0.66,0.66,0.84,1.18,4.74,4.74,4.74
127.29,4.04,-0.62,4.04,-0.62,0.62,0.77,1.14,4.66,4.66,4.66
128.57,4.00,-0.58,4.00,-0.58,0.58,0.71,1.10,4.58,4.58,4.58
129.85,3.96,-0.54,3.96,-0.54,0.54,0.65,1.06,4.50,4.50,4.50
131.15,3.92,-0.51,3.92,-0.51,0.51,0.58,1.01,4.43,4.43,4.43
132.46,3.87,-0.48,3.87,-0.48,0.48,0.52,0.97,4.35,4.35,4.35
133.79,3.83,-0.45,3.83,-0.45,0.45,0.46,0.92,4.28,4.28,4.28
135.12,3.79,-0.42,3.79,-0.42,0.42,0.40,0.87,4.21,4.21,4.21
136.48,3.75,-0.39,3.75,-0.39,0.39,0.34,0.82,4.14,4.14,4.14
137.84,3.71,-0.36,3.71,-0.36,0.36,0.27,0.77,4.06,4.06,4.06
139.22,3.67,-0.32,3.67,-0.32,0.32,0.21,0.72,3.99,3.99,3.99
140.61,3.62,-0.29,3.62,-0.29,0.29,0.15,0.67,3.91,3.91,3.91
142.02,3.58,-0.25,3.58,-0.25,0.25,0.09,0.61,3.84,3.84,3.84
143.44,3.54,-0.21,3.54,-0.21,0.21,0.03,0.56,3.76,3.76,3.76
144.87,3.50,-0.17,3.50,-0.17,0.17,-0.03,0.51,3.67,3.67,3.67
146.32,3.46,-0.13,3.46,-0.13,0.12,-0.09,0.45,3.59,3.59,3.59
147.78,3.42,-0.08,3.42,-0.08,0.08,-0.16,0.39,3.50,3.50,3.50
149.26,3.38,-0.02,3.38,-0.02,0.02,-0.22,0.34,3.40,3.40,3.40
150.75,3.34,0.03,3.34,0.03,-0.03,-0.28,0.28,3.31,3.31,3.31
152.26,3.30,0.10,3.30,0.09,-0.10,-0.34,0.22,3.20,3.20,3.20
153.78,3.26,0.16,3.26,0.16,-0.16,-0.41,0.16,3.10,3.10,3.10
155.32,3.22,0.23,3.22,0.23,-0.23,-0.47,0.10,2.99,2.99,2.99
156.88,3.18,0.30,3.18,0.30,-0.31,-0.54,0.04,2.87,2.87,2.87
158.44,3.14,0.38,3.14,0.38,-0.38,-0.60,-0.02,2.76,2.76,2.76
160.03,3.10,0.46,3.10,0.47,-0.47,-0.67,-0.08,2.63,2.63,2.63
161.63,3.06,0.55,3.06,0.55,-0.55,-0.74,-0.15,2.51,2.51,2.51
163.24,3.02,0.64,3.02,0.64,-0.64,-0.81,-0.21,2.38,2.38,2.38
164.88,2.98,0.73,2.98,0.73,-0.73,-0.88,-0.27,2.25,2.25,2.25
166.53,2.94,0.82,2.94,0.82,-0.82,-0.95,-0.34,2.12,2.12,2.12
168.19,2.90,0.92,2.90,0.92,-0.92,-1.02,-0.40,1.98,1.98,1.98
169.87,2.86,1.01,2.86,1.02,-1.01,-1.09,-0.47,1.84,1.85,1.85
171.57,2.82,1.11,2.82,1.11,-1.11,-1.16,-0.53,1.71,1.71,1.71
173.29,2.78,1.21,2.78,1.21,-1.21,-1.24,-0.60,1.57,1.57,1.57
175.02,2.74,1.31,2.74,1.31,-1.32,-1.31,-0.67,1.42,1.42,1.43
176.77,2.70,1.42,2.70,1.42,-1.42,-1.39,-0.73,1.28,1.28,1.28
178.54,2.66,1.52,2.66,1.52,-1.52,-1.46,-0.80,1.14,1.14,1.14
180.32,2.62,1.62,2.62,1.62,-1.62,-1.54,-0.87,0.99,0.99,0.99
182.13,2.58,1.73,2.58,1.73,-1.73,-1.62,-0.94,0.85,0.85,0.85
183.95,2.53,1.83,2.53,1.83,-1.83,-1.69,-1.01,0.70,0.71,0.71
185.79,2.49,1.93,2.49,1.93,-1.93,-1.77,-1.08,0.56,0.56,0.56
187.65,2.45,2.02,2.45,2.02,-2.02,-1.85,-1.16,0.43,0.43,0.43
189.52,2.41,2.11,2.41,2.11,-2.11,-1.93,-1.23,0.29,0.30,0.29
191.42,2.37,2.20,2.37,2.20,-2.20,-2.00,-1.30,0.17,0.17,0.17
193.33,2.32,2.28,2.32,2.28,-2.28,-2.08,-1.37,0.05,0.05,0.04
195.27,2.28,2.35,2.28,2.35,-2.35,-2.15,-1.45,-0.07,-0.07,-0.07
197.22,2.24,2.41,2.24,2.41,-2.41,-2.22,-1.52,-0.18,-0.18,-0.18
199.19,2.19,2.47,2.19,2.47,-2.47,-2.29,-1.60,-0.28,-0.28,-0.28
201.18,2.15,2.52,2.15,2.52,-2.52,-2.36,-1.67,-0.37,-0.37,-0.37
203.19,2.11,2.56,2.11,2.56,-2.56,-2.42,-1.74,-0.45,-0.45,-0.45
205.23,2.07,2.60,2.07,2.60,-2.60,-2.48,-1.81,-0.53,-0.53,-0.53
207.28,2.02,2.63,2.02,2.62,-2.62,-2.54,-1.89,-0.60,-0.60,-0.60
209.35,1.98,2.65,1.98,2.65,-2.65,-2.59,-1.96,-0.67,-0.67,-0.67
211.44,1.94,2.66,1.94,2.66,-2.66,-2.63,-2.03,-0.72,-0.72,-0.72
213.56,1.89,2.67,1.89,2.67,-2.67,-2.67,-2.10,-0.78,-0.78,-0.78
215.69,1.85,2.67,1.85,2.67,-2.67,-2.71,-2.16,-0.82,-0.82,-0.82
217.85,1.80,2.67,1.80,2.67,-2.67,-2.73,-2.23,-0.86,-0.86,-0.86
220.03,1.76,2.66,1.76,2.66,-2.66,-2.75,-2.29,-0.90,-0.90,-0.90
222.23,1.72,2.65,1.72,2.65,-2.65,-2.77,-2.35,-0.94,-0.94,-0.93
224.45,1.68,2.64,1.68,2.64,-2.64,-2.78,-2.41,-0.97,-0.97,-0.97
226.70,1.63,2.63,1.63,2.63,-2.63,-2.77,-2.46,-0.99,-1.00,-0.99
228.96,1.59,2.61,1.59,2.61,-2.61,-2.77,-2.52,-1.02,-1.02,-1.02
231.25,1.55,2.59,1.55,2.59,-2.60,-2.76,-2.56,-1.05,-1.05,-1.05
233.57,1.51,2.58,1.51,2.58,-2.58,-2.74,-2.60,-1.07,-1.07,-1.07
235.90,1.46,2.56,1.46,2.56,-2.56,-2.71,-2.64,-1.10,-1.10,-1.09
238.26,1.42,2.54,1.42,2.54,-2.54,-2.68,-2.68,-1.12,-1.12,-1.12
240.64,1.38,2.52,1.38,2.52,-2.52,-2.65,-2.70,-1.14,-1.14,-1.14
243.05,1.34,2.50,1.34,2.50,-2.50,-2.61,-2.73,-1.16,-1.16,-1.16
245.48,1.30,2.48,1.30,2.48,-2.48,-2.57,-2.74,-1.17,-1.17,-1.17
247.93,1.27,2.45,1.26,2.45,-2.45,-2.52,-2.76,-1.19,-1.19,-1.19
250.41,1.23,2.43,1.23,2.43,-2.42,-2.47,-2.76,-1.20,-1.20,-1.20
252.92,1.19,2.40,1.19,2.40,-2.39,-2.42,-2.76,-1.21,-1.21,-1.21
255.45,1.15,2.36,1.15,2.36,-2.36,-2.37,-2.76,-1.21,-1.21,-1.21
258.00,1.11,2.33,1.11,2.33,-2.33,-2.31,-2.75,-1.21,-1.21,-1.21
260.58,1.08,2.29,1.08,2.29,-2.29,-2.25,-2.73,-1.21,-1.21,-1.21
263.19,1.04,2.25,1.04,2.25,-2.25,-2.20,-2.71,-1.21,-1.21,-1.21
265.82,1.00,2.21,1.00,2.21,-2.21,-2.14,-2.69,-1.20,-1.20,-1.20
268.48,0.97,2.16,0.97,2.16,-2.16,-2.08,-2.66,-1.19,-1.19,-1.19
271.16,0.93,2.12,0.93,2.12,-2.12,-2.03,-2.62,-1.18,-1.18,-1.18
273.87,0.90,2.07,0.90,2.07,-2.07,-1.97,-2.58,-1.17,-1.17,-1.17
276.61,0.86,2.02,0.86,2.02,-2.02,-1.91,-2.54,-1.16,-1.16,-1.16
279.38,0.82,1.96,0.82,1.96,-1.96,-1.86,-2.49,-1.14,-1.14,-1.14
282.17,0.79,1.91,0.79,1.91,-1.91,-1.80,-2.44,-1.12,-1.12,-1.12
284.99,0.75,1.85,0.75,1.85,-1.85,-1.75,-2.39,-1.10,-1.10,-1.10
287.84,0.72,1.80,0.72,1.80,-1.79,-1.70,-2.34,-1.08,-1.08,-1.08
290.72,0.68,1.74,0.68,1.74,-1.73,-1.65,-2.28,-1.05,-1.05,-1.06
293.63,0.65,1.68,0.65,1.68,-1.67,-1.60,-2.22,-1.03,-1.03,-1.03
296.57,0.61,1.61,0.61,1.61,-1.61,-1.55,-2.17,-1.00,-1.00,-1.00
299.53,0.58,1.55,0.58,1.55,-1.55,-1.50,-2.10,-0.98,-0.98,-0.98
302.53,0.54,1.49,0.54,1.49,-1.49,-1.45,-2.04,-0.95,-0.95,-0.95
305.55,0.51,1.43,0.51,1.43,-1.43,-1.41,-1.98,-0.93,-0.93,-0.92
308.61,0.48,1.38,0.48,1.38,-1.38,-1.37,-1.92,-0.90,-0.90,-0.90
311.69,0.44,1.33,0.44,1.33,-1.33,-1.32,-1.85,-0.89,-0.89,-0.88
314.81,0.41,1.28,0.41,1.28,-1.29,-1.28,-1.79,-0.88,-0.88,-0.87
317.96,0.38,1.24,0.38,1.24,-1.25,-1.24,-1.73,-0.87,-0.87,-0.86
321.14,0.35,1.21,0.35,1.21,-1.21,-1.21,-1.67,-0.87,-0.87,-0.86
324.35,0.31,1.18,0.31,1.18,-1.18,-1.17,-1.60,-0.87,-0.87,-0.86
327.59,0.28,1.16,0.28,1.15,-1.16,-1.13,-1.54,-0.87,-0.87,-0.87
330.87,0.25,1.13,0.25,1.13,-1.13,-1.10,-1.48,-0.88,-0.88,-0.88
334.18,0.22,1.11,0.22,1.11,-1.11,-1.06,-1.42,-0.89,-0.89,-0.89
337.52,0.19,1.09,0.19,1.09,-1.09,-1.03,-1.36,-0.90,-0.90,-0.90
340.90,0.16,1.07,0.16,1.07,-1.07,-1.00,-1.30,-0.91,-0.91,-0.92
344.30,0.13,1.05,0.13,1.05,-1.05,-0.97,-1.24,-0.92,-0.92,-0.92
347.75,0.10,1.03,0.10,1.03,-1.02,-0.93,-1.19,-0.92,-0.92,-0.93
351.23,0.07,1.00,0.07,1.00,-0.99,-0.90,-1.13,-0.92,-0.92,-0.93
354.74,0.04,0.96,0.04,0.96,-0.96,-0.88,-1.07,-0.92,-0.92,-0.92
358.28,0.01,0.92,0.01,0.92,-0.92,-0.85,-1.02,-0.91,-0.91,-0.92
361.87,-0.02,0.88,-0.02,0.88,-0.88,-0.82,-0.96,-0.90,-0.90,-0.90
365.49,-0.05,0.84,-0.05,0.84,-0.84,-0.79,-0.91,-0.89,-0.89,-0.89
369.14,-0.08,0.80,-0.08,0.80,-0.80,-0.77,-0.86,-0.87,-0.87,-0.87
372.83,-0.11,0.75,-0.11,0.75,-0.75,-0.74,-0.81,-0.86,-0.86,-0.86
376.56,-0.13,0.71,-0.13,0.71,-0.71,-0.71,-0.76,-0.84,-0.84,-0.84
380.33,-0.16,0.66,-0.16,0.66,-0.66,-0.69,-0.71,-0.83,-0.83,-0.83
384.13,-0.19,0.62,-0.19,0.62,-0.62,-0.66,-0.66,-0.81,-0.81,-0.81
387.97,-0.22,0.58,-0.22,0.58,-0.58,-0.64,-0.61,-0.80,-0.80,-0.80
391.85,-0.24,0.55,-0.24,0.55,-0.55,-0.62,-0.56,-0.79,-0.79,-0.79
395.77,-0.27,0.51,-0.27,0.51,-0.51,-0.59,-0.52,-0.78,-0.78,-0.78
399.73,-0.30,0.48,-0.30,0.48,-0.49,-0.57,-0.47,-0.78,-0.78,-0.78
403.72,-0.32,0.46,-0.32,0.46,-0.46,-0.55,-0.43,-0.78,-0.78,-0.78
407.76,-0.35,0.44,-0.35,0.44,-0.44,-0.52,-0.39,-0.79,-0.79,-0.79
411.84,-0.37,0.42,-0.37,0.42,-0.43,-0.50,-0.35,-0.80,-0.80,-0.79
415.96,-0.40,0.41,-0.40,0.41,-0.41,-0.48,-0.30,-0.81,-0.81,-0.81
420.12,-0.42,0.40,-0.42,0.40,-0.40,-0.45,-0.26,-0.82,-0.82,-0.82
424.32,-0.45,0.39,-0.45,0.39,-0.39,-0.43,-0.23,-0.83,-0.83,-0.83
428.56,-0.47,0.38,-0.47,0.38,-0.37,-0.41,-0.19,-0.84,-0.84,-0.84
432.85,-0.49,0.36,-0.49,0.36,-0.35,-0.39,-0.15,-0.85,-0.85,-0.85
437.18,-0.52,0.34,-0.52,0.34,-0.33,-0.36,-0.12,-0.85,-0.85,-0.85
441.55,-0.54,0.31,-0.54,0.31,-0.30,-0.34,-0.08,-0.84,-0.84,-0.85
445.96,-0.56,0.28,-0.56,0.28,-0.27,-0.32,-0.05,-0.83,-0.83,-0.84
450.42,-0.58,0.24,-0.58,0.24,-0.24,-0.30,-0.02,-0.82,-0.82,-0.82
454.93,-0.60,0.20,-0.60,0.20,-0.20,-0.28,0.01,-0.80,-0.80,-0.80
459.48,-0.63,0.16,-0.63,0.16,-0.16,-0.25,0.04,-0.78,-0.78,-0.78
464.07,-0.65,0.12,-0.65,0.12,-0.12,-0.23,0.07,-0.77,-0.77,-0.76
468.71,-0.67,0.08,-0.67,0.08,-0.08,-0.21,0.09,-0.75,-0.75,-0.75
473.40,-0.69,0.04,-0.69,0.04,-0.05,-0.19,0.12,-0.74,-0.74,-0.73
478.13,-0.71,0.02,-0.71,0.02,-0.02,-0.16,0.14,-0.73,-0.73,-0.73
482.91,-0.73,0.00,-0.73,0.00,-0.01,-0.14,0.16,-0.73,-0.73,-0.73
487.74,-0.75,-0.01,-0.75,-0.01,0.01,-0.12,0.18,-0.74,-0.74,-0.74
492.62,-0.77,-0.02,-0.77,-0.01,0.01,-0.10,0.19,-0.76,-0.76,-0.75
497.55,-0.79,-0.01,-0.79,-0.01,0.01,-0.08,0.21,-0.77,-0.77,-0.77
