frequency,raw,error,smoothed,error_smoothed,equalization,parametric_eq,fixed_band_eq,equalized_raw,equalized_smoothed,target
20.00,15.63,6.53,15.64,6.54,-6.92,-6.71,-1.98,8.71,8.72,9.11
20.20,15.73,6.62,15.73,6.62,-6.67,-6.66,-2.04,9.06,9.06,9.11
20.40,15.75,6.63,15.74,6.61,-6.44,-6.61,-2.09,9.32,9.31,9.13
20.61,15.69,6.54,15.67,6.52,-6.22,-6.45,-2.16,9.47,9.45,9.15
20.81,15.49,6.31,15.49,6.31,-6.03,-6.29,-2.22,9.46,9.46,9.18
21.02,15.25,6.04,15.24,6.04,-5.86,-6.10,-2.28,9.39,9.39,9.21
21.23,14.97,5.73,14.98,5.74,-5.71,-5.92,-2.35,9.26,9.27,9.24
21.44,14.73,5.46,14.74,5.47,-5.58,-5.76,-2.42,9.15,9.16,9.27
21.66,14.57,5.27,14.56,5.26,-5.41,-5.60,-2.49,9.16,9.15,9.30
21.87,14.45,5.12,14.48,5.15,-5.29,-5.47,-2.56,9.16,9.19,9.33
22.09,14.48,5.12,14.48,5.12,-5.23,-5.35,-2.64,9.25,9.26,9.36
22.31,14.57,5.18,14.56,5.17,-5.22,-5.26,-2.71,9.35,9.35,9.39
22.54,14.69,5.27,14.69,5.27,-5.24,-5.16,-2.79,9.45,9.45,9.42
22.76,14.82,5.36,14.81,5.36,-5.29,-5.08,-2.87,9.53,9.52,9.45
22.99,14.91,5.43,14.90,5.42,-5.33,-5.01,-2.95,9.59,9.57,9.48
23.22,14.95,5.43,14.94,5.43,-5.35,-4.95,-3.04,9.60,9.60,9.51
23.45,14.94,5.39,14.94,5.39,-5.34,-4.89,-3.12,9.60,9.60,9.54
23.69,14.89,5.32,14.89,5.32,-5.30,-4.84,-3.21,9.60,9.59,9.57
23.92,14.82,5.22,14.82,5.22,-5.23,-4.79,-3.30,9.59,9.59,9.60
24.16,14.75,5.12,14.75,5.12,-5.15,-4.75,-3.39,9.60,9.60,9.63
24.40,14.68,5.02,14.69,5.02,-5.06,-4.71,-3.49,9.62,9.62,9.66
24.65,14.63,4.94,14.63,4.94,-4.97,-4.67,-3.58,9.66,9.66,9.69
24.89,14.59,4.88,14.60,4.88,-4.89,-4.64,-3.68,9.70,9.70,9.72
25.14,14.57,4.82,14.57,4.82,-4.82,-4.61,-3.77,9.75,9.74,9.75
25.39,14.54,4.77,14.54,4.77,-4.76,-4.58,-3.87,9.79,9.78,9.77
25.65,14.51,4.71,14.51,4.71,-4.70,-4.55,-3.97,9.82,9.81,9.80
25.91,14.48,4.65,14.48,4.65,-4.64,-4.53,-4.06,9.84,9.84,9.82
26.16,14.44,4.59,14.44,4.59,-4.59,-4.50,-4.16,9.85,9.85,9.85
26.43,14.40,4.53,14.41,4.53,-4.54,-4.48,-4.26,9.87,9.87,9.87
26.69,14.37,4.48,14.37,4.48,-4.49,-4.46,-4.35,9.88,9.88,9.90
26.96,14.35,4.43,14.35,4.43,-4.45,-4.44,-4.44,9.90,9.90,9.92
27.23,14.33,4.40,14.33,4.40,-4.40,-4.42,-4.54,9.93,9.93,9.94
27.50,14.32,4.36,14.32,4.36,-4.36,-4.40,-4.63,9.96,9.96,9.96
27.77,14.31,4.33,14.31,4.33,-4.32,-4.38,-4.71,9.99,9.99,9.97
28.05,14.29,4.30,14.28,4.29,-4.27,-4.37,-4.80,10.01,10.01,9.99
28.33,14.25,4.25,14.25,4.25,-4.23,-4.35,-4.87,10.02,10.02,10.00
28.62,14.21,4.20,14.21,4.20,-4.18,-4.33,-4.95,10.03,10.03,10.02
28.90,14.17,4.14,14.17,4.14,-4.14,-4.32,-5.02,10.03,10.03,10.03
29.19,14.12,4.09,14.12,4.09,-4.10,-4.30,-5.08,10.02,10.02,10.03
29.48,14.08,4.04,14.09,4.05,-4.08,-4.29,-5.14,10.01,10.01,10.04
29.78,14.06,4.03,14.06,4.03,-4.06,-4.27,-5.19,10.01,10.01,10.04
30.08,14.05,4.02,14.06,4.02,-4.05,-4.26,-5.23,10.00,10.01,10.03
30.38,14.06,4.04,14.06,4.04,-4.05,-4.24,-5.27,10.01,10.01,10.02
30.68,14.07,4.06,14.07,4.06,-4.05,-4.23,-5.30,10.02,10.02,10.01
30.99,14.07,4.08,14.07,4.08,-4.06,-4.21,-5.33,10.02,10.02,10.00
31.30,14.06,4.08,14.06,4.08,-4.05,-4.20,-5.34,10.01,10.01,9.98
31.61,14.03,4.07,14.03,4.06,-4.04,-4.18,-5.35,9.99,9.99,9.96
31.93,13.98,4.03,13.97,4.03,-4.01,-4.17,-5.34,9.97,9.97,9.94
32.24,13.90,3.98,13.90,3.98,-3.96,-4.16,-5.34,9.94,9.94,9.93
32.57,13.82,3.92,13.82,3.92,-3.91,-4.14,-5.32,9.92,9.92,9.91
32.89,13.74,3.85,13.74,3.85,-3.85,-4.13,-5.30,9.89,9.89,9.89
33.22,13.66,3.79,13.65,3.79,-3.80,-4.11,-5.26,9.86,9.86,9.87
33.55,13.58,3.73,13.58,3.73,-3.75,-4.10,-5.23,9.83,9.83,9.85
33.89,13.52,3.69,13.52,3.69,-3.72,-4.08,-5.19,9.80,9.80,9.83
34.23,13.49,3.68,13.49,3.68,-3.71,-4.07,-5.14,9.78,9.78,9.81
34.57,13.47,3.68,13.47,3.69,-3.71,-4.06,-5.09,9.76,9.76,9.79
34.92,13.48,3.71,13.48,3.71,-3.73,-4.04,-5.03,9.75,9.75,9.77
35.27,13.50,3.75,13.50,3.75,-3.75,-4.03,-4.97,9.75,9.75,9.75
35.62,13.52,3.80,13.52,3.80,-3.77,-4.01,-4.91,9.75,9.75,9.73
35.97,13.53,3.83,13.53,3.83,-3.79,-4.00,-4.84,9.74,9.74,9.70
36.33,13.52,3.84,13.52,3.84,-3.81,-3.98,-4.78,9.71,9.71,9.68
36.70,13.49,3.83,13.49,3.83,-3.82,-3.97,-4.71,9.68,9.67,9.66
37.06,13.46,3.82,13.46,3.82,-3.82,-3.95,-4.64,9.63,9.63,9.64
37.43,13.41,3.80,13.42,3.80,-3.82,-3.94,-4.57,9.59,9.60,9.62
37.81,13.39,3.79,13.39,3.79,-3.81,-3.92,-4.50,9.57,9.57,9.59
38.19,13.36,3.79,13.36,3.79,-3.81,-3.91,-4.43,9.55,9.56,9.57
38.57,13.34,3.80,13.34,3.80,-3.80,-3.89,-4.36,9.55,9.54,9.55
38.95,13.32,3.80,13.32,3.80,-3.79,-3.88,-4.29,9.53,9.53,9.52
39.34,13.29,3.79,13.29,3.79,-3.78,-3.86,-4.23,9.51,9.51,9.50
39.74,13.25,3.78,13.25,3.78,-3.77,-3.85,-4.16,9.49,9.48,9.47
40.14,13.21,3.76,13.21,3.76,-3.75,-3.83,-4.10,9.46,9.46,9.45
40.54,13.16,3.74,13.16,3.74,-3.73,-3.82,-4.04,9.43,9.43,9.42
40.94,13.12,3.72,13.11,3.72,-3.71,-3.80,-3.98,9.40,9.40,9.40
41.35,13.07,3.69,13.06,3.69,-3.69,-3.79,-3.92,9.37,9.37,9.37
41.76,13.01,3.67,13.01,3.67,-3.68,-3.77,-3.87,9.33,9.33,9.35
42.18,12.97,3.65,12.97,3.65,-3.67,-3.75,-3.82,9.30,9.30,9.32
42.60,12.93,3.64,12.94,3.64,-3.67,-3.74,-3.77,9.27,9.27,9.29
43.03,12.92,3.65,12.92,3.65,-3.67,-3.72,-3.72,9.25,9.25,9.27
43.46,12.91,3.67,12.91,3.67,-3.66,-3.71,-3.68,9.25,9.25,9.24
43.90,12.90,3.68,12.89,3.68,-3.66,-3.69,-3.64,9.24,9.24,9.21
44.33,12.87,3.68,12.86,3.68,-3.64,-3.67,-3.60,9.22,9.22,9.19
44.78,12.81,3.66,12.81,3.65,-3.63,-3.66,-3.56,9.19,9.19,9.16
45.23,12.74,3.62,12.74,3.62,-3.60,-3.64,-3.53,9.14,9.14,9.13
45.68,12.67,3.57,12.67,3.57,-3.58,-3.62,-3.50,9.09,9.09,9.10
46.13,12.59,3.52,12.60,3.53,-3.55,-3.61,-3.47,9.04,9.04,9.07
46.60,12.54,3.50,12.54,3.50,-3.53,-3.59,-3.45,9.01,9.01,9.04
47.06,12.50,3.49,12.50,3.49,-3.50,-3.57,-3.43,8.99,8.99,9.01
47.53,12.46,3.48,12.46,3.48,-3.48,-3.56,-3.41,8.98,8.98,8.98
48.01,12.43,3.48,12.43,3.48,-3.47,-3.54,-3.39,8.96,8.96,8.95
48.49,12.39,3.48,12.39,3.47,-3.46,-3.52,-3.38,8.94,8.94,8.92
48.97,12.35,3.46,12.35,3.46,-3.44,-3.51,-3.36,8.90,8.90,8.89
49.46,12.29,3.44,12.29,3.44,-3.43,-3.49,-3.35,8.86,8.86,8.86
49.96,12.23,3.41,12.24,3.41,-3.42,-3.47,-3.35,8.82,8.82,8.82
50.46,12.18,3.39,12.18,3.39,-3.40,-3.45,-3.34,8.78,8.78,8.79
50.96,12.14,3.38,12.14,3.38,-3.39,-3.44,-3.34,8.75,8.75,8.76
51.47,12.10,3.37,12.10,3.37,-3.37,-3.42,-3.33,8.72,8.72,8.73
51.99,12.06,3.37,12.06,3.37,-3.37,-3.40,-3.33,8.69,8.69,8.69
52.51,12.02,3.36,12.02,3.36,-3.36,-3.38,-3.33,8.66,8.66,8.66
53.03,11.98,3.36,11.99,3.36,-3.37,-3.37,-3.33,8.62,8.62,8.62
53.56,11.95,3.36,11.95,3.36,-3.37,-3.35,-3.33,8.58,8.58,8.59
54.10,11.92,3.37,11.92,3.37,-3.37,-3.33,-3.33,8.55,8.55,8.55
54.64,11.90,3.38,11.90,3.38,-3.38,-3.31,-3.34,8.52,8.52,8.52
55.18,11.87,3.39,11.87,3.38,-3.38,-3.29,-3.34,8.49,8.49,8.48
55.74,11.83,3.39,11.83,3.39,-3.38,-3.28,-3.34,8.45,8.45,8.45
56.29,11.79,3.38,11.79,3.38,-3.37,-3.26,-3.34,8.42,8.42,8.41
56.86,11.74,3.37,11.74,3.37,-3.36,-3.24,-3.34,8.38,8.38,8.37
57.42,11.69,3.35,11.69,3.35,-3.34,-3.22,-3.34,8.34,8.34,8.34
58.00,11.62,3.33,11.62,3.32,-3.32,-3.20,-3.34,8.30,8.30,8.30
58.58,11.55,3.29,11.55,3.29,-3.29,-3.19,-3.34,8.26,8.26,8.26
59.16,11.48,3.26,11.48,3.26,-3.26,-3.17,-3.33,8.22,8.22,8.22
59.76,11.40,3.22,11.40,3.22,-3.23,-3.15,-3.33,8.18,8.18,8.18
60.35,11.33,3.19,11.33,3.19,-3.20,-3.14,-3.32,8.14,8.14,8.14
60.96,11.27,3.16,11.27,3.16,-3.17,-3.12,-3.31,8.10,8.10,8.10
61.57,11.20,3.14,11.20,3.14,-3.15,-3.10,-3.30,8.06,8.06,8.06
62.18,11.15,3.12,11.15,3.12,-3.13,-3.09,-3.28,8.02,8.02,8.02
62.80,11.09,3.11,11.09,3.11,-3.11,-3.07,-3.27,7.98,7.98,7.98
63.43,11.04,3.10,11.04,3.10,-3.10,-3.06,-3.25,7.94,7.94,7.94
64.07,10.99,3.09,10.99,3.09,-3.09,-3.05,-3.23,7.90,7.90,7.90
64.71,10.94,3.08,10.94,3.08,-3.07,-3.03,-3.20,7.86,7.86,7.86
65.35,10.88,3.07,10.88,3.07,-3.06,-3.02,-3.18,7.82,7.82,7.81
66.01,10.83,3.05,10.83,3.05,-3.05,-3.01,-3.15,7.78,7.77,7.77
66.67,10.77,3.04,10.77,3.04,-3.04,-3.00,-3.12,7.73,7.73,7.73
67.33,10.71,3.02,10.71,3.02,-3.03,-2.99,-3.09,7.68,7.68,7.69
68.01,10.65,3.01,10.66,3.01,-3.02,-2.98,-3.06,7.63,7.64,7.64
68.69,10.61,3.01,10.61,3.01,-3.01,-2.98,-3.02,7.59,7.59,7.60
69.37,10.56,3.00,10.56,3.00,-3.01,-2.97,-2.99,7.55,7.55,7.55
70.07,10.51,3.00,10.51,3.00,-3.00,-2.97,-2.95,7.51,7.51,7.51
70.77,10.46,3.00,10.46,3.00,-2.99,-2.96,-2.91,7.47,7.47,7.46
71.48,10.41,2.99,10.41,2.99,-2.99,-2.96,-2.87,7.42,7.42,7.42
72.19,10.36,2.99,10.36,2.99,-2.99,-2.95,-2.83,7.37,7.37,7.37
72.91,10.30,2.98,10.30,2.98,-2.98,-2.95,-2.79,7.32,7.33,7.33
73.64,10.25,2.97,10.25,2.97,-2.97,-2.95,-2.76,7.28,7.28,7.28
74.38,10.20,2.97,10.20,2.97,-2.97,-2.95,-2.72,7.23,7.23,7.23
75.12,10.14,2.96,10.14,2.96,-2.96,-2.95,-2.68,7.19,7.18,7.19
75.87,10.09,2.95,10.09,2.95,-2.95,-2.94,-2.64,7.14,7.14,7.14
76.63,10.03,2.94,10.03,2.94,-2.94,-2.94,-2.60,7.09,7.09,7.09
77.40,9.97,2.93,9.98,2.93,-2.94,-2.94,-2.57,7.04,7.04,7.04
78.17,9.92,2.93,9.92,2.93,-2.93,-2.94,-2.53,6.99,6.99,6.99
78.95,9.87,2.92,9.86,2.92,-2.92,-2.94,-2.50,6.95,6.95,6.95
79.74,9.81,2.91,9.81,2.91,-2.91,-2.93,-2.46,6.90,6.90,6.90
80.54,9.75,2.90,9.75,2.90,-2.89,-2.93,-2.43,6.85,6.85,6.85
81.35,9.68,2.88,9.68,2.88,-2.88,-2.93,-2.40,6.80,6.80,6.80
82.16,9.62,2.87,9.62,2.87,-2.87,-2.92,-2.37,6.75,6.75,6.75
82.98,9.55,2.85,9.55,2.85,-2.85,-2.92,-2.34,6.70,6.70,6.70
83.81,9.49,2.84,9.49,2.84,-2.84,-2.91,-2.32,6.65,6.65,6.65
84.65,9.43,2.83,9.43,2.83,-2.83,-2.91,-2.29,6.60,6.60,6.60
85.50,9.37,2.82,9.37,2.82,-2.82,-2.90,-2.27,6.54,6.54,6.55
86.35,9.31,2.81,9.31,2.81,-2.82,-2.89,-2.25,6.49,6.49,6.50
87.22,9.26,2.81,9.26,2.81,-2.82,-2.88,-2.23,6.44,6.44,6.45
88.09,9.20,2.81,9.21,2.81,-2.81,-2.87,-2.21,6.40,6.40,6.40
88.97,9.16,2.81,9.16,2.81,-2.80,-2.86,-2.19,6.36,6.36,6.35
89.86,9.11,2.81,9.11,2.81,-2.78,-2.85,-2.18,6.33,6.32,6.30
90.76,9.05,2.80,9.05,2.80,-2.77,-2.83,-2.16,6.28,6.28,6.25
91.66,8.97,2.78,8.97,2.77,-2.75,-2.82,-2.15,6.22,6.22,6.20
92.58,8.89,2.74,8.89,2.74,-2.74,-2.81,-2.14,6.15,6.15,6.15
93.51,8.81,2.71,8.81,2.71,-2.75,-2.79,-2.13,6.06,6.06,6.10
94.44,8.75,2.70,8.75,2.71,-2.77,-2.77,-2.13,5.98,5.99,6.05
95.39,8.72,2.72,8.72,2.73,-2.80,-2.76,-2.12,5.92,5.93,6.00
96.34,8.72,2.78,8.73,2.79,-2.84,-2.74,-2.12,5.89,5.89,5.95
97.30,8.76,2.87,8.77,2.87,-2.88,-2.72,-2.11,5.89,5.89,5.90
98.28,8.81,2.96,8.80,2.95,-2.91,-2.70,-2.11,5.90,5.90,5.85
99.26,8.82,3.01,8.81,3.00,-2.92,-2.68,-2.11,5.90,5.89,5.81
100.25,8.77,3.01,8.76,3.00,-2.91,-2.65,-2.11,5.86,5.85,5.76
101.25,8.66,2.93,8.65,2.93,-2.87,-2.63,-2.12,5.78,5.78,5.72
102.27,8.51,2.82,8.51,2.82,-2.81,-2.61,-2.12,5.69,5.70,5.68
103.29,8.35,2.70,8.35,2.70,-2.73,-2.58,-2.12,5.62,5.62,5.65
104.32,8.20,2.59,8.21,2.60,-2.64,-2.56,-2.13,5.56,5.57,5.61
105.37,8.08,2.51,8.08,2.50,-2.55,-2.53,-2.13,5.53,5.53,5.58
106.42,7.98,2.44,7.98,2.44,-2.47,-2.50,-2.14,5.51,5.51,5.54
107.48,7.89,2.38,7.89,2.39,-2.40,-2.47,-2.14,5.48,5.49,5.51
108.56,7.82,2.35,7.82,2.35,-2.36,-2.45,-2.15,5.47,5.47,5.47
109.64,7.76,2.33,7.76,2.33,-2.32,-2.42,-2.15,5.44,5.44,5.43
110.74,7.70,2.30,7.70,2.30,-2.29,-2.39,-2.16,5.41,5.41,5.40
111.85,7.64,2.28,7.64,2.28,-2.26,-2.36,-2.16,5.38,5.37,5.36
112.97,7.57,2.25,7.57,2.25,-2.24,-2.33,-2.17,5.34,5.34,5.32
114.10,7.50,2.22,7.50,2.22,-2.21,-2.30,-2.17,5.29,5.29,5.29
115.24,7.43,2.18,7.43,2.18,-2.18,-2.27,-2.17,5.25,5.25,5.25
116.39,7.36,2.15,7.36,2.15,-2.15,-2.24,-2.17,5.21,5.21,5.21
117.55,7.29,2.11,7.29,2.12,-2.12,-2.20,-2.17,5.17,5.17,5.18
118.73,7.22,2.08,7.22,2.08,-2.09,-2.17,-2.17,5.14,5.14,5.14
119.92,7.15,2.05,7.15,2.05,-2.06,-2.14,-2.17,5.10,5.10,5.10
121.12,7.09,2.03,7.09,2.03,-2.03,-2.11,-2.16,5.06,5.06,5.06
122.33,7.02,2.00,7.02,2.00,-2.00,-2.08,-2.15,5.02,5.02,5.02
123.55,6.96,1.97,6.96,1.97,-1.97,-2.04,-2.15,4.98,4.98,4.98
124.79,6.89,1.95,6.89,1.95,-1.95,-2.01,-2.14,4.95,4.95,4.95
126.03,6.83,1.92,6.83,1.92,-1.92,-1.98,-2.12,4.91,4.91,4.91
127.29,6.77,1.90,6.77,1.90,-1.90,-1.95,-2.11,4.87,4.87,4.87
128.57,6.70,1.87,6.70,1.87,-1.87,-1.92,-2.09,4.83,4.83,4.83
129.85,6.63,1.85,6.63,1.85,-1.85,-1.89,-2.08,4.79,4.79,4.79
131.15,6.57,1.82,6.57,1.82,-1.82,-1.85,-2.06,4.74,4.74,4.75
132.46,6.50,1.79,6.50,1.79,-1.80,-1.82,-2.04,4.70,4.70,4.71
133.79,6.44,1.77,6.44,1.77,-1.78,-1.79,-2.01,4.66,4.66,4.67
135.12,6.37,1.75,6.38,1.75,-1.75,-1.76,-1.99,4.62,4.62,4.63
136.48,6.31,1.73,6.31,1.73,-1.73,-1.73,-1.96,4.59,4.59,4.58
137.84,6.25,1.71,6.25,1.71,-1.70,-1.70,-1.94,4.55,4.55,4.54
139.22,6.19,1.68,6.19,1.68,-1.68,-1.67,-1.91,4.51,4.51,4.50
140.61,6.12,1.66,6.12,1.66,-1.65,-1.64,-1.88,4.47,4.46,4.46
142.02,6.04,1.62,6.04,1.62,-1.62,-1.61,-1.85,4.42,4.42,4.42
143.44,5.97,1.59,5.97,1.59,-1.59,-1.58,-1.82,4.37,4.37,4.38
144.87,5.89,1.56,5.89,1.56,-1.57,-1.55,-1.79,4.33,4.33,4.33
146.32,5.82,1.53,5.82,1.53,-1.54,-1.52,-1.76,4.29,4.29,4.29
147.78,5.75,1.51,5.76,1.51,-1.51,-1.50,-1.73,4.24,4.25,4.25
149.26,5.69,1.48,5.69,1.48,-1.48,-1.47,-1.70,4.20,4.20,4.21
150.75,5.62,1.46,5.62,1.46,-1.46,-1.44,-1.67,4.16,4.16,4.16
152.26,5.56,1.44,5.56,1.44,-1.44,-1.41,-1.64,4.12,4.12,4.12
153.78,5.50,1.42,5.50,1.42,-1.42,-1.39,-1.61,4.08,4.08,4.07
155.32,5.43,1.40,5.43,1.40,-1.40,-1.36,-1.58,4.03,4.03,4.03
156.88,5.37,1.38,5.37,1.38,-1.38,-1.34,-1.55,3.99,3.99,3.99
158.44,5.31,1.36,5.31,1.36,-1.36,-1.31,-1.52,3.94,3.94,3.94
160.03,5.24,1.34,5.24,1.34,-1.34,-1.29,-1.49,3.90,3.90,3.90
161.63,5.18,1.33,5.18,1.33,-1.33,-1.26,-1.46,3.85,3.85,3.85
163.24,5.12,1.31,5.12,1.31,-1.31,-1.24,-1.43,3.81,3.81,3.81
164.88,5.06,1.29,5.06,1.29,-1.29,-1.22,-1.41,3.76,3.76,3.76
166.53,5.00,1.28,5.00,1.28,-1.28,-1.19,-1.38,3.72,3.72,3.72
168.19,4.93,1.26,4.93,1.26,-1.26,-1.17,-1.36,3.68,3.68,3.67
169.87,4.87,1.24,4.87,1.24,-1.24,-1.15,-1.33,3.63,3.63,3.63
171.57,4.80,1.22,4.80,1.22,-1.22,-1.13,-1.31,3.59,3.59,3.58
173.29,4.74,1.20,4.74,1.20,-1.20,-1.11,-1.29,3.54,3.54,3.54
175.02,4.66,1.17,4.67,1.17,-1.17,-1.09,-1.27,3.49,3.49,3.49
176.77,4.60,1.15,4.60,1.15,-1.15,-1.07,-1.25,3.45,3.45,3.45
178.54,4.53,1.13,4.53,1.13,-1.12,-1.05,-1.23,3.40,3.40,3.40
180.32,4.46,1.10,4.46,1.10,-1.10,-1.03,-1.21,3.36,3.36,3.35
182.13,4.38,1.08,4.38,1.08,-1.08,-1.02,-1.20,3.31,3.31,3.31
183.95,4.31,1.05,4.31,1.05,-1.05,-1.00,-1.18,3.26,3.26,3.26
185.79,4.23,1.02,4.23,1.02,-1.03,-0.98,-1.17,3.20,3.21,3.22
187.65,4.16,0.99,4.16,0.99,-1.00,-0.97,-1.15,3.16,3.16,3.17
189.52,4.09,0.97,4.09,0.97,-0.96,-0.95,-1.14,3.13,3.13,3.12
191.42,4.02,0.95,4.02,0.95,-0.92,-0.93,-1.13,3.10,3.10,3.08
193.33,3.94,0.92,3.94,0.91,-0.88,-0.92,-1.12,3.07,3.06,3.03
195.27,3.85,0.87,3.84,0.86,-0.84,-0.91,-1.10,3.01,3.00,2.98
197.22,3.73,0.79,3.73,0.80,-0.80,-0.89,-1.09,2.93,2.93,2.93
199.19,3.62,0.73,3.63,0.74,-0.77,-0.88,-1.09,2.85,2.85,2.89
201.18,3.55,0.71,3.55,0.71,-0.75,-0.87,-1.08,2.79,2.80,2.84
203.19,3.50,0.70,3.50,0.71,-0.74,-0.86,-1.07,2.76,2.76,2.79
205.23,3.48,0.73,3.47,0.73,-0.73,-0.85,-1.06,2.75,2.74,2.75
207.28,3.46,0.76,3.45,0.75,-0.73,-0.84,-1.05,2.72,2.72,2.70
209.35,3.43,0.78,3.42,0.77,-0.74,-0.83,-1.04,2.68,2.68,2.65
211.44,3.38,0.78,3.38,0.78,-0.76,-0.82,-1.04,2.63,2.63,2.60
213.56,3.34,0.78,3.34,0.78,-0.77,-0.81,-1.03,2.56,2.56,2.56
215.69,3.29,0.78,3.29,0.78,-0.79,-0.81,-1.02,2.50,2.50,2.51
217.85,3.25,0.79,3.25,0.79,-0.81,-0.80,-1.01,2.44,2.45,2.46
220.03,3.22,0.80,3.22,0.81,-0.82,-0.79,-1.01,2.40,2.40,2.42
222.23,3.20,0.83,3.20,0.83,-0.84,-0.79,-1.00,2.36,2.36,2.37
224.45,3.18,0.86,3.18,0.85,-0.85,-0.78,-0.99,2.33,2.33,2.32
226.70,3.15,0.88,3.15,0.88,-0.86,-0.78,-0.98,2.29,2.29,2.28
228.96,3.12,0.89,3.12,0.89,-0.88,-0.78,-0.97,2.24,2.24,2.23
231.25,3.07,0.89,3.07,0.89,-0.88,-0.78,-0.96,2.19,2.19,2.18
233.57,3.02,0.89,3.02,0.89,-0.88,-0.77,-0.95,2.14,2.14,2.14
235.90,2.97,0.88,2.97,0.88,-0.87,-0.77,-0.94,2.09,2.09,2.09
238.26,2.90,0.86,2.90,0.86,-0.86,-0.77,-0.92,2.04,2.04,2.04
240.64,2.84,0.84,2.84,0.84,-0.85,-0.77,-0.91,1.99,1.99,2.00
243.05,2.78,0.83,2.78,0.83,-0.83,-0.77,-0.89,1.95,1.95,1.95
245.48,2.72,0.81,2.72,0.81,-0.81,-0.77,-0.88,1.90,1.90,1.91
247.93,2.66,0.80,2.66,0.80,-0.80,-0.77,-0.86,1.86,1.86,1.86
250.41,2.60,0.78,2.60,0.78,-0.78,-0.77,-0.84,1.82,1.82,1.82
252.92,2.54,0.77,2.54,0.77,-0.77,-0.77,-0.82,1.77,1.77,1.77
255.45,2.48,0.75,2.48,0.75,-0.75,-0.77,-0.80,1.73,1.73,1.73
258.00,2.42,0.73,2.42,0.73,-0.73,-0.76,-0.77,1.68,1.68,1.68
260.58,2.36,0.72,2.36,0.72,-0.72,-0.76,-0.75,1.64,1.64,1.64
263.19,2.29,0.70,2.30,0.70,-0.70,-0.75,-0.72,1.59,1.59,1.59
265.82,2.24,0.69,2.24,0.69,-0.69,-0.75,-0.69,1.55,1.55,1.55
268.48,2.18,0.67,2.18,0.67,-0.67,-0.74,-0.67,1.51,1.51,1.51
271.16,2.12,0.66,2.12,0.66,-0.66,-0.73,-0.64,1.46,1.46,1.46
273.87,2.07,0.64,2.07,0.64,-0.64,-0.72,-0.60,1.42,1.42,1.42
276.61,2.01,0.63,2.01,0.63,-0.63,-0.70,-0.57,1.38,1.38,1.38
279.38,1.95,0.62,1.95,0.62,-0.61,-0.69,-0.54,1.34,1.34,1.34
282.17,1.90,0.60,1.90,0.60,-0.60,-0.67,-0.50,1.30,1.30,1.30
284.99,1.84,0.58,1.84,0.58,-0.59,-0.65,-0.47,1.26,1.26,1.26
287.84,1.79,0.57,1.79,0.57,-0.57,-0.63,-0.43,1.22,1.22,1.22
290.72,1.73,0.55,1.73,0.55,-0.56,-0.60,-0.40,1.18,1.18,1.18
293.63,1.68,0.54,1.68,0.54,-0.54,-0.58,-0.36,1.14,1.14,1.14
296.57,1.63,0.52,1.63,0.52,-0.52,-0.55,-0.32,1.11,1.11,1.11
299.53,1.58,0.50,1.58,0.50,-0.50,-0.52,-0.28,1.08,1.08,1.08
302.53,1.53,0.48,1.53,0.48,-0.47,-0.48,-0.24,1.05,1.05,1.05
305.55,1.47,0.45,1.47,0.45,-0.45,-0.45,-0.20,1.02,1.03,1.02
308.61,1.42,0.42,1.42,0.42,-0.42,-0.41,-0.16,1.00,1.00,1.00
311.69,1.36,0.38,1.36,0.38,-0.39,-0.38,-0.12,0.98,0.98,0.98
314.81,1.31,0.35,1.31,0.35,-0.35,-0.34,-0.08,0.95,0.95,0.96
317.96,1.25,0.32,1.25,0.32,-0.32,-0.30,-0.04,0.94,0.94,0.94
321.14,1.20,0.28,1.20,0.28,-0.28,-0.26,0.00,0.92,0.92,0.92
324.35,1.15,0.25,1.15,0.25,-0.25,-0.22,0.05,0.90,0.90,0.90
327.59,1.10,0.21,1.10,0.21,-0.21,-0.18,0.09,0.88,0.88,0.89
330.87,1.05,0.18,1.05,0.18,-0.18,-0.14,0.13,0.87,0.87,0.87
334.18,1.00,0.15,1.00,0.15,-0.15,-0.10,0.18,0.86,0.86,0.86
337.52,0.96,0.11,0.96,0.11,-0.11,-0.06,0.22,0.84,0.84,0.84
340.90,0.91,0.08,0.91,0.08,-0.08,-0.02,0.27,0.83,0.83,0.83
344.30,0.86,0.04,0.86,0.04,-0.04,0.02,0.31,0.82,0.82,0.82
347.75,0.82,0.01,0.82,0.01,-0.01,0.06,0.36,0.81,0.81,0.81
351.23,0.77,-0.03,0.77,-0.03,0.03,0.10,0.40,0.80,0.80,0.80
354.74,0.72,-0.07,0.72,-0.07,0.07,0.13,0.45,0.79,0.79,0.79
358.28,0.68,-0.11,0.68,-0.11,0.10,0.17,0.50,0.78,0.78,0.78
361.87,0.63,-0.14,0.63,-0.14,0.14,0.21,0.54,0.78,0.78,0.78
365.49,0.59,-0.18,0.59,-0.18,0.18,0.25,0.59,0.77,0.77,0.77
369.14,0.55,-0.22,0.55,-0.22,0.22,0.29,0.64,0.77,0.77,0.77
372.83,0.50,-0.26,0.50,-0.26,0.26,0.33,0.69,0.76,0.76,0.76
376.56,0.46,-0.30,0.46,-0.30,0.30,0.37,0.73,0.76,0.76,0.76
380.33,0.42,-0.34,0.42,-0.34,0.34,0.40,0.78,0.76,0.76,0.76
384.13,0.38,-0.38,0.38,-0.38,0.38,0.44,0.83,0.76,0.76,0.76
387.97,0.34,-0.42,0.34,-0.42,0.42,0.48,0.88,0.76,0.76,0.76
391.85,0.30,-0.46,0.30,-0.46,0.46,0.52,0.93,0.76,0.76,0.76
395.77,0.25,-0.51,0.25,-0.51,0.51,0.55,0.98,0.76,0.76,0.76
399.73,0.21,-0.55,0.21,-0.55,0.55,0.59,1.03,0.77,0.77,0.77
403.72,0.17,-0.60,0.17,-0.60,0.60,0.63,1.08,0.77,0.77,0.77
407.76,0.13,-0.65,0.13,-0.65,0.65,0.67,1.13,0.78,0.78,0.77
411.84,0.09,-0.69,0.09,-0.69,0.69,0.71,1.17,0.78,0.78,0.78
415.96,0.05,-0.74,0.05,-0.74,0.74,0.74,1.22,0.79,0.79,0.79
420.12,0.00,-0.79,0.00,-0.79,0.79,0.78,1.27,0.80,0.80,0.80
424.32,-0.04,-0.84,-0.04,-0.84,0.84,0.82,1.32,0.80,0.80,0.81
428.56,-0.08,-0.89,-0.08,-0.89,0.89,0.86,1.36,0.81,0.81,0.82
432.85,-0.11,-0.94,-0.11,-0.94,0.94,0.90,1.41,0.82,0.82,0.83
437.18,-0.15,-0.99,-0.15,-0.99,0.99,0.93,1.45,0.84,0.84,0.84
441.55,-0.18,-1.03,-0.18,-1.03,1.03,0.97,1.50,0.85,0.85,0.85
445.96,-0.22,-1.08,-0.22,-1.08,1.08,1.01,1.54,0.86,0.86,0.86
450.42,-0.25,-1.13,-0.26,-1.13,1.13,1.05,1.58,0.88,0.88,0.88
454.93,-0.29,-1.18,-0.29,-1.18,1.18,1.09,1.62,0.89,0.89,0.89
459.48,-0.33,-1.23,-0.33,-1.23,1.23,1.13,1.65,0.91,0.91,0.91
464.07,-0.36,-1.28,-0.36,-1.28,1.28,1.17,1.68,0.92,0.92,0.92
468.71,-0.40,-1.33,-0.40,-1.33,1.34,1.20,1.72,0.94,0.94,0.94
473.40,-0.43,-1.39,-0.43,-1.39,1.39,1.24,1.75,0.96,0.96,0.96
478.13,-0.47,-1.44,-0.47,-1.44,1.44,1.28,1.77,0.97,0.97,0.97
482.91,-0.50,-1.49,-0.50,-1.49,1.49,1.32,1.79,0.99,0.99,0.99
487.74,-0.54,-1.54,-0.54,-1.54,1.54,1.36,1.82,1.00,1.00,1.01
492.62,-0.57,-1.59,-0.57,-1.59,1.58,1.40,1.83,1.02,1.02,1.02
497.55,-0.60,-1.63,-0.60,-1.63,1.62,1.44,1.85,1.02,1.02,1.03
502.52,-0.63,-1.67,-0.63,-1.67,1.66,1.48,1.86,1.03,1.03,1.04
507.55,-0.66,-1.70,-0.66,-1.70,1.69,1.52,1.87,1.04,1.04,1.04
512.62,-0.69,-1.73,-0.69,-1.73,1.72,1.55,1.88,1.04,1.04,1.04
517.75,-0.72,-1.75,-0.72,-1.75,1.75,1.59,1.88,1.03,1.03,1.03
