frequency,raw,error,smoothed,error_smoothed,equalization,parametric_eq,fixed_band_eq,equalized_raw,equalized_smoothed,target
20.00,11.86,0.90,11.89,0.93,-0.71,-0.50,-0.52,11.16,11.18,10.96
20.20,11.69,0.78,11.66,0.75,-0.65,-0.57,-0.53,11.03,11.01,10.91
20.40,11.52,0.66,11.49,0.61,-0.62,-0.64,-0.55,10.90,10.86,10.86
20.61,11.36,0.50,11.37,0.51,-0.61,-0.73,-0.57,10.74,10.75,10.86
20.81,11.27,0.41,11.27,0.42,-0.63,-0.82,-0.59,10.64,10.65,10.86
21.02,11.26,0.40,11.26,0.40,-0.66,-0.92,-0.61,10.60,10.60,10.86
21.23,11.33,0.47,11.35,0.49,-0.72,-1.02,-0.63,10.62,10.64,10.86
21.44,11.52,0.66,11.53,0.68,-0.79,-1.13,-0.65,10.73,10.74,10.86
21.66,11.77,0.93,11.77,0.94,-0.99,-1.23,-0.67,10.78,10.78,10.84
21.87,12.03,1.26,12.02,1.23,-1.19,-1.31,-0.69,10.83,10.83,10.77
22.09,12.24,1.48,12.24,1.47,-1.37,-1.39,-0.71,10.87,10.87,10.76
22.31,12.40,1.64,12.39,1.64,-1.50,-1.42,-0.73,10.90,10.89,10.76
22.54,12.46,1.70,12.45,1.70,-1.55,-1.44,-0.76,10.91,10.90,10.76
22.76,12.42,1.66,12.41,1.66,-1.51,-1.39,-0.78,10.91,10.90,10.76
22.99,12.28,1.52,12.27,1.50,-1.39,-1.35,-0.80,10.89,10.88,10.76
23.22,12.05,1.28,12.05,1.26,-1.21,-1.26,-0.83,10.84,10.84,10.77
23.45,11.79,0.94,11.79,0.97,-1.00,-1.17,-0.86,10.79,10.79,10.84
23.69,11.54,0.68,11.54,0.68,-0.80,-1.08,-0.88,10.75,10.75,10.86
23.92,11.35,0.46,11.36,0.46,-0.62,-0.98,-0.91,10.73,10.74,10.89
24.16,11.26,0.31,11.27,0.34,-0.50,-0.89,-0.93,10.76,10.77,10.95
24.40,11.28,0.32,11.29,0.32,-0.43,-0.80,-0.96,10.85,10.86,10.96
24.65,11.38,0.39,11.38,0.37,-0.41,-0.73,-0.99,10.97,10.97,11.00
24.89,11.53,0.47,11.52,0.46,-0.43,-0.66,-1.02,11.10,11.10,11.06
25.14,11.66,0.54,11.66,0.55,-0.47,-0.61,-1.04,11.20,11.20,11.12
25.39,11.79,0.63,11.77,0.61,-0.51,-0.56,-1.07,11.28,11.26,11.16
25.65,11.82,0.65,11.82,0.63,-0.54,-0.53,-1.10,11.28,11.28,11.17
25.91,11.83,0.59,11.83,0.60,-0.56,-0.49,-1.13,11.28,11.27,11.24
26.16,11.79,0.53,11.79,0.55,-0.55,-0.47,-1.15,11.24,11.24,11.26
26.43,11.74,0.48,11.74,0.50,-0.54,-0.45,-1.18,11.20,11.20,11.25
26.69,11.69,0.50,11.69,0.48,-0.53,-0.43,-1.20,11.16,11.16,11.19
26.96,11.65,0.49,11.66,0.49,-0.53,-0.42,-1.23,11.12,11.12,11.16
27.23,11.64,0.49,11.65,0.53,-0.55,-0.42,-1.25,11.09,11.10,11.15
27.50,11.66,0.60,11.66,0.57,-0.58,-0.42,-1.27,11.08,11.08,11.06
27.77,11.69,0.63,11.69,0.63,-0.62,-0.43,-1.29,11.07,11.06,11.06
28.05,11.72,0.68,11.72,0.70,-0.68,-0.43,-1.31,11.04,11.04,11.05
28.33,11.76,0.78,11.75,0.76,-0.74,-0.45,-1.33,11.01,11.01,10.98
28.62,11.79,0.83,11.79,0.82,-0.80,-0.46,-1.35,10.98,10.98,10.96
28.90,11.82,0.86,11.82,0.87,-0.86,-0.48,-1.36,10.95,10.96,10.96
29.19,11.86,0.90,11.86,0.91,-0.92,-0.51,-1.37,10.94,10.94,10.96
29.48,11.91,0.95,11.92,0.96,-0.98,-0.54,-1.38,10.93,10.94,10.96
29.78,11.99,1.03,11.99,1.02,-1.03,-0.57,-1.39,10.96,10.96,10.96
30.08,12.07,1.09,12.07,1.08,-1.08,-0.61,-1.39,10.99,10.99,10.98
30.38,12.14,1.11,12.14,1.12,-1.12,-0.65,-1.39,11.03,11.03,11.04
30.68,12.20,1.14,12.20,1.15,-1.14,-0.70,-1.39,11.06,11.06,11.06
30.99,12.22,1.18,12.22,1.19,-1.15,-0.75,-1.38,11.07,11.07,11.04
31.30,12.20,1.22,12.20,1.20,-1.15,-0.81,-1.38,11.05,11.05,10.98
31.61,12.16,1.20,12.15,1.18,-1.15,-0.87,-1.36,11.01,11.01,10.96
31.93,12.09,1.13,12.09,1.13,-1.14,-0.94,-1.35,10.95,10.95,10.96
32.24,12.03,1.07,12.03,1.10,-1.14,-1.01,-1.33,10.89,10.89,10.96
32.57,12.00,1.09,12.00,1.09,-1.15,-1.09,-1.31,10.85,10.85,10.91
32.89,12.00,1.14,12.01,1.13,-1.17,-1.18,-1.29,10.84,10.84,10.86
33.22,12.05,1.19,12.05,1.19,-1.20,-1.27,-1.26,10.85,10.85,10.86
33.55,12.11,1.25,12.11,1.25,-1.24,-1.37,-1.23,10.87,10.87,10.86
33.89,12.19,1.33,12.18,1.32,-1.31,-1.47,-1.20,10.88,10.87,10.86
34.23,12.26,1.40,12.26,1.40,-1.39,-1.57,-1.17,10.87,10.87,10.86
34.57,12.33,1.47,12.33,1.47,-1.47,-1.67,-1.13,10.86,10.85,10.86
34.92,12.40,1.54,12.40,1.54,-1.56,-1.78,-1.10,10.84,10.84,10.86
35.27,12.48,1.62,12.49,1.63,-1.64,-1.88,-1.06,10.84,10.84,10.86
35.62,12.58,1.72,12.58,1.72,-1.72,-1.97,-1.01,10.86,10.86,10.86
35.97,12.68,1.82,12.68,1.81,-1.79,-2.06,-0.97,10.89,10.89,10.86
36.33,12.77,1.89,12.77,1.87,-1.85,-2.13,-0.93,10.92,10.92,10.88
36.70,12.85,1.90,12.85,1.92,-1.90,-2.18,-0.88,10.95,10.95,10.94
37.06,12.90,1.94,12.90,1.95,-1.94,-2.22,-0.83,10.96,10.96,10.96
37.43,12.93,1.97,12.93,1.96,-1.98,-2.24,-0.79,10.95,10.95,10.96
37.81,12.94,1.98,12.95,1.98,-2.01,-2.23,-0.74,10.94,10.94,10.96
38.19,12.95,1.99,12.95,2.00,-2.02,-2.20,-0.69,10.92,10.92,10.96
38.57,12.94,2.01,12.94,2.02,-2.03,-2.15,-0.64,10.91,10.91,10.93
38.95,12.91,2.05,12.92,2.03,-2.03,-2.07,-0.59,10.88,10.89,10.87
39.34,12.88,2.02,12.88,2.03,-2.01,-1.98,-0.54,10.87,10.87,10.86
39.74,12.81,1.99,12.81,2.00,-1.97,-1.87,-0.49,10.84,10.84,10.82
40.14,12.71,1.95,12.71,1.93,-1.90,-1.76,-0.43,10.81,10.80,10.76
40.54,12.58,1.82,12.58,1.84,-1.81,-1.62,-0.38,10.77,10.77,10.76
40.94,12.43,1.71,12.43,1.72,-1.69,-1.49,-0.33,10.74,10.74,10.72
41.35,12.27,1.60,12.27,1.56,-1.55,-1.35,-0.28,10.72,10.72,10.67
41.76,12.11,1.37,12.11,1.39,-1.39,-1.21,-0.23,10.72,10.72,10.74
42.18,11.96,1.20,11.96,1.20,-1.21,-1.07,-0.17,10.74,10.74,10.76
42.60,11.81,1.03,11.81,1.01,-1.03,-0.94,-0.12,10.78,10.78,10.78
43.03,11.68,0.83,11.68,0.85,-0.86,-0.81,-0.07,10.82,10.82,10.85
43.46,11.54,0.68,11.54,0.68,-0.69,-0.68,-0.02,10.85,10.84,10.86
43.90,11.39,0.53,11.39,0.52,-0.54,-0.56,0.03,10.85,10.85,10.86
44.33,11.23,0.37,11.23,0.39,-0.41,-0.44,0.09,10.83,10.83,10.86
44.78,11.08,0.28,11.08,0.28,-0.29,-0.33,0.14,10.79,10.79,10.80
45.23,10.94,0.18,10.95,0.17,-0.18,-0.22,0.19,10.76,10.77,10.76
45.68,10.84,0.08,10.85,0.09,-0.09,-0.12,0.24,10.75,10.75,10.76
46.13,10.77,0.01,10.77,0.01,-0.02,-0.03,0.30,10.75,10.75,10.76
46.60,10.70,-0.06,10.70,-0.07,0.05,0.06,0.35,10.75,10.75,10.76
47.06,10.63,-0.13,10.63,-0.14,0.13,0.15,0.40,10.75,10.75,10.76
47.53,10.54,-0.22,10.54,-0.20,0.21,0.24,0.45,10.75,10.75,10.76
48.01,10.45,-0.27,10.45,-0.26,0.30,0.31,0.50,10.75,10.75,10.72
48.49,10.34,-0.32,10.33,-0.35,0.40,0.39,0.56,10.74,10.74,10.66
48.97,10.20,-0.46,10.20,-0.46,0.52,0.46,0.61,10.72,10.71,10.66
49.46,10.05,-0.61,10.05,-0.61,0.63,0.53,0.66,10.68,10.68,10.66
49.96,9.89,-0.77,9.90,-0.76,0.74,0.60,0.71,10.64,10.64,10.66
50.46,9.77,-0.89,9.77,-0.90,0.85,0.66,0.76,10.61,10.62,10.66
50.96,9.66,-1.00,9.66,-0.98,0.93,0.73,0.81,10.59,10.59,10.66
51.47,9.58,-1.05,9.58,-1.04,0.99,0.79,0.86,10.57,10.57,10.64
51.99,9.52,-1.04,9.52,-1.08,1.03,0.85,0.91,10.55,10.55,10.56
52.51,9.47,-1.09,9.47,-1.07,1.06,0.90,0.96,10.53,10.53,10.56
53.03,9.43,-1.07,9.42,-1.04,1.07,0.96,1.01,10.49,10.49,10.49
53.56,9.37,-0.99,9.36,-1.02,1.07,1.01,1.06,10.43,10.42,10.35
54.10,9.28,-1.01,9.26,-1.02,1.06,1.06,1.11,10.34,10.32,10.29
54.64,9.16,-1.06,9.16,-1.05,1.06,1.12,1.16,10.22,10.22,10.22
55.18,9.05,-1.11,9.07,-1.11,1.08,1.17,1.21,10.12,10.15,10.16
55.74,9.01,-1.15,9.02,-1.14,1.12,1.22,1.25,10.13,10.14,10.16
56.29,9.00,-1.16,9.00,-1.16,1.18,1.27,1.30,10.18,10.18,10.16
56.86,9.00,-1.16,8.97,-1.19,1.25,1.31,1.34,10.25,10.23,10.16
57.42,8.91,-1.25,8.90,-1.26,1.33,1.36,1.38,10.23,10.23,10.16
58.00,8.79,-1.37,8.78,-1.39,1.39,1.41,1.42,10.18,10.17,10.16
58.58,8.64,-1.52,8.64,-1.52,1.44,1.45,1.46,10.08,10.09,10.16
59.16,8.51,-1.65,8.54,-1.60,1.49,1.50,1.50,10.00,10.03,10.16
59.76,8.47,-1.63,8.48,-1.62,1.54,1.54,1.54,10.01,10.02,10.10
60.35,8.45,-1.58,8.45,-1.59,1.60,1.59,1.57,10.05,10.04,10.03
60.96,8.42,-1.55,8.40,-1.56,1.65,1.63,1.61,10.07,10.05,9.96
61.57,8.32,-1.57,8.30,-1.59,1.69,1.68,1.64,10.01,9.99,9.89
62.18,8.15,-1.67,8.15,-1.67,1.73,1.72,1.67,9.88,9.88,9.82
62.80,7.97,-1.79,7.99,-1.78,1.76,1.76,1.70,9.74,9.75,9.76
63.43,7.87,-1.89,7.87,-1.88,1.80,1.81,1.72,9.67,9.67,9.76
64.07,7.80,-1.96,7.81,-1.94,1.85,1.85,1.75,9.65,9.67,9.76
64.71,7.81,-1.95,7.80,-1.96,1.91,1.89,1.77,9.72,9.71,9.76
65.35,7.81,-1.95,7.81,-1.95,1.97,1.93,1.79,9.79,9.78,9.76
66.01,7.81,-1.95,7.80,-1.97,2.04,1.98,1.82,9.85,9.84,9.76
66.67,7.77,-2.01,7.77,-2.03,2.11,2.02,1.83,9.88,9.88,9.78
67.33,7.71,-2.15,7.71,-2.13,2.18,2.06,1.85,9.89,9.89,9.85
68.01,7.62,-2.24,7.61,-2.23,2.26,2.10,1.87,9.88,9.87,9.86
68.69,7.49,-2.34,7.49,-2.35,2.33,2.14,1.89,9.82,9.82,9.83
69.37,7.35,-2.41,7.35,-2.45,2.39,2.18,1.90,9.74,9.74,9.76
70.07,7.22,-2.54,7.23,-2.51,2.43,2.22,1.92,9.65,9.66,9.76
70.77,7.13,-2.56,7.14,-2.53,2.44,2.26,1.93,9.57,9.58,9.69
71.48,7.09,-2.48,7.09,-2.50,2.43,2.30,1.95,9.52,9.52,9.56
72.19,7.07,-2.42,7.08,-2.42,2.41,2.34,1.96,9.49,9.49,9.49
72.91,7.07,-2.34,7.07,-2.34,2.39,2.38,1.98,9.46,9.46,9.42
73.64,7.06,-2.29,7.06,-2.29,2.38,2.42,1.99,9.43,9.43,9.35
74.38,7.02,-2.26,7.01,-2.28,2.38,2.46,2.01,9.39,9.39,9.28
75.12,6.94,-2.32,6.93,-2.34,2.40,2.49,2.03,9.35,9.34,9.26
75.87,6.82,-2.44,6.82,-2.43,2.45,2.53,2.04,9.27,9.27,9.26
76.63,6.70,-2.56,6.70,-2.54,2.51,2.57,2.06,9.21,9.21,9.26
77.40,6.58,-2.63,6.59,-2.63,2.57,2.60,2.08,9.15,9.16,9.21
78.17,6.49,-2.67,6.49,-2.69,2.63,2.64,2.10,9.12,9.12,9.16
78.95,6.42,-2.74,6.42,-2.73,2.67,2.67,2.12,9.09,9.09,9.16
79.74,6.35,-2.75,6.35,-2.73,2.70,2.71,2.15,9.05,9.05,9.10
80.54,6.28,-2.72,6.28,-2.71,2.72,2.74,2.17,9.00,9.00,9.00
81.35,6.21,-2.66,6.21,-2.68,2.73,2.78,2.19,8.93,8.93,8.87
82.16,6.13,-2.67,6.13,-2.67,2.73,2.81,2.22,8.85,8.85,8.80
82.98,6.04,-2.68,6.04,-2.68,2.73,2.84,2.25,8.77,8.77,8.73
83.81,5.97,-2.69,5.96,-2.71,2.72,2.87,2.28,8.69,8.69,8.66
84.65,5.90,-2.76,5.90,-2.75,2.71,2.90,2.31,8.61,8.61,8.66
85.50,5.88,-2.78,5.88,-2.77,2.69,2.93,2.35,8.57,8.57,8.66
86.35,5.89,-2.77,5.91,-2.75,2.67,2.96,2.38,8.56,8.58,8.66
87.22,5.97,-2.69,5.97,-2.69,2.66,2.99,2.42,8.62,8.62,8.66
88.09,6.05,-2.61,6.04,-2.63,2.66,3.02,2.46,8.70,8.69,8.66
88.97,6.07,-2.59,6.07,-2.59,2.68,3.05,2.50,8.74,8.74,8.66
89.86,6.05,-2.61,6.03,-2.61,2.72,3.08,2.55,8.77,8.75,8.66
90.76,5.93,-2.68,5.92,-2.69,2.79,3.10,2.59,8.71,8.71,8.60
91.66,5.75,-2.81,5.75,-2.83,2.88,3.13,2.64,8.63,8.63,8.56
92.58,5.55,-3.01,5.55,-3.01,2.98,3.16,2.69,8.53,8.53,8.56
93.51,5.36,-3.20,5.37,-3.17,3.09,3.18,2.74,8.45,8.46,8.56
94.44,5.22,-3.31,5.23,-3.29,3.19,3.20,2.79,8.41,8.42,8.53
95.39,5.13,-3.33,5.13,-3.36,3.28,3.23,2.85,8.40,8.41,8.46
96.34,5.08,-3.38,5.08,-3.36,3.33,3.25,2.90,8.41,8.41,8.46
97.30,5.05,-3.37,5.05,-3.36,3.37,3.27,2.96,8.42,8.42,8.42
98.28,5.03,-3.33,5.02,-3.36,3.39,3.30,3.02,8.41,8.41,8.36
99.26,4.99,-3.37,4.98,-3.36,3.40,3.32,3.08,8.39,8.39,8.36
100.25,4.93,-3.38,4.93,-3.37,3.42,3.34,3.14,8.36,8.36,8.31
101.25,4.87,-3.39,4.87,-3.41,3.46,3.36,3.20,8.33,8.33,8.26
102.27,4.79,-3.47,4.79,-3.46,3.50,3.38,3.27,8.30,8.30,8.26
103.29,4.71,-3.55,4.71,-3.54,3.55,3.40,3.33,8.27,8.27,8.26
104.32,4.63,-3.63,4.63,-3.64,3.60,3.42,3.39,8.23,8.23,8.26
105.37,4.55,-3.71,4.55,-3.70,3.63,3.44,3.46,8.19,8.19,8.26
106.42,4.48,-3.74,4.48,-3.72,3.66,3.46,3.52,8.14,8.14,8.22
107.48,4.41,-3.70,4.41,-3.70,3.67,3.48,3.58,8.08,8.08,8.11
108.56,4.34,-3.66,4.34,-3.66,3.67,3.50,3.65,8.01,8.01,8.00
109.64,4.27,-3.62,4.27,-3.64,3.66,3.51,3.71,7.94,7.94,7.90
110.74,4.20,-3.62,4.20,-3.63,3.65,3.53,3.77,7.85,7.85,7.82
111.85,4.12,-3.65,4.12,-3.63,3.65,3.55,3.83,7.77,7.77,7.77
112.97,4.04,-3.63,4.04,-3.63,3.66,3.57,3.88,7.70,7.70,7.66
114.10,3.95,-3.65,3.95,-3.66,3.69,3.58,3.93,7.65,7.65,7.60
115.24,3.86,-3.70,3.86,-3.71,3.74,3.60,3.98,7.60,7.60,7.56
116.39,3.76,-3.80,3.76,-3.77,3.79,3.62,4.03,7.55,7.55,7.56
117.55,3.66,-3.84,3.67,-3.84,3.83,3.64,4.07,7.49,7.50,7.50
118.73,3.59,-3.87,3.59,-3.89,3.85,3.65,4.11,7.44,7.44,7.46
119.92,3.53,-3.93,3.52,-3.92,3.86,3.67,4.15,7.38,7.38,7.46
121.12,3.48,-3.92,3.49,-3.92,3.84,3.69,4.18,7.32,7.33,7.40
122.33,3.47,-3.87,3.48,-3.87,3.81,3.70,4.21,7.28,7.29,7.34
123.55,3.49,-3.79,3.49,-3.77,3.78,3.72,4.23,7.27,7.27,7.28
124.79,3.52,-3.66,3.52,-3.69,3.74,3.74,4.24,7.26,7.26,7.18
126.03,3.53,-3.63,3.52,-3.64,3.71,3.75,4.26,7.25,7.24,7.16
127.29,3.49,-3.65,3.49,-3.64,3.70,3.77,4.26,7.19,7.19,7.15
128.57,3.41,-3.67,3.41,-3.67,3.71,3.78,4.27,7.12,7.11,7.08
129.85,3.30,-3.72,3.30,-3.73,3.73,3.80,4.27,7.03,7.03,7.02
131.15,3.18,-3.78,3.19,-3.79,3.77,3.82,4.26,6.96,6.96,6.96
132.46,3.09,-3.87,3.09,-3.85,3.82,3.83,4.25,6.92,6.92,6.96
133.79,3.01,-3.91,3.01,-3.90,3.87,3.85,4.24,6.88,6.88,6.92
135.12,2.94,-3.92,2.94,-3.94,3.91,3.86,4.22,6.85,6.85,6.86
136.48,2.88,-3.98,2.88,-3.97,3.94,3.88,4.20,6.81,6.82,6.86
137.84,2.82,-3.99,2.83,-3.97,3.96,3.90,4.18,6.78,6.78,6.82
139.22,2.79,-3.96,2.78,-3.97,3.97,3.91,4.15,6.76,6.76,6.75
140.61,2.74,-3.94,2.74,-3.96,3.99,3.93,4.12,6.73,6.73,6.68
142.02,2.69,-3.97,2.69,-3.97,4.02,3.94,4.10,6.71,6.70,6.66
143.44,2.62,-4.02,2.61,-4.00,4.05,3.96,4.07,6.67,6.66,6.64
144.87,2.53,-4.04,2.53,-4.06,4.08,3.97,4.03,6.61,6.61,6.57
146.32,2.44,-4.12,2.44,-4.11,4.11,3.99,4.00,6.55,6.55,6.56
147.78,2.35,-4.17,2.35,-4.16,4.13,4.00,3.97,6.48,6.48,6.52
149.26,2.28,-4.18,2.29,-4.20,4.14,4.02,3.94,6.42,6.43,6.46
150.75,2.24,-4.22,2.24,-4.19,4.13,4.03,3.91,6.37,6.38,6.46
152.26,2.22,-4.16,2.22,-4.14,4.11,4.05,3.88,6.33,6.33,6.38
153.78,2.21,-4.06,2.21,-4.07,4.08,4.06,3.85,6.29,6.29,6.27
155.32,2.21,-3.98,2.21,-4.01,4.03,4.08,3.82,6.24,6.24,6.19
156.88,2.19,-3.97,2.19,-3.96,3.99,4.09,3.79,6.18,6.18,6.16
158.44,2.15,-3.97,2.15,-3.92,3.95,4.10,3.77,6.10,6.10,6.12
160.03,2.09,-3.86,2.09,-3.91,3.93,4.12,3.74,6.02,6.02,5.96
161.63,2.01,-3.90,2.01,-3.90,3.92,4.13,3.72,5.93,5.93,5.91
163.24,1.92,-3.93,1.92,-3.91,3.93,4.14,3.71,5.85,5.85,5.85
164.88,1.83,-3.94,1.83,-3.95,3.94,4.16,3.69,5.77,5.77,5.77
166.53,1.73,-3.97,1.73,-3.97,3.97,4.17,3.68,5.70,5.70,5.71
168.19,1.65,-4.00,1.65,-3.99,3.99,4.18,3.67,5.64,5.64,5.65
169.87,1.57,-3.99,1.58,-4.02,4.00,4.19,3.66,5.57,5.58,5.57
171.57,1.52,-4.04,1.52,-4.03,4.00,4.20,3.65,5.52,5.52,5.56
173.29,1.47,-4.05,1.47,-4.04,4.00,4.21,3.65,5.47,5.47,5.52
175.02,1.43,-4.03,1.43,-4.02,3.99,4.22,3.65,5.43,5.43,5.46
176.77,1.40,-3.97,1.40,-3.99,3.99,4.23,3.65,5.38,5.38,5.37
178.54,1.35,-3.95,1.35,-3.95,3.98,4.24,3.66,5.34,5.34,5.31
180.32,1.30,-3.95,1.30,-3.94,3.99,4.25,3.66,5.29,5.29,5.25
182.13,1.24,-3.95,1.24,-3.96,4.00,4.26,3.68,5.24,5.23,5.19
183.95,1.16,-4.00,1.16,-4.00,4.02,4.27,3.69,5.18,5.18,5.16
185.79,1.08,-4.06,1.08,-4.04,4.05,4.27,3.71,5.13,5.13,5.13
187.65,0.99,-4.08,0.99,-4.10,4.09,4.28,3.72,5.07,5.07,5.07
189.52,0.90,-4.16,0.91,-4.15,4.12,4.29,3.75,5.02,5.03,5.06
191.42,0.83,-4.21,0.83,-4.19,4.16,4.29,3.77,4.99,4.99,5.05
193.33,0.78,-4.21,0.78,-4.22,4.19,4.30,3.80,4.97,4.97,4.98
195.27,0.74,-4.22,0.74,-4.22,4.23,4.30,3.83,4.96,4.96,4.96
197.22,0.70,-4.22,0.69,-4.21,4.26,4.30,3.86,4.96,4.95,4.92
199.19,0.65,-4.21,0.64,-4.24,4.29,4.30,3.89,4.93,4.93,4.86
201.18,0.59,-4.27,0.59,-4.28,4.30,4.31,3.92,4.89,4.89,4.86
203.19,0.53,-4.33,0.53,-4.33,4.31,4.31,3.96,4.84,4.84,4.86
205.23,0.47,-4.38,0.48,-4.36,4.31,4.31,4.00,4.79,4.79,4.85
207.28,0.43,-4.36,0.43,-4.36,4.30,4.31,4.03,4.73,4.73,4.78
209.35,0.39,-4.32,0.39,-4.32,4.28,4.30,4.07,4.67,4.67,4.71
211.44,0.36,-4.27,0.35,-4.26,4.25,4.30,4.11,4.60,4.60,4.63
213.56,0.32,-4.17,0.32,-4.19,4.21,4.30,4.15,4.53,4.53,4.49
215.69,0.28,-4.13,0.28,-4.13,4.18,4.29,4.19,4.45,4.45,4.40
217.85,0.24,-4.10,0.24,-4.09,4.15,4.29,4.23,4.38,4.38,4.33
220.03,0.20,-4.06,0.20,-4.08,4.12,4.28,4.26,4.32,4.32,4.26
222.23,0.16,-4.10,0.16,-4.11,4.11,4.28,4.30,4.26,4.26,4.26
224.45,0.12,-4.14,0.12,-4.14,4.10,4.27,4.33,4.22,4.22,4.26
226.70,0.08,-4.18,0.08,-4.16,4.10,4.26,4.36,4.19,4.19,4.26
228.96,0.05,-4.15,0.05,-4.15,4.11,4.25,4.38,4.16,4.16,4.19
231.25,0.01,-4.12,0.01,-4.12,4.13,4.24,4.41,4.14,4.14,4.13
233.57,-0.03,-4.10,-0.03,-4.11,4.15,4.23,4.43,4.12,4.12,4.07
235.90,-0.06,-4.12,-0.06,-4.12,4.17,4.21,4.44,4.10,4.10,4.06
238.26,-0.10,-4.16,-0.10,-4.15,4.18,4.20,4.45,4.08,4.08,4.06
240.64,-0.13,-4.19,-0.13,-4.20,4.20,4.18,4.46,4.06,4.06,4.06
243.05,-0.17,-4.23,-0.17,-4.23,4.21,4.17,4.46,4.04,4.04,4.06
245.48,-0.20,-4.26,-0.20,-4.26,4.22,4.15,4.45,4.02,4.02,4.06
247.93,-0.23,-4.27,-0.23,-4.26,4.22,4.13,4.44,3.99,3.99,4.04
250.41,-0.26,-4.23,-0.26,-4.24,4.22,4.11,4.43,3.96,3.96,3.97
252.92,-0.29,-4.20,-0.29,-4.19,4.20,4.09,4.41,3.92,3.92,3.91
255.45,-0.31,-4.15,-0.31,-4.15,4.18,4.07,4.38,3.87,3.87,3.84
258.00,-0.33,-4.09,-0.33,-4.12,4.14,4.05,4.35,3.82,3.82,3.76
260.58,-0.34,-4.10,-0.34,-4.10,4.10,4.02,4.31,3.76,3.76,3.76
263.19,-0.36,-4.09,-0.36,-4.08,4.07,3.99,4.26,3.70,3.70,3.73
265.82,-0.38,-4.05,-0.38,-4.05,4.03,3.97,4.21,3.64,3.64,3.66
268.48,-0.40,-4.00,-0.41,-4.01,3.99,3.94,4.16,3.59,3.59,3.60
271.16,-0.43,-3.96,-0.43,-3.96,3.96,3.91,4.10,3.53,3.53,3.53
273.87,-0.45,-3.91,-0.45,-3.91,3.93,3.87,4.04,3.48,3.48,3.46
276.61,-0.47,-3.87,-0.47,-3.88,3.90,3.84,3.98,3.43,3.43,3.39
279.38,-0.49,-3.85,-0.49,-3.86,3.87,3.81,3.91,3.38,3.38,3.36
282.17,-0.51,-3.86,-0.51,-3.84,3.84,3.77,3.84,3.33,3.33,3.36
284.99,-0.52,-3.81,-0.52,-3.82,3.80,3.73,3.76,3.28,3.29,3.28
287.84,-0.53,-3.79,-0.53,-3.80,3.78,3.69,3.69,3.25,3.25,3.26
290.72,-0.54,-3.78,-0.54,-3.75,3.75,3.65,3.61,3.21,3.21,3.24
293.63,-0.54,-3.71,-0.54,-3.71,3.72,3.60,3.53,3.17,3.17,3.17
296.57,-0.55,-3.64,-0.55,-3.66,3.68,3.55,3.45,3.14,3.14,3.10
299.53,-0.55,-3.61,-0.55,-3.62,3.65,3.50,3.37,3.10,3.10,3.06
302.53,-0.56,-3.62,-0.56,-3.59,3.62,3.45,3.29,3.06,3.06,3.06
305.55,-0.56,-3.56,-0.56,-3.56,3.57,3.40,3.21,3.01,3.01,3.00
308.61,-0.56,-3.49,-0.56,-3.50,3.50,3.34,3.13,2.93,2.93,2.93
311.69,-0.56,-3.43,-0.56,-3.43,3.39,3.28,3.05,2.83,2.83,2.87
314.81,-0.56,-3.35,-0.56,-3.36,3.25,3.22,2.97,2.70,2.70,2.79
317.96,-0.55,-3.23,-0.55,-3.22,3.09,3.15,2.89,2.55,2.55,2.68
321.14,-0.54,-3.08,-0.54,-2.99,2.92,3.08,2.81,2.38,2.38,2.54
324.35,-0.53,-2.67,-0.53,-2.74,2.76,3.00,2.73,2.23,2.23,2.14
327.59,-0.52,-2.47,-0.52,-2.50,2.61,2.93,2.66,2.09,2.09,1.96
330.87,-0.51,-2.35,-0.51,-2.33,2.48,2.84,2.58,1.98,1.98,1.84
334.18,-0.50,-2.27,-0.50,-2.29,2.40,2.76,2.51,1.90,1.90,1.78
337.52,-0.49,-2.30,-0.49,-2.30,2.36,2.66,2.44,1.87,1.87,1.81
340.90,-0.48,-2.36,-0.48,-2.35,2.36,2.57,2.37,1.88,1.88,1.88
344.30,-0.47,-2.41,-0.47,-2.42,2.40,2.47,2.30,1.93,1.93,1.95
347.75,-0.46,-2.47,-0.46,-2.47,2.45,2.37,2.23,1.99,1.99,2.02
351.23,-0.45,-2.51,-0.45,-2.50,2.49,2.26,2.16,2.04,2.04,2.06
354.74,-0.44,-2.50,-0.44,-2.51,2.49,2.15,2.10,2.05,2.05,2.06
358.28,-0.43,-2.49,-0.43,-2.48,2.42,2.03,2.04,1.99,1.99,2.06
361.87,-0.41,-2.40,-0.41,-2.39,2.28,1.92,1.98,1.87,1.87,1.98
365.49,-0.40,-2.23,-0.40,-2.22,2.08,1.81,1.92,1.68,1.68,1.83
369.14,-0.39,-1.97,-0.39,-1.96,1.84,1.70,1.86,1.45,1.45,1.58
372.83,-0.37,-1.65,-0.37,-1.63,1.58,1.59,1.80,1.21,1.21,1.28
376.56,-0.36,-1.27,-0.36,-1.27,1.32,1.49,1.75,0.97,0.97,0.91
380.33,-0.34,-0.94,-0.34,-0.94,1.09,1.40,1.69,0.75,0.75,0.60
384.13,-0.32,-0.70,-0.32,-0.72,0.91,1.32,1.64,0.58,0.58,0.37
387.97,-0.30,-0.60,-0.30,-0.64,0.79,1.25,1.59,0.48,0.48,0.29
391.85,-0.28,-0.71,-0.28,-0.67,0.74,1.19,1.54,0.45,0.45,0.42
395.77,-0.26,-0.78,-0.26,-0.76,0.76,1.15,1.50,0.50,0.50,0.52
399.73,-0.25,-0.86,-0.25,-0.88,0.84,1.12,1.45,0.59,0.59,0.62
403.72,-0.23,-0.98,-0.23,-0.98,0.95,1.11,1.41,0.72,0.72,0.75
407.76,-0.21,-1.10,-0.21,-1.11,1.06,1.10,1.36,0.85,0.85,0.89
411.84,-0.19,-1.21,-0.19,-1.22,1.16,1.11,1.32,0.97,0.97,1.02
415.96,-0.18,-1.34,-0.18,-1.30,1.24,1.12,1.28,1.06,1.06,1.16
420.12,-0.16,-1.32,-0.16,-1.33,1.29,1.14,1.24,1.12,1.12,1.16
424.32,-0.14,-1.30,-0.15,-1.32,1.31,1.16,1.20,1.17,1.17,1.16
428.56,-0.13,-1.29,-0.13,-1.29,1.31,1.18,1.17,1.19,1.19,1.16
432.85,-0.11,-1.27,-0.11,-1.27,1.30,1.20,1.13,1.19,1.19,1.16
437.18,-0.10,-1.26,-0.10,-1.26,1.27,1.21,1.10,1.17,1.17,1.16
441.55,-0.08,-1.24,-0.08,-1.24,1.23,1.22,1.07,1.15,1.15,1.16
445.96,-0.06,-1.22,-0.06,-1.20,1.19,1.23,1.04,1.13,1.13,1.16
450.42,-0.05,-1.16,-0.05,-1.16,1.16,1.24,1.01,1.11,1.11,1.11
454.93,-0.03,-1.09,-0.03,-1.11,1.12,1.24,0.98,1.09,1.09,1.06
459.48,-0.01,-1.07,-0.01,-1.07,1.09,1.23,0.95,1.08,1.08,1.06
464.07,0.00,-1.06,0.00,-1.05,1.06,1.22,0.93,1.07,1.07,1.06
468.71,0.02,-1.04,0.02,-1.04,1.04,1.20,0.90,1.06,1.06,1.06
473.40,0.04,-1.02,0.04,-1.02,1.01,1.18,0.88,1.05,1.05,1.06
478.13,0.05,-1.01,0.05,-1.01,0.99,1.16,0.86,1.05,1.05,1.06
482.91,0.07,-0.99,0.07,-0.99,0.99,1.13,0.84,1.05,1.05,1.06
487.74,0.08,-0.98,0.08,-0.98,0.99,1.10,0.82,1.07,1.07,1.06
492.62,0.09,-0.97,0.09,-0.96,0.99,1.07,0.80,1.08,1.08,1.06
497.55,0.10,-0.96,0.10,-0.96,0.99,1.03,0.79,1.09,1.09,1.06
502.52,0.11,-0.96,0.11,-0.98,0.99,1.00,0.77,1.10,1.10,1.07
507.55,0.12,-1.02,0.12,-1.01,0.99,0.96,0.76,1.11,1.11,1.14
512.62,0.12,-1.04,0.12,-1.02,0.98,0.92,0.75,1.11,1.11,1.16
