frequency,raw,error,smoothed,error_smoothed,equalization,parametric_eq,fixed_band_eq,equalized_raw,equalized_smoothed,target
20.00,3.57,-6.53,3.57,-6.53,6.00,5.82,2.35,9.56,9.57,10.10
20.20,3.62,-6.48,3.62,-6.48,6.00,5.86,2.41,9.62,9.62,10.10
20.40,3.66,-6.44,3.66,-6.44,6.00,5.91,2.48,9.66,9.66,10.10
20.61,3.70,-6.41,3.69,-6.41,6.00,5.94,2.55,9.70,9.70,10.10
20.81,3.72,-6.38,3.72,-6.38,6.00,5.98,2.63,9.72,9.72,10.10
21.02,3.75,-6.35,3.75,-6.35,6.00,6.01,2.70,9.75,9.75,10.10
21.23,3.78,-6.32,3.78,-6.32,6.00,6.04,2.78,9.78,9.78,10.10
21.44,3.82,-6.28,3.82,-6.27,6.00,6.06,2.86,9.82,9.82,10.10
21.66,3.88,-6.22,3.88,-6.22,6.00,6.08,2.94,9.87,9.87,10.09
21.87,3.94,-6.16,3.94,-6.16,6.00,6.09,3.03,9.93,9.93,10.09
22.09,4.00,-6.09,4.00,-6.09,5.99,6.10,3.12,9.99,9.99,10.09
22.31,4.06,-6.03,4.05,-6.03,5.99,6.10,3.21,10.05,10.05,10.09
22.54,4.10,-5.99,4.10,-5.99,5.99,6.10,3.30,10.09,10.09,10.08
22.76,4.12,-5.97,4.11,-5.97,5.99,6.10,3.39,10.11,10.10,10.08
22.99,4.11,-5.97,4.10,-5.98,5.99,6.09,3.49,10.10,10.09,10.08
23.22,4.06,-6.01,4.06,-6.01,6.00,6.08,3.59,10.06,10.06,10.08
23.45,4.01,-6.07,4.01,-6.07,6.01,6.07,3.69,10.02,10.02,10.08
23.69,3.96,-6.12,3.95,-6.12,6.01,6.05,3.79,9.97,9.97,10.08
23.92,3.91,-6.16,3.92,-6.16,6.02,6.03,3.90,9.93,9.93,10.07
24.16,3.90,-6.17,3.91,-6.16,6.00,6.01,4.01,9.91,9.91,10.07
24.40,3.94,-6.13,3.94,-6.13,5.97,5.98,4.11,9.91,9.91,10.07
24.65,4.01,-6.06,4.01,-6.05,5.93,5.95,4.23,9.94,9.94,10.06
24.89,4.11,-5.95,4.11,-5.95,5.87,5.92,4.34,9.98,9.98,10.06
25.14,4.22,-5.83,4.22,-5.83,5.81,5.88,4.45,10.03,10.04,10.05
25.39,4.33,-5.71,4.33,-5.72,5.75,5.84,4.56,10.09,10.08,10.05
25.65,4.40,-5.64,4.40,-5.64,5.70,5.80,4.68,10.11,10.11,10.04
25.91,4.45,-5.59,4.44,-5.59,5.66,5.76,4.79,10.11,10.11,10.04
26.16,4.45,-5.58,4.45,-5.59,5.63,5.72,4.91,10.09,10.08,10.04
26.43,4.43,-5.60,4.43,-5.60,5.62,5.68,5.02,10.05,10.05,10.03
26.69,4.39,-5.64,4.39,-5.64,5.63,5.63,5.13,10.02,10.02,10.03
26.96,4.35,-5.67,4.35,-5.67,5.64,5.59,5.25,9.99,9.99,10.02
27.23,4.33,-5.69,4.33,-5.68,5.65,5.54,5.35,9.98,9.98,10.02
27.50,4.33,-5.68,4.33,-5.68,5.66,5.49,5.46,9.98,9.98,10.01
27.77,4.35,-5.66,4.34,-5.66,5.65,5.45,5.56,9.99,9.99,10.00
28.05,4.38,-5.62,4.38,-5.62,5.62,5.40,5.66,9.99,9.99,10.00
28.33,4.42,-5.57,4.42,-5.57,5.57,5.35,5.75,9.99,9.99,9.99
28.62,4.48,-5.51,4.48,-5.51,5.50,5.30,5.84,9.98,9.98,9.98
28.90,4.54,-5.44,4.54,-5.43,5.42,5.25,5.92,9.96,9.96,9.98
29.19,4.63,-5.35,4.63,-5.35,5.32,5.21,6.00,9.95,9.95,9.97
29.48,4.72,-5.25,4.72,-5.24,5.22,5.16,6.07,9.94,9.95,9.97
29.78,4.83,-5.13,4.83,-5.13,5.12,5.11,6.13,9.95,9.95,9.96
30.08,4.94,-5.01,4.94,-5.01,5.03,5.06,6.18,9.97,9.97,9.95
30.38,5.03,-4.91,5.03,-4.91,4.96,5.02,6.22,9.99,9.99,9.95
30.68,5.10,-4.84,5.10,-4.84,4.89,4.97,6.25,10.00,9.99,9.94
30.99,5.13,-4.80,5.13,-4.80,4.85,4.93,6.28,9.97,9.97,9.93
31.30,5.13,-4.79,5.13,-4.79,4.81,4.88,6.29,9.94,9.94,9.92
31.61,5.12,-4.79,5.12,-4.79,4.78,4.84,6.30,9.90,9.90,9.91
31.93,5.11,-4.79,5.12,-4.79,4.75,4.79,6.29,9.86,9.87,9.91
32.24,5.13,-4.77,5.14,-4.76,4.71,4.75,6.28,9.85,9.85,9.90
32.57,5.17,-4.72,5.17,-4.72,4.67,4.71,6.25,9.84,9.85,9.89
32.89,5.24,-4.64,5.24,-4.64,4.62,4.67,6.23,9.86,9.86,9.88
33.22,5.31,-4.56,5.31,-4.56,4.57,4.63,6.18,9.88,9.88,9.87
33.55,5.38,-4.48,5.38,-4.49,4.51,4.59,6.14,9.89,9.89,9.86
33.89,5.43,-4.42,5.43,-4.43,4.46,4.55,6.08,9.89,9.89,9.85
34.23,5.46,-4.39,5.46,-4.39,4.42,4.52,6.02,9.88,9.88,9.85
34.57,5.47,-4.37,5.46,-4.37,4.39,4.48,5.95,9.86,9.85,9.84
34.92,5.46,-4.37,5.46,-4.37,4.37,4.45,5.88,9.83,9.83,9.83
35.27,5.45,-4.37,5.45,-4.37,4.36,4.41,5.81,9.81,9.81,9.82
35.62,5.43,-4.37,5.43,-4.37,4.36,4.38,5.73,9.79,9.79,9.81
35.97,5.42,-4.37,5.42,-4.37,4.36,4.35,5.64,9.79,9.79,9.79
36.33,5.42,-4.37,5.42,-4.37,4.36,4.31,5.56,9.78,9.78,9.78
36.70,5.41,-4.36,5.41,-4.36,4.36,4.28,5.47,9.77,9.77,9.77
37.06,5.41,-4.35,5.41,-4.35,4.35,4.25,5.38,9.76,9.76,9.76
37.43,5.41,-4.35,5.41,-4.34,4.34,4.23,5.30,9.75,9.75,9.75
37.81,5.41,-4.33,5.41,-4.33,4.32,4.20,5.21,9.74,9.73,9.74
38.19,5.42,-4.31,5.42,-4.31,4.30,4.17,5.12,9.72,9.72,9.73
38.57,5.44,-4.28,5.44,-4.28,4.27,4.14,5.03,9.71,9.72,9.72
38.95,5.47,-4.25,5.47,-4.25,4.25,4.12,4.95,9.71,9.71,9.71
39.34,5.49,-4.21,5.49,-4.21,4.22,4.10,4.86,9.71,9.71,9.70
39.74,5.52,-4.18,5.51,-4.18,4.19,4.07,4.78,9.70,9.70,9.69
40.14,5.53,-4.15,5.53,-4.15,4.16,4.05,4.70,9.69,9.69,9.68
40.54,5.54,-4.13,5.54,-4.13,4.13,4.03,4.62,9.67,9.67,9.67
40.94,5.54,-4.11,5.55,-4.11,4.11,4.01,4.54,9.65,9.65,9.65
41.35,5.55,-4.09,5.55,-4.09,4.08,3.99,4.47,9.63,9.63,9.64
41.76,5.56,-4.06,5.56,-4.06,4.06,3.97,4.40,9.62,9.62,9.62
42.18,5.57,-4.04,5.57,-4.04,4.04,3.95,4.33,9.61,9.61,9.61
42.60,5.58,-4.01,5.58,-4.01,4.01,3.93,4.26,9.60,9.60,9.60
43.03,5.60,-3.99,5.60,-3.99,3.99,3.91,4.20,9.59,9.58,9.58
43.46,5.60,-3.96,5.60,-3.96,3.97,3.89,4.14,9.57,9.57,9.57
43.90,5.61,-3.94,5.61,-3.94,3.94,3.88,4.09,9.55,9.55,9.55
44.33,5.62,-3.92,5.62,-3.92,3.92,3.86,4.03,9.54,9.54,9.54
44.78,5.62,-3.90,5.62,-3.90,3.90,3.84,3.98,9.52,9.52,9.52
45.23,5.63,-3.88,5.63,-3.88,3.87,3.83,3.93,9.51,9.51,9.51
45.68,5.64,-3.86,5.64,-3.86,3.85,3.81,3.89,9.50,9.50,9.50
46.13,5.65,-3.83,5.65,-3.83,3.83,3.80,3.85,9.48,9.48,9.48
46.60,5.66,-3.81,5.66,-3.81,3.81,3.79,3.81,9.47,9.47,9.47
47.06,5.66,-3.79,5.66,-3.79,3.80,3.77,3.77,9.45,9.45,9.45
47.53,5.66,-3.77,5.66,-3.77,3.78,3.76,3.74,9.44,9.43,9.43
48.01,5.65,-3.76,5.65,-3.76,3.76,3.75,3.71,9.41,9.41,9.41
48.49,5.64,-3.75,5.65,-3.75,3.75,3.74,3.69,9.39,9.40,9.40
48.97,5.64,-3.74,5.64,-3.74,3.74,3.73,3.66,9.38,9.38,9.38
49.46,5.64,-3.73,5.64,-3.73,3.73,3.72,3.64,9.36,9.36,9.37
49.96,5.64,-3.71,5.64,-3.71,3.71,3.71,3.62,9.35,9.35,9.35
50.46,5.64,-3.70,5.64,-3.70,3.70,3.70,3.60,9.34,9.34,9.34
50.96,5.64,-3.68,5.64,-3.69,3.69,3.69,3.59,9.32,9.32,9.32
51.47,5.63,-3.67,5.63,-3.67,3.67,3.68,3.57,9.30,9.30,9.31
51.99,5.63,-3.66,5.63,-3.66,3.66,3.67,3.56,9.28,9.28,9.29
52.51,5.63,-3.64,5.63,-3.64,3.64,3.66,3.55,9.26,9.26,9.27
53.03,5.63,-3.62,5.63,-3.62,3.62,3.65,3.54,9.25,9.25,9.25
53.56,5.63,-3.60,5.63,-3.60,3.60,3.64,3.53,9.23,9.23,9.23
54.10,5.63,-3.58,5.63,-3.58,3.59,3.64,3.53,9.21,9.21,9.21
54.64,5.62,-3.57,5.63,-3.56,3.57,3.63,3.52,9.19,9.19,9.19
55.18,5.62,-3.55,5.62,-3.55,3.55,3.62,3.52,9.17,9.17,9.17
55.74,5.62,-3.53,5.62,-3.53,3.53,3.61,3.51,9.15,9.15,9.15
56.29,5.61,-3.52,5.61,-3.52,3.51,3.61,3.51,9.13,9.13,9.13
56.86,5.61,-3.50,5.61,-3.50,3.50,3.60,3.51,9.11,9.11,9.11
57.42,5.60,-3.49,5.60,-3.48,3.49,3.59,3.50,9.09,9.09,9.09
58.00,5.60,-3.47,5.60,-3.47,3.47,3.59,3.50,9.07,9.07,9.07
58.58,5.59,-3.46,5.59,-3.46,3.46,3.58,3.49,9.05,9.05,9.05
59.16,5.58,-3.45,5.58,-3.45,3.45,3.57,3.48,9.03,9.03,9.03
59.76,5.57,-3.44,5.57,-3.44,3.44,3.57,3.48,9.01,9.01,9.01
60.35,5.56,-3.43,5.56,-3.43,3.43,3.56,3.47,8.99,8.99,8.99
60.96,5.54,-3.42,5.54,-3.42,3.43,3.56,3.46,8.97,8.97,8.97
61.57,5.53,-3.42,5.53,-3.42,3.42,3.55,3.45,8.95,8.95,8.95
62.18,5.51,-3.41,5.51,-3.41,3.41,3.54,3.44,8.92,8.92,8.92
62.80,5.49,-3.41,5.49,-3.41,3.41,3.54,3.43,8.90,8.90,8.90
63.43,5.47,-3.41,5.47,-3.41,3.41,3.53,3.41,8.88,8.88,8.88
64.07,5.45,-3.40,5.45,-3.40,3.40,3.53,3.40,8.85,8.85,8.86
64.71,5.43,-3.40,5.43,-3.40,3.40,3.52,3.38,8.83,8.83,8.83
65.35,5.41,-3.39,5.41,-3.39,3.40,3.52,3.36,8.81,8.81,8.81
66.01,5.39,-3.39,5.39,-3.39,3.39,3.51,3.34,8.79,8.79,8.78
66.67,5.37,-3.39,5.37,-3.39,3.39,3.50,3.32,8.76,8.76,8.76
67.33,5.35,-3.39,5.35,-3.39,3.39,3.50,3.30,8.74,8.74,8.74
68.01,5.33,-3.39,5.33,-3.39,3.38,3.49,3.28,8.71,8.71,8.72
68.69,5.31,-3.38,5.31,-3.38,3.38,3.49,3.26,8.69,8.69,8.69
69.37,5.29,-3.38,5.29,-3.38,3.38,3.48,3.23,8.67,8.67,8.67
70.07,5.27,-3.37,5.27,-3.37,3.37,3.47,3.21,8.64,8.64,8.64
70.77,5.25,-3.37,5.25,-3.37,3.36,3.47,3.19,8.62,8.62,8.62
71.48,5.23,-3.36,5.23,-3.36,3.36,3.46,3.16,8.59,8.59,8.59
72.19,5.21,-3.35,5.21,-3.35,3.35,3.45,3.14,8.56,8.56,8.56
72.91,5.19,-3.34,5.19,-3.34,3.34,3.44,3.12,8.53,8.53,8.54
73.64,5.17,-3.33,5.17,-3.33,3.34,3.43,3.10,8.51,8.51,8.51
74.38,5.15,-3.33,5.15,-3.33,3.33,3.42,3.08,8.48,8.48,8.48
75.12,5.13,-3.32,5.13,-3.32,3.33,3.41,3.06,8.46,8.46,8.45
75.87,5.10,-3.32,5.10,-3.32,3.33,3.40,3.04,8.43,8.43,8.42
76.63,5.07,-3.32,5.07,-3.32,3.33,3.39,3.02,8.40,8.40,8.40
77.40,5.04,-3.33,5.04,-3.33,3.33,3.38,3.00,8.37,8.37,8.37
78.17,5.01,-3.34,5.01,-3.34,3.33,3.37,2.99,8.34,8.34,8.34
78.95,4.97,-3.34,4.97,-3.34,3.34,3.35,2.98,8.31,8.31,8.32
79.74,4.94,-3.35,4.94,-3.35,3.34,3.34,2.96,8.28,8.28,8.29
80.54,4.91,-3.35,4.91,-3.35,3.34,3.33,2.95,8.25,8.25,8.26
81.35,4.89,-3.34,4.89,-3.34,3.34,3.31,2.95,8.23,8.23,8.23
82.16,4.87,-3.34,4.86,-3.34,3.34,3.30,2.94,8.20,8.20,8.20
82.98,4.84,-3.33,4.84,-3.33,3.33,3.29,2.94,8.17,8.17,8.17
83.81,4.82,-3.32,4.82,-3.32,3.33,3.29,2.94,8.14,8.14,8.14
84.65,4.79,-3.32,4.79,-3.32,3.32,3.29,2.94,8.11,8.11,8.11
85.50,4.76,-3.31,4.76,-3.31,3.32,3.30,2.94,8.08,8.08,8.08
86.35,4.73,-3.31,4.73,-3.31,3.31,3.32,2.94,8.05,8.05,8.04
87.22,4.70,-3.31,4.70,-3.31,3.31,3.35,2.95,8.01,8.01,8.01
88.09,4.67,-3.31,4.67,-3.31,3.31,3.39,2.96,7.97,7.97,7.98
88.97,4.64,-3.31,4.64,-3.31,3.31,3.42,2.97,7.94,7.94,7.95
89.86,4.61,-3.31,4.61,-3.31,3.31,3.45,2.99,7.92,7.92,7.92
90.76,4.58,-3.30,4.58,-3.30,3.31,3.46,3.00,7.89,7.89,7.88
91.66,4.54,-3.31,4.54,-3.31,3.31,3.47,3.02,7.86,7.86,7.85
92.58,4.50,-3.32,4.50,-3.32,3.32,3.47,3.04,7.82,7.82,7.82
93.51,4.45,-3.33,4.45,-3.33,3.33,3.46,3.06,7.79,7.79,7.79
94.44,4.40,-3.35,4.40,-3.35,3.35,3.44,3.09,7.75,7.75,7.75
95.39,4.34,-3.37,4.35,-3.37,3.38,3.42,3.11,7.72,7.72,7.72
96.34,4.29,-3.39,4.29,-3.39,3.40,3.41,3.14,7.69,7.69,7.68
97.30,4.23,-3.41,4.23,-3.41,3.43,3.39,3.17,7.66,7.66,7.64
98.28,4.17,-3.44,4.16,-3.45,3.45,3.38,3.20,7.62,7.62,7.61
99.26,4.09,-3.48,4.09,-3.48,3.47,3.36,3.24,7.56,7.56,7.57
100.25,4.03,-3.51,4.03,-3.50,3.47,3.35,3.27,7.50,7.51,7.54
101.25,3.99,-3.51,4.00,-3.51,3.47,3.35,3.31,7.46,7.47,7.50
102.27,3.98,-3.48,3.98,-3.48,3.46,3.34,3.34,7.44,7.44,7.47
103.29,3.99,-3.44,3.99,-3.44,3.44,3.33,3.38,7.43,7.43,7.43
104.32,4.00,-3.39,3.99,-3.40,3.42,3.32,3.42,7.42,7.41,7.39
105.37,3.98,-3.37,3.98,-3.37,3.40,3.32,3.46,7.38,7.38,7.35
106.42,3.96,-3.35,3.96,-3.36,3.38,3.31,3.50,7.34,7.34,7.31
107.48,3.93,-3.35,3.92,-3.35,3.36,3.31,3.53,7.29,7.29,7.28
108.56,3.89,-3.35,3.89,-3.35,3.35,3.30,3.57,7.23,7.23,7.24
109.64,3.85,-3.35,3.85,-3.35,3.34,3.29,3.61,7.19,7.19,7.20
110.74,3.81,-3.35,3.82,-3.34,3.33,3.29,3.64,7.14,7.15,7.16
111.85,3.79,-3.33,3.79,-3.33,3.32,3.28,3.68,7.11,7.11,7.12
112.97,3.77,-3.31,3.77,-3.31,3.31,3.28,3.71,7.08,7.08,7.08
114.10,3.75,-3.29,3.75,-3.30,3.30,3.27,3.74,7.05,7.04,7.04
115.24,3.72,-3.28,3.72,-3.28,3.28,3.26,3.76,7.01,7.01,7.00
116.39,3.69,-3.26,3.69,-3.26,3.27,3.26,3.79,6.96,6.96,6.96
117.55,3.67,-3.25,3.66,-3.25,3.25,3.25,3.81,6.92,6.92,6.92
118.73,3.63,-3.24,3.63,-3.24,3.24,3.24,3.83,6.87,6.87,6.88
119.92,3.60,-3.23,3.60,-3.23,3.23,3.24,3.84,6.83,6.83,6.83
121.12,3.57,-3.22,3.57,-3.22,3.22,3.23,3.85,6.79,6.79,6.79
122.33,3.54,-3.21,3.54,-3.21,3.21,3.22,3.86,6.75,6.75,6.75
123.55,3.51,-3.20,3.50,-3.20,3.21,3.22,3.86,6.71,6.71,6.71
124.79,3.47,-3.20,3.46,-3.20,3.20,3.21,3.86,6.67,6.67,6.66
126.03,3.42,-3.20,3.42,-3.20,3.20,3.20,3.85,6.62,6.62,6.62
127.29,3.37,-3.20,3.37,-3.20,3.20,3.19,3.84,6.58,6.58,6.58
128.57,3.33,-3.21,3.33,-3.21,3.20,3.18,3.83,6.53,6.53,6.53
129.85,3.27,-3.21,3.28,-3.21,3.21,3.18,3.81,6.48,6.48,6.49
131.15,3.22,-3.22,3.22,-3.22,3.22,3.17,3.78,6.44,6.44,6.44
132.46,3.17,-3.23,3.17,-3.23,3.22,3.16,3.76,6.40,6.40,6.40
133.79,3.12,-3.23,3.12,-3.23,3.24,3.15,3.73,6.36,6.36,6.35
135.12,3.07,-3.24,3.07,-3.24,3.25,3.14,3.69,6.32,6.32,6.31
136.48,3.00,-3.26,3.00,-3.26,3.27,3.13,3.66,6.28,6.27,6.26
137.84,2.93,-3.29,2.93,-3.29,3.29,3.12,3.62,6.23,6.22,6.22
139.22,2.85,-3.33,2.85,-3.32,3.32,3.11,3.58,6.17,6.17,6.17
140.61,2.77,-3.36,2.77,-3.35,3.35,3.10,3.53,6.12,6.13,6.13
142.02,2.70,-3.38,2.70,-3.38,3.39,3.09,3.49,6.09,6.09,6.08
143.44,2.63,-3.40,2.63,-3.41,3.42,3.08,3.44,6.05,6.05,6.04
144.87,2.56,-3.43,2.56,-3.43,3.45,3.07,3.39,6.01,6.01,5.99
146.32,2.48,-3.46,2.48,-3.46,3.47,3.06,3.35,5.95,5.95,5.94
147.78,2.41,-3.48,2.41,-3.48,3.47,3.05,3.30,5.88,5.88,5.90
149.26,2.36,-3.49,2.36,-3.48,3.45,3.04,3.25,5.81,5.81,5.85
150.75,2.35,-3.45,2.35,-3.45,3.41,3.03,3.20,5.75,5.75,5.80
152.26,2.36,-3.39,2.37,-3.39,3.35,3.02,3.15,5.71,5.71,5.75
153.78,2.41,-3.29,2.41,-3.29,3.28,3.01,3.10,5.69,5.69,5.70
155.32,2.47,-3.19,2.47,-3.19,3.19,3.00,3.06,5.66,5.66,5.66
156.88,2.53,-3.08,2.53,-3.08,3.11,2.98,3.01,5.64,5.64,5.61
158.44,2.57,-2.99,2.57,-2.99,3.03,2.97,2.96,5.60,5.60,5.56
160.03,2.59,-2.92,2.59,-2.92,2.96,2.96,2.92,5.55,5.54,5.51
161.63,2.58,-2.88,2.58,-2.88,2.90,2.95,2.88,5.48,5.48,5.46
163.24,2.56,-2.85,2.56,-2.85,2.86,2.93,2.84,5.41,5.42,5.41
164.88,2.53,-2.83,2.53,-2.83,2.83,2.92,2.80,5.36,5.36,5.36
166.53,2.49,-2.82,2.49,-2.82,2.81,2.91,2.76,5.30,5.30,5.31
168.19,2.45,-2.81,2.45,-2.81,2.80,2.90,2.72,5.25,5.25,5.26
169.87,2.40,-2.80,2.40,-2.80,2.79,2.88,2.69,5.20,5.20,5.21
171.57,2.36,-2.79,2.36,-2.79,2.79,2.87,2.66,5.15,5.15,5.15
173.29,2.32,-2.78,2.32,-2.78,2.78,2.85,2.63,5.10,5.10,5.10
175.02,2.28,-2.77,2.28,-2.77,2.78,2.84,2.60,5.05,5.05,5.05
176.77,2.24,-2.77,2.23,-2.77,2.77,2.83,2.57,5.00,5.00,5.00
178.54,2.19,-2.76,2.19,-2.76,2.76,2.81,2.55,4.95,4.95,4.95
180.32,2.14,-2.75,2.14,-2.75,2.75,2.80,2.52,4.90,4.90,4.90
182.13,2.10,-2.75,2.10,-2.75,2.75,2.78,2.50,4.85,4.85,4.85
183.95,2.05,-2.74,2.05,-2.74,2.74,2.77,2.48,4.79,4.79,4.79
185.79,2.01,-2.73,2.01,-2.73,2.73,2.75,2.47,4.74,4.74,4.74
187.65,1.97,-2.72,1.97,-2.72,2.71,2.74,2.45,4.69,4.68,4.69
189.52,1.93,-2.70,1.93,-2.70,2.69,2.72,2.44,4.63,4.63,4.64
191.42,1.90,-2.68,1.90,-2.68,2.67,2.71,2.43,4.57,4.57,4.58
193.33,1.87,-2.66,1.87,-2.66,2.65,2.69,2.42,4.52,4.52,4.53
195.27,1.84,-2.63,1.85,-2.63,2.63,2.67,2.41,4.47,4.47,4.47
197.22,1.82,-2.60,1.82,-2.60,2.61,2.66,2.40,4.43,4.43,4.42
199.19,1.80,-2.57,1.79,-2.57,2.59,2.64,2.40,4.39,4.38,4.36
201.18,1.75,-2.56,1.75,-2.56,2.58,2.62,2.39,4.33,4.33,4.31
203.19,1.70,-2.55,1.70,-2.56,2.57,2.61,2.39,4.26,4.26,4.25
205.23,1.64,-2.56,1.64,-2.56,2.56,2.59,2.39,4.19,4.20,4.20
207.28,1.58,-2.57,1.58,-2.56,2.55,2.57,2.39,4.13,4.13,4.14
209.35,1.53,-2.56,1.53,-2.56,2.55,2.55,2.39,4.08,4.08,4.09
211.44,1.48,-2.55,1.48,-2.55,2.54,2.54,2.39,4.03,4.03,4.03
213.56,1.44,-2.54,1.44,-2.54,2.54,2.52,2.39,3.98,3.98,3.98
215.69,1.40,-2.52,1.40,-2.52,2.53,2.50,2.39,3.92,3.92,3.92
217.85,1.36,-2.51,1.36,-2.51,2.51,2.48,2.39,3.87,3.87,3.86
220.03,1.31,-2.49,1.31,-2.49,2.50,2.46,2.39,3.81,3.81,3.81
222.23,1.27,-2.48,1.27,-2.48,2.48,2.44,2.39,3.75,3.75,3.75
224.45,1.23,-2.46,1.23,-2.46,2.46,2.42,2.39,3.70,3.70,3.70
226.70,1.19,-2.45,1.19,-2.45,2.45,2.40,2.39,3.64,3.64,3.64
228.96,1.15,-2.43,1.15,-2.43,2.43,2.39,2.39,3.58,3.58,3.58
231.25,1.12,-2.41,1.12,-2.41,2.41,2.37,2.39,3.52,3.52,3.53
233.57,1.08,-2.39,1.08,-2.39,2.39,2.35,2.39,3.47,3.47,3.47
235.90,1.05,-2.36,1.05,-2.36,2.36,2.33,2.38,3.41,3.41,3.41
238.26,1.02,-2.34,1.02,-2.34,2.33,2.30,2.38,3.35,3.35,3.36
240.64,0.99,-2.31,0.99,-2.31,2.30,2.28,2.37,3.30,3.30,3.30
243.05,0.97,-2.27,0.97,-2.27,2.27,2.26,2.36,3.24,3.24,3.24
245.48,0.95,-2.24,0.95,-2.24,2.24,2.24,2.34,3.19,3.19,3.19
247.93,0.93,-2.20,0.93,-2.20,2.20,2.22,2.33,3.13,3.13,3.13
250.41,0.91,-2.17,0.91,-2.17,2.17,2.20,2.31,3.08,3.08,3.07
252.92,0.88,-2.14,0.88,-2.14,2.14,2.18,2.30,3.02,3.02,3.02
255.45,0.86,-2.10,0.86,-2.10,2.11,2.16,2.28,2.96,2.96,2.96
258.00,0.83,-2.08,0.83,-2.08,2.08,2.14,2.25,2.91,2.91,2.90
260.58,0.79,-2.05,0.79,-2.05,2.06,2.11,2.23,2.85,2.85,2.85
263.19,0.76,-2.03,0.76,-2.03,2.03,2.09,2.20,2.79,2.79,2.79
265.82,0.72,-2.01,0.72,-2.01,2.01,2.07,2.18,2.73,2.73,2.73
268.48,0.68,-1.99,0.68,-1.99,1.99,2.05,2.15,2.67,2.67,2.68
271.16,0.64,-1.97,0.64,-1.97,1.97,2.02,2.12,2.62,2.62,2.62
273.87,0.61,-1.95,0.61,-1.95,1.95,2.00,2.08,2.56,2.56,2.56
276.61,0.57,-1.93,0.57,-1.93,1.93,1.98,2.05,2.50,2.50,2.50
279.38,0.53,-1.91,0.53,-1.91,1.91,1.95,2.01,2.44,2.44,2.44
282.17,0.50,-1.89,0.50,-1.89,1.89,1.93,1.98,2.38,2.38,2.38
284.99,0.46,-1.86,0.46,-1.87,1.87,1.91,1.94,2.32,2.32,2.32
287.84,0.42,-1.84,0.42,-1.84,1.84,1.88,1.90,2.27,2.27,2.27
290.72,0.39,-1.82,0.39,-1.82,1.82,1.86,1.87,2.21,2.21,2.21
293.63,0.35,-1.80,0.35,-1.80,1.79,1.83,1.83,2.15,2.15,2.15
296.57,0.32,-1.77,0.32,-1.77,1.77,1.81,1.79,2.09,2.09,2.09
299.53,0.29,-1.74,0.29,-1.74,1.74,1.78,1.75,2.03,2.03,2.03
302.53,0.25,-1.71,0.25,-1.71,1.71,1.76,1.71,1.97,1.97,1.97
305.55,0.22,-1.69,0.22,-1.69,1.68,1.73,1.67,1.91,1.91,1.91
308.61,0.19,-1.66,0.19,-1.66,1.66,1.71,1.63,1.85,1.85,1.85
311.69,0.16,-1.63,0.16,-1.63,1.63,1.68,1.59,1.79,1.79,1.79
314.81,0.14,-1.60,0.14,-1.60,1.60,1.66,1.56,1.73,1.73,1.73
317.96,0.11,-1.57,0.11,-1.57,1.57,1.63,1.52,1.68,1.68,1.68
321.14,0.08,-1.55,0.08,-1.55,1.55,1.61,1.48,1.63,1.63,1.62
324.35,0.05,-1.52,0.05,-1.52,1.53,1.58,1.45,1.57,1.57,1.57
327.59,0.02,-1.50,0.02,-1.50,1.50,1.55,1.41,1.52,1.52,1.52
330.87,-0.01,-1.48,-0.01,-1.48,1.49,1.53,1.38,1.47,1.47,1.47
334.18,-0.04,-1.47,-0.04,-1.47,1.47,1.50,1.34,1.42,1.42,1.42
337.52,-0.07,-1.45,-0.07,-1.45,1.45,1.48,1.31,1.38,1.38,1.38
340.90,-0.10,-1.44,-0.10,-1.44,1.43,1.45,1.28,1.33,1.33,1.33
344.30,-0.13,-1.42,-0.13,-1.42,1.41,1.42,1.25,1.29,1.29,1.29
347.75,-0.15,-1.40,-0.15,-1.40,1.40,1.40,1.22,1.24,1.24,1.24
351.23,-0.18,-1.38,-0.18,-1.38,1.38,1.37,1.19,1.20,1.20,1.20
354.74,-0.21,-1.35,-0.21,-1.35,1.35,1.34,1.16,1.15,1.15,1.15
358.28,-0.24,-1.33,-0.24,-1.33,1.33,1.31,1.13,1.09,1.09,1.09
361.87,-0.26,-1.30,-0.26,-1.30,1.30,1.29,1.10,1.04,1.04,1.04
365.49,-0.29,-1.28,-0.29,-1.28,1.28,1.26,1.08,0.99,0.99,0.99
369.14,-0.31,-1.25,-0.31,-1.25,1.25,1.23,1.05,0.93,0.93,0.93
372.83,-0.34,-1.22,-0.34,-1.22,1.22,1.20,1.03,0.88,0.88,0.88
376.56,-0.36,-1.19,-0.36,-1.19,1.19,1.18,1.00,0.83,0.83,0.83
380.33,-0.39,-1.16,-0.39,-1.16,1.16,1.15,0.98,0.77,0.77,0.77
384.13,-0.41,-1.13,-0.41,-1.13,1.13,1.12,0.96,0.72,0.72,0.72
387.97,-0.43,-1.10,-0.43,-1.10,1.10,1.10,0.94,0.67,0.66,0.67
391.85,-0.46,-1.07,-0.46,-1.07,1.07,1.07,0.92,0.61,0.61,0.61
395.77,-0.48,-1.04,-0.48,-1.04,1.04,1.04,0.90,0.56,0.56,0.56
399.73,-0.50,-1.01,-0.50,-1.01,1.01,1.01,0.88,0.51,0.51,0.50
403.72,-0.53,-0.98,-0.53,-0.98,0.98,0.99,0.86,0.45,0.45,0.45
407.76,-0.55,-0.95,-0.55,-0.95,0.95,0.96,0.84,0.40,0.40,0.40
411.84,-0.58,-0.92,-0.58,-0.92,0.92,0.93,0.82,0.35,0.35,0.35
415.96,-0.60,-0.89,-0.60,-0.89,0.89,0.90,0.81,0.30,0.30,0.30
420.12,-0.62,-0.87,-0.62,-0.87,0.86,0.88,0.79,0.24,0.24,0.25
424.32,-0.64,-0.84,-0.64,-0.84,0.83,0.85,0.77,0.19,0.19,0.19
428.56,-0.66,-0.81,-0.66,-0.81,0.80,0.82,0.76,0.14,0.14,0.14
432.85,-0.68,-0.77,-0.68,-0.77,0.77,0.79,0.74,0.09,0.09,0.09
437.18,-0.70,-0.74,-0.70,-0.74,0.74,0.77,0.73,0.04,0.04,0.04
441.55,-0.72,-0.71,-0.72,-0.71,0.71,0.74,0.71,-0.01,-0.01,-0.01
445.96,-0.74,-0.68,-0.74,-0.68,0.69,0.71,0.69,-0.06,-0.06,-0.06
450.42,-0.76,-0.66,-0.76,-0.66,0.66,0.69,0.68,-0.11,-0.10,-0.11
454.93,-0.78,-0.63,-0.78,-0.63,0.63,0.66,0.66,-0.15,-0.15,-0.15
459.48,-0.80,-0.60,-0.80,-0.60,0.60,0.63,0.65,-0.20,-0.20,-0.20
464.07,-0.82,-0.58,-0.82,-0.57,0.57,0.61,0.63,-0.25,-0.25,-0.25
468.71,-0.84,-0.55,-0.84,-0.55,0.55,0.58,0.62,-0.30,-0.30,-0.29
473.40,-0.86,-0.52,-0.86,-0.52,0.52,0.56,0.60,-0.34,-0.34,-0.34
478.13,-0.88,-0.49,-0.88,-0.49,0.49,0.53,0.58,-0.39,-0.39,-0.39
482.91,-0.89,-0.46,-0.89,-0.46,0.46,0.51,0.57,-0.43,-0.43,-0.44
487.74,-0.91,-0.43,-0.91,-0.43,0.43,0.48,0.55,-0.48,-0.48,-0.48
492.62,-0.93,-0.40,-0.93,-0.40,0.40,0.46,0.53,-0.53,-0.53,-0.52
497.55,-0.94,-0.38,-0.94,-0.38,0.37,0.43,0.51,-0.57,-0.57,-0.57
502.52,-0.96,-0.34,-0.96,-0.34,0.34,0.41,0.49,-0.62,-0.62,-0.61
507.55,-0.97,-0.31,-0.97,-0.31,0.31,0.38,0.48,-0.66,-0.66,-0.66
512.62,-0.98,-0.28,-0.98,-0.28,0.28,0.36,0.46,-0.70,-0.70,-0.70
517.75,-0.99,-0.25,-0.99,-0.25,0.25,0.33,0.44,-0.74,-0.74,-0.74
522.93,-1.00,-0.22,-1.01,-0.22,0.22,0.31,0.42,-0.78,-0.78,-0.79
528.16,-1.02,-0.19,-1.02,-0.19,0.19,0.28,0.39,-0.83,-0.83,-0.83
533.44,-1.03,-0.16,-1.03,-0.16,0.17,0.26,0.37,-0.87,-0.87,-0.87
538.77,-1.05,-0.14,-1.05,-0.14,0.14,0.24,0.35,-0.91,-0.91,-0.91
544.16,-1.06,-0.11,-1.06,-0.11,0.11,0.21,0.33,-0.95,-0.95,-0.95
549.60,-1.07,-0.09,-1.07,-0.09,0.09,0.19,0.30,-0.99,-0.99,-0.99
555.10,-1.09,-0.06,-1.09,-0.06,0.06,0.17,0.28,-1.02,-1.03,-1.02
