frequency,raw,error,smoothed,error_smoothed,equalization,parametric_eq,fixed_band_eq,equalized_raw,equalized_smoothed,target
20.00,1.91,-6.08,1.91,-6.08,6.04,-0.10,1.61,7.95,7.95,7.98
20.20,1.98,-6.00,1.98,-6.00,5.97,-0.10,1.66,7.96,7.96,7.98
20.40,2.06,-5.92,2.06,-5.92,5.91,-0.10,1.71,7.97,7.97,7.98
20.61,2.13,-5.85,2.13,-5.85,5.84,-0.10,1.77,7.97,7.97,7.98
20.81,2.21,-5.77,2.21,-5.77,5.77,-0.11,1.82,7.98,7.98,7.98
21.02,2.28,-5.70,2.28,-5.70,5.70,-0.11,1.88,7.98,7.98,7.98
21.23,2.36,-5.63,2.36,-5.63,5.63,-0.11,1.93,7.99,7.99,7.98
21.44,2.43,-5.56,2.43,-5.56,5.56,-0.11,1.99,7.99,7.99,7.98
21.66,2.50,-5.48,2.50,-5.48,5.48,-0.12,2.05,7.98,7.98,7.98
21.87,2.57,-5.41,2.57,-5.41,5.41,-0.12,2.12,7.98,7.98,7.98
22.09,2.64,-5.35,2.64,-5.34,5.35,-0.12,2.18,7.98,7.98,7.98
22.31,2.71,-5.28,2.71,-5.28,5.28,-0.12,2.25,7.98,7.98,7.98
22.54,2.77,-5.21,2.77,-5.21,5.21,-0.13,2.31,7.98,7.98,7.98
22.76,2.84,-5.14,2.84,-5.14,5.14,-0.13,2.38,7.98,7.98,7.98
22.99,2.91,-5.08,2.91,-5.08,5.08,-0.13,2.45,7.98,7.98,7.98
23.22,2.97,-5.01,2.97,-5.01,5.01,-0.13,2.53,7.98,7.98,7.98
23.45,3.04,-4.95,3.04,-4.95,4.95,-0.14,2.60,7.98,7.98,7.98
23.69,3.10,-4.88,3.10,-4.88,4.88,-0.14,2.68,7.98,7.98,7.98
23.92,3.16,-4.82,3.16,-4.82,4.82,-0.14,2.75,7.98,7.98,7.98
24.16,3.23,-4.76,3.23,-4.76,4.76,-0.15,2.83,7.98,7.98,7.98
24.40,3.29,-4.69,3.29,-4.69,4.69,-0.15,2.91,7.98,7.98,7.98
24.65,3.35,-4.63,3.35,-4.63,4.63,-0.15,2.99,7.98,7.98,7.98
24.89,3.42,-4.57,3.42,-4.57,4.57,-0.16,3.07,7.98,7.98,7.98
25.14,3.48,-4.50,3.48,-4.50,4.50,-0.16,3.15,7.98,7.98,7.98
25.39,3.54,-4.44,3.54,-4.44,4.44,-0.16,3.24,7.98,7.98,7.98
25.65,3.61,-4.38,3.61,-4.38,4.38,-0.17,3.32,7.98,7.98,7.98
25.91,3.67,-4.31,3.67,-4.31,4.31,-0.17,3.40,7.98,7.98,7.98
26.16,3.73,-4.25,3.74,-4.25,4.25,-0.17,3.48,7.98,7.98,7.98
26.43,3.80,-4.18,3.80,-4.18,4.18,-0.18,3.56,7.98,7.98,7.98
26.69,3.86,-4.12,3.86,-4.12,4.12,-0.18,3.64,7.98,7.98,7.98
26.96,3.93,-4.05,3.93,-4.05,4.05,-0.18,3.72,7.98,7.98,7.98
27.23,3.99,-3.99,3.99,-3.99,3.99,-0.19,3.79,7.98,7.98,7.98
27.50,4.06,-3.92,4.06,-3.92,3.92,-0.19,3.86,7.98,7.98,7.98
27.77,4.13,-3.85,4.13,-3.85,3.85,-0.20,3.93,7.98,7.98,7.98
28.05,4.19,-3.79,4.19,-3.79,3.79,-0.20,3.99,7.98,7.98,7.98
28.33,4.26,-3.72,4.26,-3.72,3.72,-0.20,4.05,7.98,7.98,7.98
28.62,4.32,-3.65,4.32,-3.65,3.65,-0.21,4.11,7.98,7.98,7.97
28.90,4.39,-3.59,4.39,-3.59,3.59,-0.21,4.16,7.98,7.98,7.98
29.19,4.45,-3.53,4.45,-3.53,3.53,-0.22,4.20,7.99,7.99,7.98
29.48,4.52,-3.47,4.52,-3.47,3.47,-0.22,4.24,7.99,7.99,7.99
29.78,4.58,-3.41,4.59,-3.41,3.41,-0.23,4.27,8.00,8.00,8.00
30.08,4.65,-3.36,4.65,-3.35,3.35,-0.23,4.29,8.00,8.00,8.01
30.38,4.71,-3.30,4.71,-3.30,3.29,-0.24,4.30,8.01,8.01,8.01
30.68,4.78,-3.24,4.78,-3.24,3.23,-0.24,4.31,8.01,8.01,8.01
30.99,4.84,-3.17,4.84,-3.17,3.17,-0.25,4.31,8.01,8.01,8.01
31.30,4.90,-3.11,4.90,-3.11,3.10,-0.25,4.29,8.01,8.01,8.01
31.61,4.97,-3.04,4.97,-3.04,3.03,-0.26,4.28,8.00,8.00,8.00
31.93,5.03,-2.97,5.03,-2.97,2.96,-0.27,4.25,7.99,7.99,7.99
32.24,5.09,-2.89,5.09,-2.89,2.89,-0.27,4.21,7.98,7.98,7.98
32.57,5.15,-2.82,5.15,-2.82,2.83,-0.28,4.17,7.98,7.98,7.97
32.89,5.21,-2.75,5.21,-2.75,2.76,-0.28,4.12,7.97,7.97,7.96
33.22,5.27,-2.69,5.27,-2.69,2.69,-0.29,4.06,7.96,7.96,7.96
33.55,5.33,-2.62,5.33,-2.63,2.63,-0.30,3.99,7.96,7.96,7.95
33.89,5.39,-2.57,5.39,-2.57,2.57,-0.30,3.92,7.95,7.95,7.95
34.23,5.44,-2.51,5.44,-2.51,2.51,-0.31,3.84,7.95,7.95,7.95
34.57,5.50,-2.45,5.50,-2.45,2.45,-0.32,3.75,7.95,7.95,7.95
34.92,5.56,-2.39,5.56,-2.39,2.39,-0.32,3.67,7.94,7.94,7.95
35.27,5.61,-2.33,5.61,-2.33,2.32,-0.33,3.57,7.94,7.94,7.94
35.62,5.67,-2.26,5.67,-2.26,2.26,-0.34,3.47,7.93,7.93,7.93
35.97,5.72,-2.20,5.72,-2.20,2.20,-0.34,3.37,7.92,7.92,7.92
36.33,5.78,-2.13,5.78,-2.13,2.13,-0.35,3.27,7.91,7.91,7.91
36.70,5.83,-2.06,5.83,-2.06,2.06,-0.36,3.16,7.90,7.90,7.90
37.06,5.89,-1.99,5.89,-2.00,2.00,-0.37,3.05,7.89,7.89,7.88
37.43,5.94,-1.93,5.94,-1.93,1.93,-0.38,2.94,7.87,7.87,7.87
37.81,5.99,-1.86,5.99,-1.86,1.87,-0.39,2.82,7.86,7.86,7.86
38.19,6.05,-1.80,6.05,-1.80,1.80,-0.39,2.71,7.85,7.85,7.85
38.57,6.10,-1.73,6.10,-1.73,1.73,-0.40,2.59,7.83,7.83,7.83
38.95,6.15,-1.67,6.15,-1.67,1.67,-0.41,2.48,7.82,7.82,7.82
39.34,6.20,-1.60,6.20,-1.60,1.60,-0.42,2.36,7.80,7.80,7.80
39.74,6.25,-1.54,6.25,-1.54,1.54,-0.43,2.25,7.79,7.79,7.79
40.14,6.30,-1.47,6.30,-1.47,1.47,-0.44,2.13,7.77,7.77,7.77
40.54,6.35,-1.40,6.35,-1.40,1.40,-0.45,2.02,7.75,7.75,7.75
40.94,6.40,-1.33,6.40,-1.33,1.33,-0.46,1.90,7.73,7.73,7.73
41.35,6.44,-1.27,6.44,-1.27,1.27,-0.47,1.79,7.71,7.71,7.71
41.76,6.49,-1.20,6.49,-1.20,1.20,-0.48,1.68,7.69,7.69,7.69
42.18,6.54,-1.13,6.54,-1.13,1.13,-0.50,1.56,7.67,7.67,7.67
42.60,6.58,-1.06,6.58,-1.06,1.06,-0.51,1.45,7.65,7.65,7.65
43.03,6.63,-0.99,6.63,-0.99,0.99,-0.52,1.34,7.62,7.62,7.62
43.46,6.67,-0.93,6.67,-0.93,0.93,-0.53,1.23,7.60,7.60,7.60
43.90,6.72,-0.86,6.72,-0.86,0.86,-0.54,1.12,7.57,7.57,7.57
44.33,6.76,-0.79,6.76,-0.79,0.79,-0.56,1.01,7.55,7.55,7.55
44.78,6.80,-0.72,6.80,-0.72,0.72,-0.57,0.91,7.52,7.52,7.52
45.23,6.84,-0.65,6.84,-0.65,0.65,-0.58,0.80,7.50,7.50,7.50
45.68,6.88,-0.59,6.88,-0.59,0.59,-0.60,0.70,7.47,7.47,7.47
46.13,6.92,-0.52,6.92,-0.52,0.52,-0.61,0.59,7.44,7.44,7.44
46.60,6.96,-0.46,6.96,-0.46,0.45,-0.63,0.49,7.41,7.41,7.41
47.06,7.00,-0.39,7.00,-0.39,0.39,-0.64,0.38,7.38,7.38,7.39
47.53,7.03,-0.32,7.03,-0.32,0.32,-0.66,0.28,7.35,7.35,7.35
48.01,7.07,-0.25,7.07,-0.25,0.25,-0.67,0.18,7.32,7.32,7.32
48.49,7.10,-0.19,7.10,-0.19,0.19,-0.69,0.08,7.29,7.29,7.29
48.97,7.14,-0.12,7.14,-0.12,0.12,-0.71,-0.02,7.26,7.26,7.26
49.46,7.17,-0.05,7.17,-0.05,0.05,-0.72,-0.12,7.22,7.22,7.22
49.96,7.20,0.01,7.20,0.01,-0.01,-0.74,-0.22,7.19,7.19,7.19
50.46,7.23,0.08,7.23,0.08,-0.08,-0.76,-0.31,7.15,7.15,7.15
50.96,7.26,0.14,7.26,0.14,-0.15,-0.78,-0.41,7.12,7.12,7.12
51.47,7.29,0.21,7.29,0.21,-0.21,-0.80,-0.50,7.08,7.08,7.08
51.99,7.33,0.28,7.33,0.28,-0.28,-0.82,-0.60,7.05,7.05,7.05
52.51,7.36,0.35,7.36,0.35,-0.35,-0.84,-0.69,7.01,7.01,7.01
53.03,7.39,0.42,7.39,0.42,-0.42,-0.86,-0.78,6.97,6.97,6.97
53.56,7.42,0.49,7.42,0.49,-0.49,-0.88,-0.87,6.93,6.93,6.93
54.10,7.45,0.56,7.45,0.56,-0.56,-0.90,-0.96,6.89,6.89,6.89
54.64,7.48,0.63,7.48,0.63,-0.63,-0.93,-1.05,6.85,6.85,6.85
55.18,7.51,0.70,7.51,0.70,-0.70,-0.95,-1.13,6.81,6.81,6.81
55.74,7.54,0.77,7.54,0.77,-0.77,-0.98,-1.21,6.77,6.77,6.77
56.29,7.57,0.85,7.57,0.85,-0.85,-1.00,-1.30,6.72,6.72,6.72
56.86,7.60,0.92,7.60,0.92,-0.92,-1.03,-1.38,6.68,6.68,6.68
57.42,7.63,1.00,7.63,1.00,-1.00,-1.05,-1.45,6.64,6.64,6.64
58.00,7.67,1.08,7.67,1.08,-1.08,-1.08,-1.53,6.59,6.59,6.59
58.58,7.70,1.15,7.70,1.15,-1.15,-1.11,-1.60,6.55,6.55,6.54
59.16,7.73,1.23,7.73,1.23,-1.23,-1.14,-1.67,6.50,6.50,6.50
59.76,7.76,1.31,7.76,1.31,-1.31,-1.17,-1.74,6.45,6.45,6.45
60.35,7.79,1.39,7.79,1.39,-1.39,-1.20,-1.81,6.40,6.40,6.41
60.96,7.82,1.47,7.82,1.47,-1.47,-1.23,-1.87,6.36,6.36,6.36
61.57,7.85,1.55,7.85,1.55,-1.55,-1.27,-1.93,6.31,6.31,6.31
62.18,7.88,1.63,7.88,1.63,-1.63,-1.30,-1.99,6.26,6.26,6.26
62.80,7.91,1.71,7.91,1.71,-1.70,-1.34,-2.04,6.21,6.21,6.21
63.43,7.94,1.78,7.94,1.78,-1.78,-1.37,-2.10,6.16,6.16,6.16
64.07,7.97,1.86,7.97,1.86,-1.86,-1.41,-2.15,6.11,6.11,6.11
64.71,7.99,1.94,7.99,1.94,-1.94,-1.45,-2.19,6.06,6.06,6.06
65.35,8.02,2.01,8.02,2.01,-2.01,-1.49,-2.24,6.00,6.00,6.00
66.01,8.04,2.09,8.04,2.09,-2.09,-1.53,-2.28,5.95,5.95,5.95
66.67,8.06,2.16,8.06,2.16,-2.16,-1.58,-2.33,5.90,5.90,5.90
67.33,8.08,2.24,8.08,2.24,-2.24,-1.62,-2.37,5.85,5.85,5.85
68.01,8.10,2.31,8.10,2.31,-2.31,-1.67,-2.41,5.79,5.79,5.79
68.69,8.12,2.39,8.12,2.39,-2.39,-1.72,-2.44,5.74,5.74,5.74
69.37,8.14,2.46,8.14,2.46,-2.46,-1.77,-2.48,5.68,5.68,5.68
70.07,8.16,2.54,8.16,2.54,-2.54,-1.82,-2.52,5.62,5.62,5.62
70.77,8.18,2.61,8.18,2.61,-2.61,-1.87,-2.55,5.57,5.57,5.57
71.48,8.19,2.68,8.19,2.68,-2.68,-1.93,-2.59,5.51,5.51,5.51
72.19,8.21,2.75,8.21,2.75,-2.76,-1.98,-2.62,5.45,5.45,5.45
72.91,8.22,2.83,8.22,2.83,-2.83,-2.04,-2.66,5.39,5.39,5.39
73.64,8.23,2.90,8.23,2.90,-2.90,-2.10,-2.69,5.33,5.33,5.33
74.38,8.24,2.97,8.24,2.97,-2.97,-2.16,-2.73,5.27,5.27,5.27
75.12,8.25,3.04,8.25,3.04,-3.04,-2.23,-2.76,5.21,5.21,5.21
75.87,8.26,3.11,8.26,3.11,-3.11,-2.30,-2.80,5.15,5.15,5.15
76.63,8.27,3.18,8.27,3.18,-3.18,-2.36,-2.84,5.09,5.09,5.09
77.40,8.28,3.24,8.28,3.24,-3.25,-2.44,-2.88,5.03,5.03,5.03
78.17,8.29,3.31,8.29,3.31,-3.31,-2.51,-2.92,4.97,4.97,4.97
78.95,8.29,3.38,8.29,3.38,-3.38,-2.59,-2.97,4.91,4.91,4.91
79.74,8.30,3.45,8.30,3.45,-3.45,-2.66,-3.01,4.85,4.85,4.85
80.54,8.30,3.51,8.30,3.52,-3.51,-2.75,-3.06,4.79,4.79,4.79
81.35,8.31,3.58,8.30,3.58,-3.58,-2.83,-3.11,4.72,4.72,4.72
82.16,8.31,3.65,8.31,3.65,-3.65,-2.92,-3.16,4.66,4.66,4.66
82.98,8.31,3.71,8.31,3.71,-3.71,-3.00,-3.21,4.60,4.60,4.60
83.81,8.31,3.78,8.31,3.78,-3.78,-3.10,-3.27,4.53,4.53,4.53
84.65,8.31,3.84,8.31,3.84,-3.84,-3.19,-3.33,4.47,4.47,4.47
85.50,8.31,3.90,8.31,3.90,-3.91,-3.29,-3.39,4.41,4.41,4.41
86.35,8.31,3.97,8.31,3.97,-3.97,-3.38,-3.45,4.34,4.34,4.35
87.22,8.31,4.03,8.31,4.03,-4.03,-3.49,-3.52,4.28,4.28,4.28
88.09,8.31,4.10,8.31,4.10,-4.09,-3.59,-3.59,4.22,4.22,4.21
88.97,8.31,4.16,8.31,4.16,-4.16,-3.69,-3.66,4.16,4.16,4.15
89.86,8.31,4.22,8.31,4.22,-4.22,-3.80,-3.74,4.09,4.09,4.09
90.76,8.31,4.28,8.31,4.28,-4.28,-3.91,-3.81,4.03,4.03,4.03
91.66,8.31,4.34,8.31,4.34,-4.35,-4.02,-3.89,3.97,3.97,3.97
92.58,8.31,4.40,8.31,4.40,-4.41,-4.13,-3.98,3.90,3.90,3.91
93.51,8.31,4.47,8.31,4.47,-4.47,-4.24,-4.06,3.84,3.84,3.84
94.44,8.31,4.53,8.31,4.53,-4.53,-4.35,-4.15,3.78,3.78,3.77
95.39,8.31,4.60,8.31,4.60,-4.60,-4.46,-4.24,3.71,3.71,3.71
96.34,8.30,4.66,8.30,4.66,-4.66,-4.57,-4.34,3.65,3.65,3.65
97.30,8.30,4.72,8.30,4.72,-4.72,-4.68,-4.43,3.58,3.58,3.58
98.28,8.30,4.78,8.30,4.78,-4.78,-4.79,-4.53,3.52,3.52,3.52
99.26,8.30,4.84,8.30,4.84,-4.84,-4.89,-4.63,3.46,3.46,3.46
100.25,8.29,4.90,8.29,4.90,-4.90,-4.99,-4.73,3.40,3.39,3.39
101.25,8.29,4.95,8.29,4.95,-4.95,-5.09,-4.84,3.33,3.33,3.33
102.27,8.28,5.01,8.28,5.01,-5.01,-5.18,-4.94,3.27,3.27,3.27
103.29,8.27,5.06,8.27,5.06,-5.06,-5.27,-5.05,3.21,3.21,3.21
104.32,8.27,5.12,8.27,5.12,-5.12,-5.34,-5.15,3.15,3.15,3.15
105.37,8.26,5.17,8.26,5.17,-5.17,-5.42,-5.26,3.09,3.09,3.09
106.42,8.25,5.22,8.25,5.22,-5.22,-5.48,-5.36,3.02,3.02,3.03
107.48,8.24,5.28,8.24,5.28,-5.27,-5.55,-5.47,2.96,2.96,2.96
108.56,8.23,5.32,8.23,5.32,-5.32,-5.60,-5.57,2.90,2.90,2.90
109.64,8.22,5.37,8.22,5.37,-5.37,-5.65,-5.67,2.84,2.84,2.84
110.74,8.20,5.42,8.20,5.42,-5.42,-5.69,-5.77,2.78,2.78,2.78
111.85,8.19,5.46,8.19,5.46,-5.46,-5.73,-5.87,2.72,2.72,2.72
112.97,8.17,5.51,8.17,5.51,-5.51,-5.76,-5.96,2.67,2.67,2.67
114.10,8.16,5.55,8.16,5.55,-5.55,-5.79,-6.05,2.61,2.61,2.61
115.24,8.14,5.59,8.14,5.59,-5.60,-5.82,-6.14,2.55,2.55,2.55
116.39,8.13,5.64,8.13,5.64,-5.64,-5.85,-6.22,2.49,2.49,2.49
117.55,8.11,5.68,8.11,5.68,-5.68,-5.88,-6.29,2.43,2.43,2.43
118.73,8.09,5.72,8.09,5.72,-5.72,-5.91,-6.36,2.37,2.37,2.37
119.92,8.07,5.76,8.07,5.76,-5.76,-5.93,-6.42,2.31,2.31,2.31
121.12,8.05,5.80,8.05,5.80,-5.80,-5.96,-6.47,2.25,2.25,2.25
122.33,8.03,5.84,8.03,5.84,-5.84,-5.98,-6.52,2.19,2.19,2.19
123.55,8.01,5.87,8.01,5.87,-5.87,-6.00,-6.56,2.14,2.14,2.14
124.79,7.98,5.91,7.98,5.91,-5.91,-6.02,-6.59,2.08,2.08,2.08
126.03,7.96,5.94,7.96,5.94,-5.94,-6.03,-6.61,2.02,2.02,2.02
127.29,7.94,5.97,7.94,5.97,-5.97,-6.04,-6.62,1.97,1.97,1.97
128.57,7.91,6.00,7.91,6.00,-6.00,-6.05,-6.64,1.91,1.91,1.91
129.85,7.89,6.03,7.89,6.03,-6.03,-6.06,-6.63,1.85,1.85,1.86
131.15,7.86,6.06,7.86,6.06,-6.06,-6.06,-6.63,1.80,1.80,1.80
132.46,7.84,6.09,7.84,6.09,-6.09,-6.06,-6.61,1.74,1.74,1.74
133.79,7.81,6.12,7.81,6.12,-6.12,-6.06,-6.60,1.69,1.69,1.69
135.12,7.78,6.15,7.78,6.15,-6.15,-6.06,-6.57,1.63,1.63,1.63
136.48,7.75,6.18,7.75,6.18,-6.18,-6.06,-6.54,1.58,1.58,1.57
137.84,7.72,6.20,7.72,6.20,-6.20,-6.06,-6.50,1.52,1.52,1.52
139.22,7.69,6.23,7.69,6.23,-6.23,-6.06,-6.47,1.47,1.47,1.47
140.61,7.66,6.25,7.66,6.25,-6.25,-6.06,-6.42,1.41,1.41,1.41
142.02,7.63,6.27,7.63,6.28,-6.28,-6.06,-6.38,1.36,1.36,1.36
143.44,7.60,6.30,7.60,6.30,-6.30,-6.06,-6.33,1.30,1.30,1.30
144.87,7.57,6.32,7.57,6.32,-6.32,-6.07,-6.29,1.25,1.25,1.25
146.32,7.54,6.34,7.54,6.34,-6.34,-6.07,-6.24,1.20,1.20,1.20
147.78,7.50,6.36,7.50,6.36,-6.36,-6.08,-6.19,1.14,1.14,1.14
149.26,7.47,6.38,7.47,6.38,-6.38,-6.09,-6.14,1.09,1.09,1.09
150.75,7.43,6.39,7.43,6.39,-6.40,-6.10,-6.10,1.04,1.04,1.04
152.26,7.40,6.41,7.40,6.41,-6.41,-6.12,-6.05,0.98,0.98,0.98
153.78,7.36,6.43,7.36,6.43,-6.43,-6.14,-6.01,0.93,0.93,0.93
155.32,7.32,6.44,7.32,6.44,-6.44,-6.16,-5.97,0.88,0.88,0.88
156.88,7.28,6.46,7.28,6.46,-6.46,-6.18,-5.93,0.83,0.83,0.83
158.44,7.25,6.47,7.25,6.47,-6.47,-6.21,-5.89,0.77,0.77,0.78
160.03,7.21,6.48,7.21,6.48,-6.48,-6.23,-5.86,0.72,0.72,0.72
161.63,7.17,6.50,7.17,6.50,-6.50,-6.26,-5.83,0.67,0.67,0.67
163.24,7.13,6.51,7.13,6.51,-6.51,-6.29,-5.80,0.62,0.62,0.62
164.88,7.08,6.52,7.08,6.52,-6.52,-6.32,-5.78,0.57,0.57,0.57
166.53,7.04,6.53,7.04,6.53,-6.53,-6.34,-5.76,0.52,0.52,0.52
168.19,7.00,6.53,7.00,6.53,-6.53,-6.37,-5.74,0.47,0.47,0.47
169.87,6.95,6.54,6.95,6.54,-6.54,-6.40,-5.73,0.42,0.42,0.42
171.57,6.91,6.54,6.91,6.54,-6.54,-6.43,-5.73,0.37,0.37,0.37
173.29,6.86,6.55,6.86,6.55,-6.55,-6.46,-5.72,0.32,0.32,0.32
175.02,6.82,6.55,6.82,6.55,-6.55,-6.49,-5.73,0.27,0.27,0.27
176.77,6.77,6.55,6.77,6.55,-6.55,-6.51,-5.73,0.22,0.22,0.22
178.54,6.72,6.55,6.72,6.55,-6.55,-6.53,-5.75,0.17,0.17,0.17
180.32,6.67,6.55,6.67,6.55,-6.55,-6.55,-5.76,0.12,0.12,0.12
182.13,6.62,6.55,6.62,6.55,-6.55,-6.57,-5.78,0.07,0.07,0.07
183.95,6.56,6.54,6.56,6.54,-6.54,-6.58,-5.80,0.02,0.02,0.02
185.79,6.51,6.54,6.51,6.54,-6.54,-6.59,-5.83,-0.03,-0.03,-0.03
187.65,6.45,6.53,6.45,6.53,-6.53,-6.60,-5.86,-0.07,-0.07,-0.07
189.52,6.40,6.52,6.40,6.52,-6.52,-6.61,-5.90,-0.12,-0.12,-0.12
191.42,6.34,6.50,6.34,6.51,-6.51,-6.61,-5.94,-0.17,-0.17,-0.17
193.33,6.28,6.49,6.28,6.49,-6.49,-6.61,-5.99,-0.21,-0.22,-0.21
195.27,6.22,6.48,6.22,6.48,-6.48,-6.60,-6.03,-0.26,-0.26,-0.26
197.22,6.16,6.46,6.16,6.46,-6.46,-6.60,-6.08,-0.31,-0.31,-0.31
199.19,6.09,6.45,6.09,6.45,-6.44,-6.59,-6.14,-0.35,-0.35,-0.35
201.18,6.03,6.43,6.03,6.43,-6.43,-6.57,-6.20,-0.40,-0.40,-0.40
203.19,5.97,6.41,5.97,6.41,-6.41,-6.56,-6.25,-0.44,-0.44,-0.44
205.23,5.91,6.39,5.91,6.39,-6.39,-6.54,-6.32,-0.48,-0.48,-0.48
207.28,5.85,6.37,5.85,6.37,-6.37,-6.52,-6.38,-0.52,-0.52,-0.52
209.35,5.79,6.35,5.79,6.35,-6.35,-6.50,-6.44,-0.56,-0.56,-0.56
211.44,5.74,6.33,5.74,6.33,-6.34,-6.48,-6.51,-0.60,-0.60,-0.60
213.56,5.68,6.32,5.68,6.32,-6.32,-6.45,-6.57,-0.64,-0.64,-0.64
215.69,5.64,6.31,5.64,6.31,-6.31,-6.43,-6.64,-0.68,-0.68,-0.67
217.85,5.59,6.30,5.59,6.30,-6.31,-6.40,-6.70,-0.71,-0.71,-0.71
220.03,5.55,6.30,5.55,6.30,-6.30,-6.38,-6.77,-0.75,-0.75,-0.75
222.23,5.52,6.31,5.52,6.31,-6.31,-6.35,-6.82,-0.78,-0.79,-0.78
224.45,5.49,6.31,5.49,6.31,-6.31,-6.33,-6.88,-0.82,-0.82,-0.82
226.70,5.47,6.32,5.47,6.32,-6.32,-6.30,-6.93,-0.85,-0.85,-0.85
228.96,5.45,6.33,5.44,6.33,-6.33,-6.28,-6.99,-0.88,-0.89,-0.88
231.25,5.43,6.34,5.43,6.34,-6.34,-6.26,-7.03,-0.92,-0.92,-0.92
233.57,5.41,6.35,5.41,6.35,-6.35,-6.24,-7.07,-0.95,-0.95,-0.95
235.90,5.39,6.37,5.39,6.37,-6.37,-6.22,-7.10,-0.97,-0.97,-0.97
238.26,5.37,6.38,5.37,6.38,-6.38,-6.20,-7.12,-1.00,-1.00,-1.00
240.64,5.36,6.39,5.36,6.39,-6.38,-6.18,-7.14,-1.03,-1.03,-1.03
243.05,5.34,6.39,5.34,6.39,-6.39,-6.16,-7.15,-1.05,-1.05,-1.06
245.48,5.31,6.39,5.31,6.39,-6.39,-6.14,-7.15,-1.08,-1.08,-1.08
247.93,5.29,6.39,5.29,6.39,-6.39,-6.13,-7.14,-1.10,-1.10,-1.11
250.41,5.26,6.39,5.26,6.39,-6.39,-6.11,-7.12,-1.13,-1.13,-1.13
252.92,5.23,6.38,5.23,6.38,-6.38,-6.10,-7.10,-1.15,-1.15,-1.15
255.45,5.19,6.36,5.19,6.36,-6.36,-6.08,-7.06,-1.17,-1.17,-1.17
258.00,5.15,6.35,5.15,6.34,-6.34,-6.07,-7.02,-1.19,-1.19,-1.19
260.58,5.11,6.32,5.11,6.32,-6.32,-6.06,-6.96,-1.21,-1.21,-1.21
263.19,5.07,6.30,5.07,6.30,-6.30,-6.05,-6.90,-1.23,-1.23,-1.23
265.82,5.02,6.27,5.02,6.27,-6.27,-6.03,-6.83,-1.24,-1.24,-1.25
268.48,4.97,6.24,4.97,6.24,-6.23,-6.02,-6.76,-1.26,-1.26,-1.26
271.16,4.92,6.20,4.92,6.20,-6.20,-6.01,-6.67,-1.28,-1.28,-1.28
273.87,4.87,6.16,4.87,6.16,-6.16,-5.99,-6.58,-1.29,-1.29,-1.29
276.61,4.82,6.12,4.82,6.12,-6.12,-5.98,-6.49,-1.30,-1.30,-1.30
279.38,4.76,6.08,4.76,6.08,-6.08,-5.96,-6.39,-1.32,-1.32,-1.31
282.17,4.71,6.03,4.71,6.03,-6.03,-5.95,-6.29,-1.33,-1.33,-1.32
284.99,4.65,5.99,4.65,5.99,-5.99,-5.93,-6.18,-1.34,-1.34,-1.34
287.84,4.59,5.94,4.59,5.94,-5.94,-5.91,-6.07,-1.34,-1.34,-1.35
290.72,4.54,5.90,4.54,5.89,-5.89,-5.89,-5.96,-1.35,-1.35,-1.36
293.63,4.48,5.84,4.48,5.84,-5.83,-5.86,-5.85,-1.36,-1.36,-1.36
296.57,4.42,5.78,4.42,5.78,-5.78,-5.84,-5.74,-1.36,-1.36,-1.36
299.53,4.36,5.72,4.36,5.72,-5.73,-5.81,-5.63,-1.37,-1.37,-1.36
302.53,4.30,5.67,4.30,5.67,-5.68,-5.78,-5.52,-1.37,-1.37,-1.37
305.55,4.24,5.62,4.24,5.62,-5.62,-5.74,-5.40,-1.38,-1.38,-1.37
308.61,4.18,5.57,4.18,5.57,-5.57,-5.71,-5.29,-1.39,-1.39,-1.39
311.69,4.12,5.52,4.12,5.52,-5.52,-5.67,-5.18,-1.40,-1.40,-1.40
314.81,4.06,5.47,4.06,5.47,-5.47,-5.62,-5.07,-1.41,-1.41,-1.41
317.96,4.00,5.42,4.01,5.42,-5.42,-5.58,-4.97,-1.41,-1.41,-1.41
321.14,3.95,5.37,3.95,5.37,-5.36,-5.53,-4.86,-1.42,-1.42,-1.42
324.35,3.89,5.31,3.89,5.31,-5.31,-5.48,-4.76,-1.42,-1.42,-1.42
327.59,3.83,5.25,3.83,5.25,-5.25,-5.43,-4.66,-1.42,-1.42,-1.42
330.87,3.77,5.19,3.77,5.19,-5.19,-5.37,-4.57,-1.42,-1.42,-1.42
334.18,3.71,5.12,3.71,5.12,-5.12,-5.31,-4.47,-1.41,-1.41,-1.42
337.52,3.65,5.06,3.65,5.05,-5.05,-5.25,-4.38,-1.40,-1.40,-1.41
340.90,3.59,4.98,3.59,4.98,-4.98,-5.18,-4.30,-1.40,-1.40,-1.40
344.30,3.53,4.91,3.53,4.91,-4.92,-5.11,-4.21,-1.39,-1.39,-1.38
347.75,3.47,4.84,3.47,4.84,-4.85,-5.04,-4.13,-1.38,-1.38,-1.37
351.23,3.41,4.78,3.41,4.78,-4.78,-4.97,-4.05,-1.37,-1.37,-1.37
354.74,3.35,4.72,3.35,4.72,-4.72,-4.89,-3.97,-1.37,-1.37,-1.36
358.28,3.29,4.66,3.29,4.66,-4.66,-4.82,-3.90,-1.36,-1.36,-1.36
361.87,3.23,4.60,3.23,4.60,-4.60,-4.74,-3.83,-1.36,-1.36,-1.36
365.49,3.18,4.54,3.18,4.54,-4.53,-4.66,-3.77,-1.36,-1.36,-1.36
369.14,3.12,4.48,3.12,4.48,-4.47,-4.58,-3.70,-1.35,-1.35,-1.36
372.83,3.06,4.41,3.06,4.41,-4.41,-4.49,-3.64,-1.35,-1.35,-1.36
376.56,3.00,4.35,3.00,4.34,-4.34,-4.41,-3.58,-1.34,-1.34,-1.35
380.33,2.94,4.27,2.94,4.27,-4.28,-4.32,-3.53,-1.34,-1.34,-1.33
384.13,2.88,4.20,2.88,4.20,-4.21,-4.24,-3.48,-1.33,-1.33,-1.32
387.97,2.82,4.13,2.82,4.14,-4.14,-4.15,-3.43,-1.32,-1.32,-1.31
391.85,2.76,4.07,2.76,4.07,-4.07,-4.06,-3.38,-1.31,-1.31,-1.31
395.77,2.70,4.01,2.70,4.00,-4.00,-3.98,-3.33,-1.30,-1.30,-1.30
399.73,2.64,3.94,2.64,3.94,-3.93,-3.89,-3.29,-1.29,-1.29,-1.29
403.72,2.59,3.87,2.59,3.87,-3.86,-3.80,-3.25,-1.28,-1.28,-1.28
407.76,2.53,3.79,2.53,3.79,-3.79,-3.71,-3.21,-1.27,-1.27,-1.26
411.84,2.47,3.72,2.47,3.72,-3.72,-3.62,-3.17,-1.26,-1.26,-1.25
415.96,2.41,3.65,2.41,3.65,-3.65,-3.54,-3.13,-1.25,-1.25,-1.24
420.12,2.35,3.58,2.35,3.58,-3.58,-3.45,-3.10,-1.23,-1.23,-1.23
424.32,2.29,3.52,2.29,3.52,-3.52,-3.36,-3.07,-1.22,-1.22,-1.22
428.56,2.23,3.45,2.23,3.45,-3.45,-3.28,-3.03,-1.21,-1.21,-1.21
432.85,2.18,3.38,2.18,3.38,-3.38,-3.19,-3.00,-1.20,-1.20,-1.20
437.18,2.12,3.31,2.12,3.31,-3.31,-3.11,-2.97,-1.19,-1.19,-1.19
441.55,2.06,3.24,2.06,3.24,-3.23,-3.02,-2.94,-1.17,-1.17,-1.18
445.96,2.00,3.16,2.00,3.16,-3.16,-2.94,-2.91,-1.16,-1.16,-1.16
450.42,1.95,3.09,1.95,3.09,-3.09,-2.85,-2.87,-1.14,-1.14,-1.14
454.93,1.89,3.01,1.89,3.01,-3.01,-2.77,-2.84,-1.13,-1.13,-1.12
459.48,1.83,2.94,1.83,2.94,-2.94,-2.69,-2.81,-1.11,-1.11,-1.11
464.07,1.77,2.87,1.77,2.87,-2.87,-2.61,-2.78,-1.09,-1.09,-1.09
468.71,1.72,2.79,1.72,2.79,-2.80,-2.53,-2.74,-1.08,-1.08,-1.08
473.40,1.66,2.72,1.66,2.72,-2.72,-2.45,-2.71,-1.06,-1.06,-1.06
478.13,1.60,2.65,1.60,2.65,-2.65,-2.38,-2.67,-1.05,-1.05,-1.05
482.91,1.55,2.58,1.55,2.58,-2.58,-2.30,-2.63,-1.03,-1.03,-1.03
487.74,1.49,2.50,1.49,2.50,-2.50,-2.22,-2.59,-1.01,-1.01,-1.01
492.62,1.43,2.43,1.43,2.43,-2.43,-2.15,-2.55,-1.00,-1.00,-1.00
497.55,1.38,2.36,1.38,2.36,-2.36,-2.08,-2.50,-0.98,-0.98,-0.98
502.52,1.32,2.28,1.32,2.28,-2.28,-2.00,-2.46,-0.96,-0.96,-0.96
507.55,1.27,2.21,1.27,2.21,-2.21,-1.93,-2.41,-0.94,-0.94,-0.94
512.62,1.21,2.13,1.21,2.14,-2.14,-1.86,-2.36,-0.92,-0.92,-0.92
517.75,1.16,2.06,1.16,2.06,-2.06,-1.79,-2.31,-0.90,-0.90,-0.90
