frequency,raw,error,smoothed,error_smoothed,equalization,parametric_eq,fixed_band_eq,equalized_raw,equalized_smoothed,target
20.00,8.04,-1.10,8.04,-1.10,1.12,0.04,0.15,9.16,9.16,9.14
20.20,8.07,-1.07,8.07,-1.07,1.08,0.04,0.15,9.14,9.14,9.14
20.40,8.10,-1.04,8.10,-1.04,1.03,0.04,0.16,9.13,9.13,9.14
20.61,8.14,-1.00,8.14,-0.99,0.98,0.04,0.16,9.12,9.12,9.14
20.81,8.19,-0.94,8.19,-0.94,0.93,0.05,0.17,9.12,9.12,9.13
21.02,8.25,-0.88,8.25,-0.89,0.87,0.05,0.17,9.12,9.12,9.13
21.23,8.31,-0.82,8.31,-0.82,0.81,0.05,0.18,9.12,9.12,9.13
21.44,8.38,-0.75,8.38,-0.75,0.74,0.06,0.19,9.12,9.12,9.12
21.66,8.45,-0.67,8.45,-0.67,0.67,0.06,0.19,9.12,9.12,9.12
21.87,8.52,-0.59,8.52,-0.59,0.59,0.07,0.20,9.11,9.11,9.11
22.09,8.60,-0.51,8.60,-0.51,0.51,0.07,0.20,9.11,9.11,9.11
22.31,8.67,-0.43,8.67,-0.43,0.43,0.08,0.21,9.10,9.10,9.10
22.54,8.74,-0.35,8.74,-0.35,0.36,0.08,0.22,9.09,9.09,9.09
22.76,8.80,-0.28,8.80,-0.28,0.28,0.09,0.22,9.09,9.09,9.08
22.99,8.86,-0.22,8.86,-0.22,0.22,0.10,0.23,9.08,9.08,9.08
23.22,8.91,-0.16,8.91,-0.16,0.16,0.11,0.24,9.07,9.07,9.07
23.45,8.95,-0.12,8.95,-0.12,0.12,0.12,0.24,9.06,9.06,9.06
23.69,8.97,-0.08,8.97,-0.08,0.08,0.13,0.25,9.06,9.06,9.05
23.92,8.99,-0.06,8.99,-0.06,0.06,0.14,0.26,9.05,9.05,9.05
24.16,9.00,-0.04,9.00,-0.04,0.05,0.16,0.27,9.05,9.05,9.04
24.40,8.99,-0.05,8.99,-0.05,0.06,0.17,0.27,9.04,9.04,9.03
24.65,8.96,-0.06,8.96,-0.06,0.07,0.19,0.28,9.04,9.03,9.03
24.89,8.93,-0.09,8.92,-0.09,0.10,0.21,0.29,9.02,9.02,9.02
25.14,8.88,-0.13,8.88,-0.13,0.13,0.23,0.30,9.00,9.00,9.00
25.39,8.82,-0.17,8.82,-0.17,0.17,0.26,0.30,8.99,8.99,8.99
25.65,8.76,-0.22,8.76,-0.22,0.21,0.29,0.31,8.97,8.97,8.98
25.91,8.71,-0.27,8.71,-0.27,0.26,0.32,0.32,8.96,8.96,8.97
26.16,8.65,-0.31,8.66,-0.31,0.30,0.36,0.33,8.96,8.96,8.96
26.43,8.61,-0.35,8.61,-0.35,0.35,0.40,0.33,8.96,8.96,8.95
26.69,8.56,-0.39,8.56,-0.39,0.40,0.45,0.34,8.95,8.95,8.94
26.96,8.50,-0.43,8.50,-0.43,0.44,0.50,0.35,8.95,8.95,8.94
27.23,8.45,-0.48,8.45,-0.48,0.49,0.54,0.36,8.94,8.93,8.92
27.50,8.39,-0.53,8.39,-0.53,0.53,0.59,0.36,8.91,8.91,8.91
27.77,8.33,-0.57,8.33,-0.57,0.56,0.63,0.37,8.89,8.89,8.90
28.05,8.28,-0.61,8.28,-0.60,0.59,0.66,0.37,8.87,8.87,8.89
28.33,8.25,-0.62,8.25,-0.62,0.61,0.67,0.38,8.85,8.85,8.87
28.62,8.23,-0.63,8.23,-0.63,0.61,0.68,0.39,8.84,8.84,8.85
28.90,8.22,-0.61,8.22,-0.61,0.61,0.67,0.39,8.84,8.84,8.84
29.19,8.23,-0.59,8.23,-0.60,0.60,0.65,0.39,8.83,8.83,8.82
29.48,8.24,-0.57,8.24,-0.57,0.58,0.61,0.40,8.82,8.82,8.81
29.78,8.24,-0.55,8.24,-0.55,0.56,0.57,0.40,8.80,8.80,8.79
30.08,8.25,-0.53,8.25,-0.53,0.53,0.52,0.40,8.78,8.78,8.78
30.38,8.26,-0.50,8.26,-0.50,0.49,0.47,0.40,8.75,8.75,8.76
30.68,8.27,-0.47,8.28,-0.47,0.45,0.42,0.40,8.73,8.73,8.75
30.99,8.30,-0.43,8.30,-0.43,0.41,0.38,0.40,8.71,8.71,8.73
31.30,8.33,-0.38,8.33,-0.38,0.37,0.34,0.40,8.71,8.71,8.71
31.61,8.36,-0.33,8.36,-0.33,0.34,0.30,0.40,8.70,8.70,8.69
31.93,8.39,-0.28,8.38,-0.29,0.30,0.27,0.40,8.69,8.69,8.67
32.24,8.39,-0.26,8.39,-0.26,0.28,0.24,0.40,8.67,8.67,8.65
32.57,8.39,-0.24,8.39,-0.24,0.26,0.21,0.39,8.65,8.64,8.63
32.89,8.37,-0.24,8.37,-0.24,0.24,0.19,0.39,8.61,8.61,8.60
33.22,8.34,-0.24,8.34,-0.24,0.23,0.17,0.38,8.57,8.57,8.58
33.55,8.31,-0.24,8.31,-0.24,0.22,0.15,0.38,8.53,8.53,8.55
33.89,8.29,-0.24,8.29,-0.24,0.21,0.14,0.37,8.50,8.51,8.53
34.23,8.28,-0.23,8.28,-0.23,0.21,0.12,0.36,8.49,8.49,8.51
34.57,8.27,-0.22,8.27,-0.21,0.22,0.11,0.36,8.49,8.49,8.48
34.92,8.26,-0.21,8.25,-0.21,0.23,0.10,0.35,8.49,8.49,8.46
35.27,8.23,-0.21,8.23,-0.22,0.25,0.09,0.34,8.48,8.48,8.44
35.62,8.18,-0.24,8.18,-0.24,0.28,0.08,0.33,8.45,8.45,8.42
35.97,8.11,-0.28,8.11,-0.29,0.30,0.07,0.32,8.41,8.41,8.39
36.33,8.03,-0.34,8.03,-0.34,0.33,0.06,0.31,8.36,8.36,8.37
36.70,7.96,-0.38,7.96,-0.38,0.35,0.05,0.30,8.31,8.31,8.34
37.06,7.90,-0.41,7.91,-0.40,0.36,0.05,0.30,8.26,8.27,8.31
37.43,7.88,-0.40,7.88,-0.40,0.36,0.04,0.29,8.23,8.24,8.28
37.81,7.89,-0.37,7.89,-0.37,0.34,0.04,0.28,8.23,8.23,8.25
38.19,7.90,-0.32,7.90,-0.32,0.32,0.03,0.27,8.22,8.22,8.22
38.57,7.93,-0.26,7.93,-0.27,0.29,0.03,0.26,8.22,8.22,8.20
38.95,7.94,-0.23,7.94,-0.23,0.26,0.02,0.24,8.20,8.20,8.17
39.34,7.94,-0.20,7.94,-0.20,0.23,0.02,0.23,8.18,8.17,8.14
39.74,7.93,-0.19,7.92,-0.19,0.21,0.01,0.22,8.14,8.14,8.11
40.14,7.89,-0.19,7.89,-0.19,0.20,0.01,0.21,8.10,8.10,8.09
40.54,7.85,-0.21,7.86,-0.20,0.20,0.01,0.20,8.05,8.05,8.06
40.94,7.82,-0.21,7.82,-0.21,0.19,0.00,0.19,8.01,8.01,8.03
41.35,7.79,-0.21,7.79,-0.21,0.19,0.00,0.18,7.98,7.98,8.00
41.76,7.77,-0.20,7.78,-0.20,0.18,-0.00,0.17,7.95,7.96,7.98
42.18,7.77,-0.18,7.77,-0.18,0.17,-0.00,0.16,7.94,7.94,7.95
42.60,7.77,-0.15,7.77,-0.15,0.15,-0.01,0.15,7.92,7.92,7.92
43.03,7.77,-0.13,7.77,-0.13,0.14,-0.01,0.14,7.91,7.91,7.90
43.46,7.76,-0.11,7.76,-0.11,0.13,-0.01,0.13,7.89,7.89,7.87
43.90,7.73,-0.11,7.73,-0.11,0.13,-0.02,0.12,7.86,7.86,7.84
44.33,7.70,-0.11,7.69,-0.12,0.13,-0.02,0.12,7.83,7.83,7.81
44.78,7.65,-0.13,7.65,-0.13,0.14,-0.02,0.11,7.79,7.79,7.78
45.23,7.59,-0.15,7.59,-0.15,0.16,-0.02,0.10,7.75,7.74,7.74
45.68,7.53,-0.18,7.53,-0.18,0.17,-0.02,0.09,7.70,7.70,7.70
46.13,7.47,-0.20,7.47,-0.20,0.18,-0.03,0.08,7.65,7.66,7.67
46.60,7.42,-0.21,7.43,-0.21,0.19,-0.03,0.07,7.61,7.61,7.63
47.06,7.39,-0.21,7.39,-0.21,0.19,-0.03,0.06,7.58,7.58,7.60
47.53,7.37,-0.19,7.37,-0.19,0.18,-0.03,0.05,7.55,7.55,7.56
48.01,7.36,-0.16,7.36,-0.16,0.16,-0.04,0.04,7.52,7.52,7.53
48.49,7.36,-0.13,7.36,-0.13,0.14,-0.04,0.04,7.50,7.50,7.49
48.97,7.36,-0.10,7.36,-0.10,0.11,-0.04,0.03,7.47,7.47,7.46
49.46,7.35,-0.08,7.35,-0.08,0.09,-0.04,0.02,7.44,7.43,7.42
49.96,7.33,-0.06,7.33,-0.06,0.07,-0.04,0.01,7.40,7.40,7.39
50.46,7.30,-0.04,7.30,-0.04,0.05,-0.05,0.00,7.36,7.36,7.35
50.96,7.27,-0.04,7.27,-0.04,0.04,-0.05,-0.01,7.31,7.31,7.31
51.47,7.24,-0.03,7.24,-0.03,0.03,-0.05,-0.01,7.27,7.27,7.27
51.99,7.20,-0.03,7.20,-0.03,0.03,-0.05,-0.02,7.23,7.23,7.24
52.51,7.17,-0.03,7.17,-0.03,0.03,-0.05,-0.03,7.20,7.20,7.20
53.03,7.13,-0.03,7.13,-0.03,0.03,-0.06,-0.04,7.16,7.16,7.16
53.56,7.10,-0.03,7.10,-0.03,0.03,-0.06,-0.04,7.13,7.13,7.13
54.10,7.06,-0.03,7.06,-0.03,0.03,-0.06,-0.05,7.09,7.09,7.09
54.64,7.02,-0.03,7.02,-0.03,0.03,-0.06,-0.06,7.05,7.05,7.06
55.18,6.98,-0.03,6.98,-0.03,0.03,-0.06,-0.07,7.01,7.01,7.02
55.74,6.95,-0.03,6.95,-0.03,0.02,-0.07,-0.07,6.97,6.97,6.98
56.29,6.92,-0.02,6.92,-0.02,0.01,-0.07,-0.08,6.93,6.93,6.94
56.86,6.89,-0.01,6.89,-0.01,0.00,-0.07,-0.09,6.89,6.89,6.90
57.42,6.86,0.01,6.86,0.01,-0.01,-0.07,-0.09,6.85,6.85,6.85
58.00,6.84,0.03,6.84,0.03,-0.02,-0.08,-0.10,6.82,6.81,6.81
58.58,6.81,0.04,6.81,0.04,-0.03,-0.08,-0.11,6.77,6.77,6.77
59.16,6.77,0.05,6.77,0.05,-0.04,-0.08,-0.11,6.73,6.73,6.73
59.76,6.74,0.06,6.74,0.06,-0.05,-0.08,-0.12,6.69,6.69,6.68
60.35,6.70,0.06,6.71,0.06,-0.06,-0.09,-0.12,6.65,6.65,6.64
60.96,6.67,0.07,6.67,0.06,-0.06,-0.09,-0.13,6.61,6.61,6.60
61.57,6.63,0.07,6.63,0.07,-0.07,-0.09,-0.13,6.57,6.57,6.57
62.18,6.59,0.07,6.59,0.07,-0.07,-0.09,-0.14,6.53,6.53,6.53
62.80,6.55,0.07,6.55,0.07,-0.07,-0.10,-0.14,6.48,6.48,6.49
63.43,6.51,0.07,6.51,0.07,-0.07,-0.10,-0.15,6.44,6.44,6.44
64.07,6.47,0.07,6.47,0.07,-0.08,-0.10,-0.15,6.40,6.40,6.40
64.71,6.43,0.08,6.43,0.08,-0.08,-0.10,-0.16,6.35,6.35,6.35
65.35,6.40,0.09,6.40,0.09,-0.09,-0.11,-0.16,6.31,6.31,6.31
66.01,6.36,0.10,6.36,0.10,-0.10,-0.11,-0.17,6.26,6.26,6.26
66.67,6.32,0.11,6.32,0.11,-0.11,-0.11,-0.17,6.21,6.21,6.21
67.33,6.28,0.12,6.28,0.12,-0.12,-0.12,-0.17,6.16,6.16,6.16
68.01,6.25,0.13,6.25,0.13,-0.13,-0.12,-0.18,6.12,6.12,6.11
68.69,6.21,0.14,6.21,0.14,-0.14,-0.12,-0.18,6.07,6.07,6.07
69.37,6.17,0.15,6.17,0.15,-0.15,-0.13,-0.19,6.02,6.02,6.02
70.07,6.13,0.16,6.13,0.16,-0.16,-0.13,-0.19,5.96,5.96,5.97
70.77,6.09,0.17,6.09,0.17,-0.17,-0.14,-0.19,5.92,5.92,5.92
71.48,6.05,0.18,6.05,0.18,-0.18,-0.14,-0.20,5.87,5.87,5.87
72.19,6.01,0.19,6.01,0.19,-0.19,-0.14,-0.20,5.82,5.82,5.82
72.91,5.97,0.20,5.97,0.20,-0.19,-0.15,-0.21,5.78,5.78,5.78
73.64,5.93,0.20,5.93,0.20,-0.20,-0.15,-0.21,5.73,5.73,5.73
74.38,5.89,0.21,5.89,0.21,-0.20,-0.16,-0.21,5.69,5.69,5.69
75.12,5.85,0.21,5.85,0.21,-0.21,-0.16,-0.22,5.64,5.64,5.64
75.87,5.80,0.21,5.80,0.21,-0.21,-0.17,-0.22,5.59,5.59,5.59
76.63,5.76,0.21,5.76,0.21,-0.21,-0.17,-0.22,5.55,5.55,5.55
77.40,5.72,0.21,5.72,0.21,-0.22,-0.18,-0.23,5.50,5.50,5.50
78.17,5.67,0.22,5.67,0.22,-0.22,-0.18,-0.23,5.45,5.45,5.46
78.95,5.63,0.22,5.63,0.22,-0.22,-0.19,-0.24,5.41,5.41,5.41
79.74,5.59,0.23,5.59,0.23,-0.23,-0.19,-0.24,5.36,5.36,5.36
80.54,5.55,0.24,5.55,0.24,-0.24,-0.20,-0.25,5.30,5.30,5.30
81.35,5.50,0.25,5.50,0.25,-0.25,-0.21,-0.25,5.25,5.25,5.25
82.16,5.46,0.26,5.46,0.26,-0.27,-0.21,-0.26,5.19,5.19,5.20
82.98,5.42,0.28,5.42,0.28,-0.28,-0.22,-0.26,5.13,5.13,5.14
83.81,5.38,0.30,5.38,0.30,-0.30,-0.23,-0.27,5.07,5.07,5.08
84.65,5.33,0.32,5.33,0.32,-0.32,-0.23,-0.27,5.01,5.01,5.01
85.50,5.29,0.34,5.29,0.34,-0.34,-0.24,-0.28,4.95,4.95,4.95
86.35,5.26,0.36,5.26,0.37,-0.36,-0.25,-0.29,4.89,4.90,4.89
87.22,5.23,0.39,5.23,0.39,-0.38,-0.26,-0.29,4.85,4.85,4.84
88.09,5.20,0.41,5.20,0.40,-0.40,-0.27,-0.30,4.80,4.80,4.79
88.97,5.16,0.42,5.16,0.41,-0.41,-0.28,-0.31,4.76,4.76,4.75
89.86,5.13,0.42,5.12,0.42,-0.41,-0.29,-0.31,4.71,4.71,4.71
90.76,5.08,0.42,5.08,0.42,-0.42,-0.30,-0.32,4.66,4.66,4.66
91.66,5.03,0.42,5.03,0.42,-0.42,-0.31,-0.33,4.60,4.61,4.61
92.58,4.97,0.42,4.97,0.42,-0.42,-0.32,-0.34,4.55,4.55,4.55
93.51,4.92,0.43,4.92,0.43,-0.43,-0.33,-0.34,4.49,4.49,4.50
94.44,4.87,0.43,4.87,0.43,-0.43,-0.34,-0.35,4.44,4.44,4.44
95.39,4.83,0.44,4.83,0.44,-0.44,-0.35,-0.36,4.38,4.38,4.39
96.34,4.78,0.44,4.78,0.45,-0.45,-0.36,-0.37,4.33,4.33,4.34
97.30,4.75,0.46,4.75,0.46,-0.46,-0.37,-0.38,4.28,4.28,4.29
98.28,4.71,0.48,4.71,0.48,-0.47,-0.38,-0.39,4.23,4.23,4.23
99.26,4.67,0.49,4.67,0.49,-0.48,-0.40,-0.40,4.18,4.18,4.18
100.25,4.62,0.50,4.62,0.50,-0.49,-0.41,-0.41,4.13,4.13,4.12
101.25,4.57,0.51,4.57,0.51,-0.50,-0.42,-0.42,4.07,4.07,4.06
102.27,4.51,0.51,4.51,0.51,-0.51,-0.43,-0.43,4.01,4.01,4.00
103.29,4.46,0.51,4.46,0.51,-0.51,-0.44,-0.44,3.94,3.94,3.95
104.32,4.40,0.51,4.40,0.51,-0.52,-0.46,-0.45,3.88,3.88,3.89
105.37,4.35,0.52,4.35,0.52,-0.52,-0.47,-0.45,3.82,3.82,3.83
106.42,4.29,0.53,4.29,0.52,-0.53,-0.48,-0.46,3.77,3.77,3.77
107.48,4.24,0.53,4.24,0.53,-0.53,-0.49,-0.47,3.71,3.71,3.71
108.56,4.20,0.54,4.20,0.54,-0.53,-0.50,-0.48,3.66,3.66,3.66
109.64,4.15,0.54,4.15,0.54,-0.54,-0.51,-0.49,3.62,3.62,3.61
110.74,4.11,0.55,4.11,0.55,-0.54,-0.51,-0.50,3.57,3.57,3.56
111.85,4.06,0.55,4.06,0.55,-0.55,-0.52,-0.51,3.51,3.51,3.51
112.97,4.01,0.55,4.01,0.55,-0.56,-0.53,-0.52,3.46,3.46,3.46
114.10,3.96,0.55,3.96,0.55,-0.56,-0.53,-0.53,3.40,3.40,3.41
115.24,3.91,0.56,3.91,0.56,-0.57,-0.54,-0.54,3.34,3.34,3.35
116.39,3.86,0.57,3.86,0.58,-0.58,-0.54,-0.55,3.28,3.28,3.29
117.55,3.81,0.60,3.81,0.60,-0.59,-0.54,-0.56,3.22,3.22,3.21
118.73,3.77,0.62,3.77,0.62,-0.61,-0.55,-0.57,3.16,3.16,3.15
119.92,3.72,0.63,3.72,0.62,-0.62,-0.55,-0.57,3.11,3.11,3.09
121.12,3.68,0.62,3.68,0.63,-0.63,-0.55,-0.58,3.05,3.05,3.05
122.33,3.63,0.63,3.63,0.63,-0.63,-0.55,-0.59,3.00,3.00,3.00
123.55,3.58,0.64,3.58,0.63,-0.64,-0.55,-0.59,2.95,2.95,2.95
124.79,3.53,0.64,3.53,0.64,-0.64,-0.55,-0.60,2.90,2.90,2.89
126.03,3.48,0.64,3.48,0.64,-0.64,-0.56,-0.60,2.85,2.85,2.85
127.29,3.43,0.63,3.43,0.63,-0.63,-0.56,-0.61,2.80,2.80,2.80
128.57,3.38,0.63,3.38,0.63,-0.63,-0.56,-0.61,2.75,2.75,2.76
129.85,3.33,0.63,3.33,0.63,-0.63,-0.56,-0.62,2.71,2.71,2.71
131.15,3.28,0.63,3.28,0.63,-0.62,-0.56,-0.62,2.66,2.66,2.66
132.46,3.23,0.63,3.23,0.63,-0.62,-0.56,-0.63,2.61,2.61,2.61
133.79,3.18,0.62,3.18,0.62,-0.63,-0.56,-0.63,2.56,2.56,2.56
135.12,3.13,0.62,3.13,0.62,-0.63,-0.57,-0.63,2.50,2.50,2.51
136.48,3.08,0.62,3.08,0.63,-0.64,-0.57,-0.64,2.44,2.44,2.46
137.84,3.03,0.64,3.03,0.64,-0.65,-0.57,-0.64,2.38,2.38,2.39
139.22,2.98,0.66,2.98,0.66,-0.66,-0.58,-0.64,2.32,2.32,2.32
140.61,2.94,0.68,2.94,0.68,-0.68,-0.58,-0.65,2.26,2.26,2.25
142.02,2.89,0.70,2.89,0.70,-0.69,-0.59,-0.65,2.20,2.20,2.19
143.44,2.84,0.70,2.84,0.70,-0.69,-0.59,-0.65,2.15,2.15,2.14
144.87,2.79,0.70,2.79,0.70,-0.70,-0.60,-0.65,2.09,2.09,2.09
146.32,2.74,0.70,2.74,0.70,-0.70,-0.61,-0.66,2.04,2.04,2.04
147.78,2.69,0.68,2.69,0.68,-0.69,-0.61,-0.66,2.00,2.00,2.00
149.26,2.63,0.67,2.63,0.67,-0.68,-0.62,-0.67,1.95,1.95,1.96
150.75,2.57,0.66,2.57,0.66,-0.66,-0.63,-0.67,1.91,1.91,1.91
152.26,2.51,0.65,2.51,0.65,-0.64,-0.64,-0.67,1.87,1.87,1.87
153.78,2.45,0.63,2.45,0.63,-0.62,-0.65,-0.68,1.83,1.83,1.82
155.32,2.39,0.61,2.39,0.60,-0.60,-0.66,-0.68,1.79,1.79,1.79
156.88,2.33,0.58,2.33,0.58,-0.57,-0.67,-0.69,1.75,1.75,1.75
158.44,2.26,0.55,2.26,0.55,-0.54,-0.68,-0.69,1.72,1.72,1.71
160.03,2.20,0.52,2.20,0.52,-0.51,-0.69,-0.70,1.69,1.68,1.68
161.63,2.13,0.49,2.13,0.49,-0.48,-0.70,-0.71,1.65,1.65,1.64
163.24,2.08,0.46,2.08,0.46,-0.45,-0.71,-0.71,1.62,1.62,1.62
164.88,2.03,0.43,2.03,0.43,-0.43,-0.72,-0.72,1.59,1.60,1.59
166.53,1.99,0.42,1.99,0.42,-0.42,-0.74,-0.73,1.57,1.56,1.57
168.19,1.96,0.42,1.96,0.42,-0.43,-0.75,-0.74,1.53,1.53,1.55
169.87,1.95,0.43,1.95,0.44,-0.46,-0.76,-0.75,1.49,1.49,1.52
171.57,1.95,0.48,1.95,0.48,-0.51,-0.78,-0.76,1.45,1.45,1.47
173.29,1.96,0.55,1.96,0.55,-0.57,-0.79,-0.77,1.39,1.39,1.41
175.02,1.98,0.63,1.98,0.64,-0.65,-0.80,-0.78,1.33,1.33,1.34
176.77,2.00,0.74,2.00,0.74,-0.74,-0.82,-0.79,1.26,1.26,1.26
178.54,2.02,0.84,2.02,0.84,-0.83,-0.83,-0.80,1.19,1.19,1.18
180.32,2.04,0.95,2.04,0.94,-0.92,-0.85,-0.82,1.12,1.12,1.09
182.13,2.05,1.03,2.05,1.03,-1.00,-0.86,-0.83,1.05,1.05,1.02
183.95,2.04,1.09,2.04,1.09,-1.06,-0.88,-0.85,0.98,0.98,0.95
185.79,2.01,1.13,2.01,1.13,-1.10,-0.89,-0.86,0.91,0.91,0.89
187.65,1.97,1.15,1.97,1.14,-1.13,-0.91,-0.88,0.84,0.84,0.83
189.52,1.92,1.15,1.92,1.15,-1.14,-0.93,-0.89,0.77,0.78,0.77
191.42,1.86,1.14,1.86,1.14,-1.14,-0.94,-0.91,0.71,0.71,0.72
193.33,1.80,1.13,1.79,1.13,-1.14,-0.96,-0.93,0.65,0.65,0.66
195.27,1.73,1.12,1.73,1.12,-1.14,-0.97,-0.94,0.60,0.60,0.61
197.22,1.67,1.11,1.67,1.12,-1.13,-0.99,-0.96,0.54,0.54,0.56
199.19,1.62,1.12,1.63,1.12,-1.14,-1.00,-0.98,0.49,0.49,0.50
201.18,1.59,1.13,1.59,1.13,-1.14,-1.02,-1.00,0.44,0.45,0.45
203.19,1.56,1.15,1.56,1.15,-1.15,-1.03,-1.02,0.40,0.40,0.40
205.23,1.53,1.17,1.53,1.17,-1.17,-1.05,-1.04,0.36,0.36,0.36
207.28,1.50,1.19,1.50,1.19,-1.18,-1.06,-1.05,0.32,0.32,0.31
209.35,1.47,1.20,1.47,1.20,-1.20,-1.08,-1.07,0.27,0.27,0.27
211.44,1.44,1.21,1.44,1.21,-1.21,-1.09,-1.09,0.23,0.23,0.23
213.56,1.40,1.22,1.40,1.22,-1.22,-1.11,-1.11,0.18,0.18,0.18
215.69,1.37,1.23,1.37,1.23,-1.23,-1.12,-1.13,0.14,0.14,0.14
217.85,1.33,1.23,1.33,1.23,-1.23,-1.13,-1.15,0.10,0.10,0.10
220.03,1.30,1.24,1.30,1.24,-1.24,-1.14,-1.16,0.06,0.06,0.06
222.23,1.26,1.24,1.26,1.24,-1.24,-1.15,-1.18,0.02,0.02,0.02
224.45,1.22,1.24,1.22,1.24,-1.25,-1.17,-1.20,-0.03,-0.03,-0.02
226.70,1.18,1.25,1.18,1.25,-1.25,-1.18,-1.21,-0.07,-0.07,-0.07
228.96,1.14,1.26,1.14,1.26,-1.25,-1.19,-1.23,-0.11,-0.11,-0.12
231.25,1.10,1.26,1.10,1.26,-1.26,-1.19,-1.24,-0.15,-0.15,-0.16
233.57,1.07,1.26,1.07,1.26,-1.26,-1.20,-1.25,-0.19,-0.19,-0.19
235.90,1.03,1.25,1.03,1.25,-1.26,-1.21,-1.26,-0.22,-0.22,-0.22
238.26,0.99,1.25,0.99,1.25,-1.25,-1.22,-1.27,-0.26,-0.26,-0.25
240.64,0.96,1.25,0.96,1.25,-1.25,-1.22,-1.28,-0.29,-0.29,-0.29
243.05,0.92,1.25,0.92,1.24,-1.24,-1.22,-1.28,-0.32,-0.32,-0.32
245.48,0.88,1.24,0.88,1.24,-1.24,-1.23,-1.29,-0.35,-0.35,-0.35
247.93,0.85,1.23,0.85,1.23,-1.23,-1.23,-1.29,-0.38,-0.38,-0.38
250.41,0.81,1.22,0.81,1.22,-1.22,-1.23,-1.29,-0.41,-0.41,-0.41
252.92,0.77,1.21,0.77,1.21,-1.22,-1.23,-1.29,-0.45,-0.45,-0.44
255.45,0.73,1.21,0.73,1.21,-1.21,-1.23,-1.28,-0.48,-0.48,-0.47
258.00,0.70,1.20,0.70,1.20,-1.20,-1.23,-1.28,-0.51,-0.51,-0.50
260.58,0.66,1.20,0.66,1.20,-1.20,-1.23,-1.27,-0.54,-0.54,-0.54
263.19,0.63,1.19,0.63,1.20,-1.19,-1.23,-1.27,-0.57,-0.57,-0.57
265.82,0.59,1.19,0.59,1.19,-1.19,-1.22,-1.26,-0.60,-0.60,-0.60
268.48,0.56,1.19,0.56,1.19,-1.19,-1.22,-1.25,-0.63,-0.63,-0.64
271.16,0.52,1.19,0.52,1.19,-1.19,-1.21,-1.23,-0.66,-0.66,-0.66
273.87,0.49,1.18,0.49,1.18,-1.19,-1.21,-1.22,-0.69,-0.69,-0.69
276.61,0.46,1.18,0.46,1.18,-1.18,-1.20,-1.21,-0.72,-0.72,-0.72
279.38,0.43,1.18,0.43,1.18,-1.18,-1.19,-1.19,-0.75,-0.75,-0.75
282.17,0.40,1.18,0.40,1.18,-1.18,-1.19,-1.17,-0.78,-0.78,-0.78
284.99,0.37,1.18,0.37,1.18,-1.17,-1.18,-1.16,-0.80,-0.80,-0.81
287.84,0.34,1.17,0.34,1.17,-1.17,-1.17,-1.14,-0.83,-0.83,-0.83
290.72,0.31,1.16,0.31,1.16,-1.16,-1.16,-1.12,-0.86,-0.86,-0.86
293.63,0.27,1.15,0.27,1.16,-1.16,-1.15,-1.10,-0.88,-0.88,-0.88
296.57,0.24,1.15,0.24,1.15,-1.15,-1.14,-1.08,-0.91,-0.91,-0.91
299.53,0.21,1.14,0.21,1.14,-1.14,-1.13,-1.06,-0.93,-0.93,-0.93
302.53,0.18,1.13,0.18,1.13,-1.13,-1.12,-1.05,-0.95,-0.95,-0.95
305.55,0.15,1.13,0.15,1.13,-1.13,-1.11,-1.03,-0.97,-0.97,-0.98
308.61,0.12,1.12,0.12,1.12,-1.12,-1.10,-1.01,-1.00,-1.00,-1.00
311.69,0.10,1.11,0.10,1.11,-1.11,-1.08,-0.99,-1.02,-1.02,-1.02
314.81,0.07,1.10,0.07,1.10,-1.10,-1.07,-0.97,-1.04,-1.04,-1.04
317.96,0.04,1.09,0.04,1.09,-1.09,-1.06,-0.95,-1.05,-1.05,-1.05
321.14,0.01,1.09,0.01,1.09,-1.08,-1.05,-0.93,-1.07,-1.07,-1.07
324.35,-0.02,1.07,-0.02,1.07,-1.07,-1.04,-0.92,-1.09,-1.09,-1.09
327.59,-0.04,1.06,-0.04,1.06,-1.06,-1.03,-0.90,-1.10,-1.10,-1.10
330.87,-0.07,1.05,-0.07,1.05,-1.05,-1.02,-0.88,-1.12,-1.12,-1.12
334.18,-0.10,1.03,-0.10,1.03,-1.03,-1.01,-0.87,-1.13,-1.13,-1.13
337.52,-0.13,1.02,-0.13,1.02,-1.02,-1.00,-0.85,-1.15,-1.15,-1.15
340.90,-0.15,1.01,-0.15,1.01,-1.01,-0.99,-0.84,-1.16,-1.16,-1.16
344.30,-0.18,1.00,-0.18,1.00,-1.00,-0.98,-0.82,-1.18,-1.18,-1.18
347.75,-0.21,0.99,-0.21,0.99,-0.99,-0.97,-0.81,-1.19,-1.19,-1.19
351.23,-0.23,0.98,-0.23,0.98,-0.98,-0.96,-0.80,-1.21,-1.21,-1.21
354.74,-0.25,0.97,-0.25,0.97,-0.97,-0.95,-0.78,-1.22,-1.22,-1.23
358.28,-0.28,0.96,-0.28,0.96,-0.96,-0.94,-0.77,-1.24,-1.24,-1.24
361.87,-0.30,0.95,-0.30,0.95,-0.95,-0.93,-0.76,-1.25,-1.25,-1.25
365.49,-0.32,0.94,-0.32,0.94,-0.94,-0.92,-0.75,-1.27,-1.27,-1.26
369.14,-0.35,0.93,-0.35,0.93,-0.93,-0.91,-0.74,-1.28,-1.28,-1.28
372.83,-0.37,0.92,-0.37,0.92,-0.92,-0.90,-0.73,-1.29,-1.29,-1.29
376.56,-0.39,0.91,-0.39,0.91,-0.91,-0.90,-0.72,-1.30,-1.30,-1.30
380.33,-0.41,0.90,-0.41,0.90,-0.90,-0.89,-0.71,-1.31,-1.31,-1.31
384.13,-0.43,0.90,-0.43,0.90,-0.90,-0.88,-0.71,-1.33,-1.33,-1.33
387.97,-0.45,0.89,-0.45,0.89,-0.89,-0.87,-0.70,-1.34,-1.34,-1.34
391.85,-0.47,0.88,-0.47,0.88,-0.88,-0.86,-0.69,-1.35,-1.35,-1.35
395.77,-0.49,0.87,-0.49,0.87,-0.87,-0.85,-0.69,-1.36,-1.36,-1.36
399.73,-0.50,0.87,-0.50,0.87,-0.86,-0.84,-0.68,-1.37,-1.37,-1.37
403.72,-0.52,0.86,-0.52,0.86,-0.86,-0.83,-0.68,-1.38,-1.38,-1.38
407.76,-0.54,0.85,-0.54,0.85,-0.85,-0.82,-0.67,-1.39,-1.39,-1.39
411.84,-0.56,0.83,-0.56,0.83,-0.84,-0.80,-0.67,-1.39,-1.39,-1.39
415.96,-0.57,0.82,-0.57,0.82,-0.82,-0.79,-0.66,-1.40,-1.40,-1.40
420.12,-0.59,0.81,-0.59,0.81,-0.81,-0.78,-0.66,-1.40,-1.40,-1.40
424.32,-0.60,0.80,-0.60,0.80,-0.80,-0.76,-0.65,-1.40,-1.40,-1.40
428.56,-0.61,0.79,-0.61,0.79,-0.79,-0.75,-0.65,-1.40,-1.40,-1.40
432.85,-0.63,0.78,-0.63,0.78,-0.78,-0.73,-0.65,-1.41,-1.40,-1.40
437.18,-0.64,0.76,-0.64,0.76,-0.76,-0.72,-0.64,-1.40,-1.40,-1.40
441.55,-0.65,0.75,-0.65,0.75,-0.75,-0.70,-0.64,-1.40,-1.40,-1.40
445.96,-0.67,0.74,-0.67,0.74,-0.73,-0.68,-0.64,-1.40,-1.40,-1.40
450.42,-0.68,0.72,-0.68,0.72,-0.72,-0.67,-0.63,-1.39,-1.40,-1.40
454.93,-0.69,0.70,-0.69,0.70,-0.70,-0.65,-0.63,-1.39,-1.39,-1.39
459.48,-0.71,0.68,-0.71,0.68,-0.68,-0.63,-0.62,-1.39,-1.39,-1.39
464.07,-0.73,0.66,-0.73,0.66,-0.66,-0.61,-0.62,-1.38,-1.38,-1.38
468.71,-0.74,0.63,-0.74,0.63,-0.63,-0.59,-0.61,-1.38,-1.38,-1.38
473.40,-0.76,0.61,-0.76,0.61,-0.61,-0.57,-0.61,-1.37,-1.37,-1.37
478.13,-0.77,0.59,-0.77,0.59,-0.59,-0.56,-0.60,-1.36,-1.36,-1.36
482.91,-0.79,0.57,-0.79,0.57,-0.57,-0.54,-0.60,-1.36,-1.36,-1.36
487.74,-0.80,0.55,-0.80,0.55,-0.55,-0.52,-0.59,-1.35,-1.35,-1.35
492.62,-0.82,0.53,-0.82,0.52,-0.52,-0.50,-0.58,-1.34,-1.34,-1.34
497.55,-0.83,0.50,-0.83,0.50,-0.50,-0.48,-0.57,-1.34,-1.34,-1.34
502.52,-0.85,0.48,-0.85,0.48,-0.48,-0.46,-0.57,-1.33,-1.33,-1.33
507.55,-0.87,0.46,-0.87,0.46,-0.46,-0.45,-0.56,-1.32,-1.32,-1.32
512.62,-0.88,0.44,-0.88,0.44,-0.44,-0.43,-0.55,-1.32,-1.32,-1.32
517.75,-0.89,0.42,-0.89,0.42,-0.42,-0.41,-0.54,-1.31,-1.31,-1.31
522.93,-0.91,0.40,-0.91,0.40,-0.40,-0.39,-0.52,-1.31,-1.31,-1.31
