frequency,raw,error,smoothed,error_smoothed,equalization,parametric_eq,fixed_band_eq,equalized_raw,equalized_smoothed,target
20.00,5.38,-4.60,5.39,-4.60,4.61,-0.02,1.16,9.99,10.00,9.98
20.20,5.40,-4.52,5.40,-4.52,4.52,-0.02,1.20,9.92,9.92,9.92
20.40,5.42,-4.44,5.41,-4.44,4.43,-0.02,1.23,9.85,9.85,9.86
20.61,5.43,-4.36,5.44,-4.36,4.35,-0.02,1.27,9.78,9.79,9.80
20.81,5.48,-4.26,5.48,-4.27,4.26,-0.02,1.31,9.74,9.74,9.74
21.02,5.52,-4.17,5.52,-4.17,4.18,-0.03,1.35,9.71,9.70,9.70
21.23,5.57,-4.09,5.57,-4.09,4.11,-0.03,1.39,9.68,9.68,9.66
21.44,5.62,-4.02,5.62,-4.02,4.03,-0.03,1.43,9.65,9.65,9.63
21.66,5.66,-3.95,5.66,-3.95,3.96,-0.03,1.48,9.62,9.62,9.62
21.87,5.71,-3.89,5.71,-3.89,3.89,-0.03,1.52,9.60,9.60,9.60
22.09,5.75,-3.84,5.75,-3.83,3.82,-0.03,1.57,9.58,9.58,9.59
22.31,5.79,-3.77,5.79,-3.77,3.76,-0.03,1.62,9.55,9.56,9.57
22.54,5.84,-3.71,5.84,-3.71,3.70,-0.03,1.66,9.54,9.54,9.55
22.76,5.88,-3.64,5.88,-3.64,3.64,-0.03,1.71,9.52,9.52,9.52
22.99,5.92,-3.57,5.92,-3.57,3.58,-0.03,1.76,9.50,9.50,9.50
23.22,5.97,-3.51,5.97,-3.51,3.52,-0.03,1.82,9.48,9.48,9.48
23.45,6.01,-3.45,6.01,-3.45,3.46,-0.03,1.87,9.47,9.47,9.46
23.69,6.05,-3.41,6.04,-3.41,3.41,-0.03,1.93,9.46,9.46,9.45
23.92,6.08,-3.36,6.08,-3.36,3.37,-0.03,1.98,9.45,9.45,9.45
24.16,6.12,-3.33,6.12,-3.33,3.33,-0.03,2.04,9.44,9.44,9.44
24.40,6.15,-3.29,6.15,-3.29,3.29,-0.03,2.09,9.44,9.44,9.44
24.65,6.18,-3.26,6.18,-3.26,3.26,-0.04,2.15,9.44,9.44,9.44
24.89,6.21,-3.22,6.21,-3.22,3.22,-0.04,2.21,9.43,9.43,9.43
25.14,6.24,-3.19,6.24,-3.19,3.19,-0.04,2.27,9.43,9.43,9.43
25.39,6.27,-3.15,6.27,-3.15,3.15,-0.04,2.33,9.42,9.42,9.42
25.65,6.30,-3.11,6.30,-3.11,3.11,-0.04,2.39,9.41,9.41,9.41
25.91,6.33,-3.06,6.33,-3.07,3.06,-0.04,2.44,9.40,9.40,9.40
26.16,6.36,-3.02,6.36,-3.02,3.01,-0.04,2.50,9.38,9.38,9.38
26.43,6.40,-2.97,6.39,-2.97,2.96,-0.04,2.56,9.35,9.35,9.36
26.69,6.43,-2.91,6.43,-2.91,2.89,-0.04,2.61,9.32,9.32,9.33
26.96,6.45,-2.84,6.45,-2.84,2.83,-0.04,2.67,9.28,9.28,9.29
27.23,6.48,-2.76,6.48,-2.76,2.76,-0.04,2.72,9.24,9.24,9.25
27.50,6.51,-2.69,6.51,-2.69,2.69,-0.04,2.77,9.21,9.21,9.20
27.77,6.54,-2.62,6.54,-2.62,2.63,-0.05,2.82,9.18,9.18,9.16
28.05,6.58,-2.56,6.58,-2.56,2.58,-0.05,2.87,9.15,9.15,9.13
28.33,6.61,-2.51,6.61,-2.51,2.53,-0.05,2.91,9.14,9.14,9.12
28.62,6.64,-2.47,6.64,-2.48,2.49,-0.05,2.95,9.13,9.13,9.12
28.90,6.67,-2.45,6.67,-2.45,2.45,-0.05,2.99,9.13,9.13,9.12
29.19,6.71,-2.42,6.71,-2.42,2.42,-0.05,3.02,9.12,9.12,9.13
29.48,6.73,-2.40,6.73,-2.40,2.38,-0.05,3.04,9.12,9.12,9.13
29.78,6.76,-2.36,6.76,-2.36,2.35,-0.05,3.07,9.11,9.11,9.12
30.08,6.79,-2.32,6.79,-2.32,2.30,-0.05,3.08,9.09,9.09,9.11
30.38,6.81,-2.27,6.81,-2.27,2.25,-0.05,3.10,9.06,9.06,9.08
30.68,6.84,-2.21,6.84,-2.21,2.20,-0.06,3.10,9.03,9.03,9.04
30.99,6.86,-2.14,6.86,-2.14,2.14,-0.06,3.11,9.00,9.00,9.00
31.30,6.88,-2.08,6.88,-2.08,2.09,-0.06,3.10,8.97,8.97,8.96
31.61,6.90,-2.02,6.90,-2.03,2.04,-0.06,3.09,8.94,8.94,8.93
31.93,6.93,-1.98,6.93,-1.98,2.00,-0.06,3.07,8.92,8.92,8.90
32.24,6.95,-1.95,6.95,-1.95,1.97,-0.06,3.06,8.91,8.91,8.90
32.57,6.97,-1.93,6.97,-1.93,1.94,-0.06,3.03,8.91,8.91,8.90
32.89,6.99,-1.93,6.99,-1.92,1.93,-0.07,3.00,8.92,8.92,8.91
33.22,7.01,-1.92,7.01,-1.92,1.92,-0.07,2.96,8.92,8.92,8.93
33.55,7.02,-1.92,7.02,-1.92,1.91,-0.07,2.92,8.93,8.93,8.94
33.89,7.04,-1.91,7.04,-1.91,1.90,-0.07,2.87,8.94,8.94,8.95
34.23,7.06,-1.89,7.06,-1.89,1.88,-0.07,2.83,8.94,8.94,8.96
34.57,7.08,-1.87,7.08,-1.87,1.86,-0.07,2.77,8.94,8.94,8.95
34.92,7.10,-1.84,7.10,-1.84,1.84,-0.07,2.72,8.94,8.94,8.94
35.27,7.12,-1.81,7.12,-1.81,1.81,-0.08,2.65,8.93,8.93,8.92
35.62,7.13,-1.77,7.13,-1.77,1.78,-0.08,2.59,8.92,8.92,8.90
35.97,7.15,-1.74,7.15,-1.74,1.75,-0.08,2.53,8.90,8.90,8.89
36.33,7.17,-1.71,7.17,-1.71,1.71,-0.08,2.46,8.88,8.88,8.88
36.70,7.18,-1.68,7.18,-1.68,1.68,-0.08,2.39,8.86,8.86,8.87
37.06,7.20,-1.65,7.20,-1.65,1.64,-0.08,2.32,8.83,8.83,8.85
37.43,7.21,-1.61,7.21,-1.60,1.60,-0.09,2.25,8.81,8.81,8.82
37.81,7.22,-1.55,7.22,-1.55,1.56,-0.09,2.18,8.78,8.78,8.77
38.19,7.24,-1.49,7.24,-1.49,1.51,-0.09,2.10,8.75,8.75,8.73
38.57,7.25,-1.44,7.25,-1.44,1.45,-0.09,2.03,8.70,8.70,8.69
38.95,7.26,-1.40,7.26,-1.40,1.39,-0.09,1.96,8.65,8.65,8.66
39.34,7.27,-1.36,7.27,-1.35,1.33,-0.10,1.88,8.60,8.60,8.63
39.74,7.29,-1.29,7.29,-1.28,1.26,-0.10,1.81,8.55,8.55,8.58
40.14,7.30,-1.20,7.30,-1.20,1.20,-0.10,1.73,8.50,8.50,8.50
40.54,7.31,-1.11,7.31,-1.12,1.14,-0.10,1.66,8.45,8.45,8.41
40.94,7.32,-1.05,7.32,-1.05,1.08,-0.11,1.59,8.39,8.39,8.36
41.35,7.32,-1.01,7.32,-1.01,1.02,-0.11,1.52,8.34,8.34,8.33
41.76,7.33,-0.99,7.33,-0.98,0.96,-0.11,1.44,8.29,8.29,8.32
42.18,7.34,-0.94,7.34,-0.93,0.91,-0.11,1.37,8.25,8.25,8.27
42.60,7.35,-0.87,7.35,-0.87,0.87,-0.12,1.30,8.22,8.22,8.22
43.03,7.35,-0.80,7.35,-0.81,0.84,-0.12,1.23,8.19,8.19,8.15
43.46,7.36,-0.77,7.36,-0.78,0.80,-0.12,1.16,8.16,8.16,8.13
43.90,7.37,-0.76,7.37,-0.77,0.77,-0.12,1.10,8.14,8.14,8.13
44.33,7.38,-0.77,7.38,-0.76,0.74,-0.13,1.03,8.12,8.12,8.15
44.78,7.38,-0.74,7.38,-0.73,0.72,-0.13,0.96,8.10,8.10,8.13
45.23,7.39,-0.69,7.39,-0.69,0.69,-0.13,0.90,8.07,8.07,8.08
45.68,7.39,-0.64,7.39,-0.65,0.65,-0.14,0.83,8.04,8.04,8.03
46.13,7.39,-0.62,7.39,-0.63,0.62,-0.14,0.77,8.01,8.01,8.01
46.60,7.39,-0.61,7.40,-0.60,0.58,-0.14,0.71,7.98,7.98,8.01
47.06,7.40,-0.57,7.40,-0.56,0.55,-0.15,0.64,7.95,7.95,7.97
47.53,7.40,-0.51,7.40,-0.50,0.53,-0.15,0.58,7.93,7.93,7.91
48.01,7.40,-0.44,7.40,-0.45,0.51,-0.15,0.52,7.91,7.91,7.84
48.49,7.41,-0.42,7.41,-0.44,0.49,-0.16,0.46,7.90,7.90,7.83
48.97,7.41,-0.46,7.41,-0.47,0.47,-0.16,0.41,7.88,7.88,7.87
49.46,7.41,-0.51,7.41,-0.49,0.45,-0.17,0.35,7.86,7.86,7.92
49.96,7.41,-0.50,7.41,-0.48,0.42,-0.17,0.29,7.83,7.83,7.91
50.46,7.41,-0.42,7.41,-0.43,0.38,-0.17,0.23,7.79,7.79,7.83
50.96,7.41,-0.34,7.41,-0.35,0.34,-0.18,0.18,7.75,7.75,7.75
51.47,7.41,-0.27,7.41,-0.27,0.29,-0.18,0.13,7.70,7.70,7.68
51.99,7.41,-0.21,7.41,-0.20,0.23,-0.19,0.07,7.63,7.64,7.61
52.51,7.40,-0.14,7.40,-0.14,0.16,-0.19,0.02,7.57,7.57,7.54
53.03,7.40,-0.07,7.40,-0.09,0.10,-0.20,-0.03,7.50,7.50,7.47
53.56,7.39,-0.05,7.39,-0.05,0.04,-0.20,-0.08,7.43,7.43,7.44
54.10,7.39,-0.02,7.39,-0.01,0.00,-0.21,-0.13,7.39,7.39,7.41
54.64,7.38,0.01,7.38,0.03,-0.03,-0.21,-0.18,7.36,7.36,7.37
55.18,7.38,0.08,7.38,0.08,-0.05,-0.22,-0.22,7.33,7.33,7.29
55.74,7.37,0.12,7.37,0.10,-0.07,-0.22,-0.27,7.31,7.31,7.25
56.29,7.37,0.11,7.37,0.10,-0.09,-0.23,-0.31,7.28,7.28,7.26
56.86,7.37,0.07,7.37,0.08,-0.11,-0.23,-0.36,7.26,7.26,7.30
57.42,7.36,0.08,7.36,0.08,-0.13,-0.24,-0.40,7.23,7.23,7.28
58.00,7.35,0.11,7.35,0.13,-0.16,-0.25,-0.44,7.19,7.19,7.25
58.58,7.35,0.21,7.35,0.19,-0.19,-0.25,-0.47,7.16,7.16,7.14
59.16,7.34,0.28,7.34,0.24,-0.23,-0.26,-0.51,7.11,7.11,7.06
59.76,7.33,0.26,7.33,0.28,-0.26,-0.27,-0.54,7.07,7.07,7.07
60.35,7.32,0.29,7.32,0.32,-0.31,-0.27,-0.57,7.01,7.01,7.03
60.96,7.31,0.36,7.31,0.36,-0.36,-0.28,-0.60,6.95,6.95,6.96
61.57,7.30,0.44,7.30,0.40,-0.40,-0.29,-0.63,6.90,6.90,6.86
62.18,7.29,0.43,7.29,0.43,-0.44,-0.29,-0.66,6.86,6.86,6.87
62.80,7.28,0.42,7.28,0.46,-0.47,-0.30,-0.68,6.82,6.82,6.86
63.43,7.28,0.49,7.28,0.50,-0.49,-0.31,-0.71,6.78,6.78,6.78
64.07,7.27,0.58,7.27,0.54,-0.51,-0.32,-0.73,6.75,6.75,6.68
64.71,7.26,0.56,7.26,0.56,-0.53,-0.33,-0.75,6.73,6.73,6.70
65.35,7.24,0.54,7.24,0.55,-0.54,-0.34,-0.77,6.70,6.70,6.70
66.01,7.23,0.54,7.23,0.55,-0.56,-0.35,-0.78,6.67,6.67,6.70
66.67,7.22,0.57,7.22,0.57,-0.59,-0.36,-0.80,6.63,6.63,6.65
67.33,7.21,0.60,7.21,0.59,-0.62,-0.37,-0.81,6.59,6.59,6.61
68.01,7.19,0.63,7.19,0.62,-0.66,-0.38,-0.82,6.53,6.53,6.57
68.69,7.18,0.65,7.18,0.68,-0.71,-0.39,-0.83,6.47,6.47,6.53
69.37,7.16,0.74,7.16,0.77,-0.76,-0.40,-0.84,6.40,6.40,6.42
70.07,7.15,0.89,7.15,0.85,-0.81,-0.41,-0.85,6.33,6.33,6.25
70.77,7.13,0.92,7.13,0.89,-0.86,-0.42,-0.86,6.27,6.27,6.21
71.48,7.11,0.88,7.11,0.92,-0.89,-0.43,-0.87,6.22,6.22,6.23
72.19,7.10,0.86,7.10,0.93,-0.91,-0.45,-0.88,6.19,6.19,6.23
72.91,7.08,1.01,7.08,0.93,-0.92,-0.46,-0.88,6.16,6.16,6.06
73.64,7.06,0.94,7.06,0.92,-0.92,-0.47,-0.89,6.14,6.14,6.12
74.38,7.04,0.87,7.04,0.91,-0.91,-0.49,-0.90,6.13,6.13,6.17
75.12,7.02,0.85,7.02,0.87,-0.91,-0.50,-0.90,6.12,6.11,6.17
75.87,7.00,0.91,7.00,0.88,-0.91,-0.51,-0.91,6.09,6.09,6.09
76.63,6.98,0.91,6.98,0.89,-0.91,-0.53,-0.92,6.07,6.07,6.07
77.40,6.96,0.88,6.96,0.93,-0.93,-0.55,-0.92,6.04,6.04,6.08
78.17,6.94,0.96,6.94,0.96,-0.95,-0.56,-0.93,5.99,5.99,5.98
78.95,6.92,1.03,6.92,0.99,-0.98,-0.58,-0.94,5.94,5.94,5.89
79.74,6.90,1.00,6.90,1.01,-1.01,-0.60,-0.94,5.89,5.89,5.89
80.54,6.87,1.01,6.87,1.03,-1.04,-0.61,-0.95,5.83,5.83,5.87
81.35,6.85,1.04,6.85,1.07,-1.07,-0.63,-0.96,5.78,5.78,5.81
82.16,6.83,1.15,6.83,1.11,-1.09,-0.65,-0.97,5.74,5.74,5.68
82.98,6.81,1.16,6.81,1.14,-1.11,-0.67,-0.98,5.70,5.70,5.65
83.81,6.78,1.10,6.78,1.15,-1.13,-0.69,-0.99,5.65,5.65,5.68
84.65,6.76,1.15,6.76,1.13,-1.15,-0.71,-1.00,5.61,5.61,5.61
85.50,6.73,1.15,6.73,1.13,-1.17,-0.74,-1.02,5.57,5.57,5.59
86.35,6.71,1.13,6.71,1.17,-1.18,-0.76,-1.03,5.52,5.52,5.58
87.22,6.68,1.22,6.68,1.20,-1.19,-0.78,-1.04,5.49,5.49,5.46
88.09,6.65,1.25,6.65,1.25,-1.21,-0.81,-1.06,5.44,5.44,5.40
88.97,6.62,1.26,6.63,1.26,-1.24,-0.83,-1.07,5.39,5.39,5.36
89.86,6.60,1.28,6.60,1.23,-1.27,-0.86,-1.09,5.33,5.33,5.32
90.76,6.57,1.20,6.57,1.27,-1.29,-0.88,-1.11,5.28,5.28,5.37
91.66,6.54,1.27,6.54,1.31,-1.30,-0.91,-1.13,5.24,5.24,5.26
92.58,6.51,1.48,6.51,1.34,-1.32,-0.94,-1.15,5.19,5.19,5.03
93.51,6.48,1.33,6.48,1.41,-1.36,-0.97,-1.17,5.11,5.11,5.14
94.44,6.45,1.41,6.45,1.47,-1.45,-1.00,-1.19,5.00,5.00,5.04
95.39,6.41,1.52,6.41,1.40,-1.55,-1.03,-1.21,4.86,4.86,4.89
96.34,6.38,1.53,6.38,1.46,-1.65,-1.06,-1.23,4.73,4.73,4.85
97.30,6.35,1.33,6.35,1.65,-1.73,-1.09,-1.26,4.61,4.61,5.01
98.28,6.31,1.94,6.31,1.91,-1.80,-1.13,-1.28,4.51,4.51,4.37
99.26,6.27,2.33,6.27,2.07,-1.85,-1.16,-1.30,4.42,4.42,3.95
100.25,6.24,2.14,6.24,2.09,-1.87,-1.20,-1.33,4.37,4.37,4.10
101.25,6.20,1.70,6.20,1.89,-1.85,-1.23,-1.35,4.35,4.35,4.50
102.27,6.16,1.66,6.16,1.71,-1.81,-1.27,-1.38,4.35,4.35,4.50
103.29,6.12,1.72,6.12,1.65,-1.73,-1.30,-1.41,4.39,4.39,4.40
104.32,6.08,1.68,6.08,1.62,-1.63,-1.34,-1.43,4.45,4.45,4.40
105.37,6.04,1.48,6.04,1.50,-1.53,-1.38,-1.46,4.51,4.51,4.55
106.42,5.99,1.35,5.99,1.39,-1.46,-1.41,-1.48,4.54,4.54,4.64
107.48,5.95,1.32,5.95,1.36,-1.41,-1.45,-1.51,4.54,4.54,4.63
108.56,5.90,1.42,5.90,1.39,-1.39,-1.49,-1.53,4.51,4.51,4.48
109.64,5.85,1.44,5.85,1.40,-1.37,-1.53,-1.56,4.48,4.48,4.42
110.74,5.81,1.40,5.81,1.40,-1.35,-1.56,-1.58,4.46,4.46,4.41
111.85,5.77,1.32,5.77,1.39,-1.33,-1.60,-1.60,4.43,4.44,4.45
112.97,5.73,1.40,5.73,1.35,-1.33,-1.63,-1.63,4.40,4.40,4.34
114.10,5.70,1.39,5.70,1.32,-1.33,-1.67,-1.65,4.37,4.37,4.30
115.24,5.66,1.19,5.66,1.32,-1.33,-1.70,-1.67,4.33,4.33,4.47
116.39,5.64,1.33,5.64,1.30,-1.34,-1.73,-1.68,4.29,4.29,4.31
117.55,5.61,1.38,5.61,1.33,-1.38,-1.76,-1.70,4.23,4.23,4.23
118.73,5.59,1.37,5.59,1.39,-1.42,-1.79,-1.72,4.16,4.16,4.22
119.92,5.56,1.43,5.56,1.46,-1.48,-1.82,-1.73,4.08,4.08,4.14
121.12,5.54,1.54,5.54,1.54,-1.54,-1.84,-1.74,3.99,3.99,4.00
122.33,5.51,1.68,5.51,1.63,-1.59,-1.86,-1.75,3.92,3.92,3.83
123.55,5.48,1.67,5.48,1.71,-1.63,-1.89,-1.75,3.85,3.85,3.81
124.79,5.45,1.74,5.45,1.73,-1.66,-1.90,-1.76,3.79,3.79,3.71
126.03,5.42,1.74,5.42,1.71,-1.68,-1.92,-1.76,3.74,3.74,3.68
127.29,5.39,1.66,5.40,1.68,-1.69,-1.93,-1.76,3.71,3.71,3.73
128.57,5.37,1.61,5.37,1.64,-1.70,-1.94,-1.76,3.68,3.68,3.76
129.85,5.36,1.63,5.36,1.61,-1.70,-1.94,-1.76,3.66,3.66,3.72
131.15,5.34,1.65,5.34,1.65,-1.70,-1.95,-1.75,3.64,3.64,3.69
132.46,5.33,1.64,5.33,1.72,-1.71,-1.95,-1.74,3.62,3.62,3.69
133.79,5.31,1.86,5.31,1.75,-1.72,-1.94,-1.73,3.60,3.59,3.45
135.12,5.29,1.78,5.29,1.78,-1.72,-1.94,-1.72,3.57,3.57,3.51
136.48,5.27,1.71,5.27,1.78,-1.72,-1.93,-1.71,3.54,3.54,3.55
137.84,5.24,1.78,5.24,1.73,-1.72,-1.92,-1.70,3.52,3.52,3.46
139.22,5.20,1.73,5.20,1.72,-1.73,-1.91,-1.68,3.47,3.47,3.48
140.61,5.17,1.69,5.17,1.72,-1.76,-1.89,-1.66,3.41,3.41,3.47
142.02,5.13,1.71,5.13,1.69,-1.79,-1.88,-1.65,3.33,3.33,3.42
143.44,5.08,1.72,5.08,1.71,-1.83,-1.86,-1.63,3.26,3.26,3.36
144.87,5.04,1.73,5.04,1.79,-1.84,-1.84,-1.61,3.20,3.20,3.31
146.32,4.99,1.90,4.99,1.91,-1.84,-1.82,-1.59,3.16,3.16,3.09
147.78,4.95,2.06,4.95,2.02,-1.82,-1.80,-1.57,3.13,3.13,2.89
149.26,4.90,2.05,4.90,2.00,-1.80,-1.78,-1.56,3.10,3.10,2.85
150.75,4.85,1.88,4.85,1.84,-1.78,-1.75,-1.54,3.08,3.08,2.97
152.26,4.80,1.55,4.80,1.62,-1.75,-1.73,-1.52,3.05,3.05,3.25
153.78,4.76,1.47,4.76,1.50,-1.72,-1.70,-1.50,3.03,3.03,3.29
155.32,4.71,1.48,4.71,1.52,-1.68,-1.68,-1.48,3.02,3.02,3.23
156.88,4.66,1.68,4.66,1.65,-1.65,-1.66,-1.46,3.01,3.01,2.98
158.44,4.61,1.78,4.61,1.74,-1.63,-1.63,-1.45,2.98,2.98,2.83
160.03,4.56,1.80,4.56,1.76,-1.63,-1.61,-1.43,2.93,2.93,2.76
161.63,4.51,1.66,4.51,1.71,-1.66,-1.59,-1.41,2.85,2.85,2.85
163.24,4.46,1.62,4.46,1.66,-1.69,-1.57,-1.40,2.78,2.78,2.85
164.88,4.41,1.67,4.41,1.62,-1.69,-1.54,-1.39,2.72,2.72,2.74
166.53,4.36,1.63,4.36,1.65,-1.68,-1.52,-1.37,2.68,2.68,2.73
168.19,4.31,1.63,4.31,1.66,-1.65,-1.50,-1.36,2.66,2.66,2.68
169.87,4.26,1.70,4.26,1.66,-1.63,-1.49,-1.35,2.63,2.63,2.56
171.57,4.21,1.65,4.21,1.64,-1.61,-1.47,-1.34,2.60,2.60,2.56
173.29,4.16,1.60,4.16,1.61,-1.61,-1.45,-1.33,2.55,2.55,2.56
175.02,4.11,1.57,4.11,1.57,-1.61,-1.43,-1.32,2.50,2.50,2.54
176.77,4.06,1.56,4.06,1.56,-1.60,-1.42,-1.31,2.46,2.46,2.50
178.54,4.01,1.56,4.01,1.58,-1.59,-1.40,-1.31,2.41,2.41,2.44
180.32,3.96,1.59,3.96,1.60,-1.59,-1.39,-1.30,2.37,2.37,2.37
182.13,3.91,1.67,3.91,1.59,-1.58,-1.38,-1.30,2.33,2.33,2.24
183.95,3.86,1.55,3.86,1.60,-1.57,-1.37,-1.30,2.29,2.29,2.32
185.79,3.82,1.52,3.82,1.59,-1.57,-1.36,-1.30,2.25,2.25,2.30
187.65,3.77,1.67,3.77,1.56,-1.56,-1.34,-1.29,2.22,2.22,2.11
189.52,3.73,1.53,3.73,1.56,-1.55,-1.34,-1.29,2.18,2.18,2.19
191.42,3.69,1.50,3.69,1.51,-1.53,-1.33,-1.30,2.16,2.16,2.18
193.33,3.65,1.47,3.65,1.47,-1.52,-1.32,-1.30,2.13,2.13,2.17
195.27,3.61,1.43,3.61,1.49,-1.51,-1.31,-1.30,2.10,2.10,2.17
197.22,3.57,1.58,3.57,1.51,-1.50,-1.30,-1.30,2.07,2.07,1.99
199.19,3.52,1.52,3.52,1.51,-1.49,-1.30,-1.31,2.03,2.03,2.00
201.18,3.48,1.47,3.48,1.49,-1.49,-1.29,-1.31,1.99,1.99,2.01
203.19,3.44,1.45,3.44,1.44,-1.47,-1.28,-1.32,1.97,1.97,1.99
205.23,3.39,1.42,3.39,1.45,-1.44,-1.28,-1.32,1.95,1.95,1.97
207.28,3.35,1.46,3.35,1.46,-1.41,-1.27,-1.33,1.94,1.94,1.89
209.35,3.30,1.49,3.30,1.42,-1.37,-1.27,-1.34,1.93,1.93,1.81
211.44,3.25,1.33,3.25,1.35,-1.32,-1.26,-1.34,1.93,1.93,1.92
213.56,3.20,1.21,3.20,1.24,-1.28,-1.26,-1.35,1.92,1.92,1.99
215.69,3.15,1.18,3.15,1.18,-1.24,-1.25,-1.36,1.91,1.91,1.98
217.85,3.10,1.15,3.10,1.18,-1.21,-1.24,-1.36,1.89,1.89,1.95
220.03,3.05,1.22,3.05,1.18,-1.18,-1.24,-1.37,1.87,1.87,1.83
222.23,3.00,1.18,3.00,1.17,-1.17,-1.23,-1.37,1.83,1.83,1.82
224.45,2.95,1.15,2.95,1.17,-1.17,-1.22,-1.38,1.79,1.79,1.80
226.70,2.90,1.13,2.90,1.16,-1.17,-1.21,-1.38,1.73,1.73,1.77
228.96,2.85,1.20,2.85,1.18,-1.18,-1.21,-1.38,1.68,1.68,1.66
231.25,2.80,1.22,2.80,1.20,-1.18,-1.20,-1.39,1.62,1.62,1.58
233.57,2.75,1.20,2.75,1.20,-1.17,-1.19,-1.39,1.58,1.58,1.55
235.90,2.71,1.17,2.71,1.17,-1.17,-1.17,-1.39,1.54,1.54,1.54
238.26,2.66,1.14,2.66,1.15,-1.16,-1.16,-1.39,1.49,1.49,1.52
240.64,2.61,1.13,2.61,1.13,-1.15,-1.15,-1.38,1.46,1.46,1.48
243.05,2.56,1.14,2.56,1.13,-1.14,-1.14,-1.38,1.43,1.43,1.42
245.48,2.51,1.12,2.51,1.12,-1.11,-1.12,-1.37,1.40,1.40,1.39
247.93,2.46,1.10,2.46,1.10,-1.08,-1.11,-1.37,1.38,1.38,1.37
250.41,2.41,1.07,2.41,1.07,-1.05,-1.09,-1.36,1.36,1.36,1.34
252.92,2.36,1.04,2.36,1.04,-1.02,-1.08,-1.35,1.35,1.35,1.32
255.45,2.31,1.00,2.31,0.99,-0.99,-1.06,-1.33,1.33,1.33,1.32
258.00,2.26,0.94,2.26,0.95,-0.96,-1.04,-1.32,1.31,1.31,1.32
260.58,2.21,0.91,2.21,0.91,-0.93,-1.03,-1.30,1.28,1.28,1.30
263.19,2.16,0.88,2.16,0.88,-0.91,-1.01,-1.29,1.25,1.25,1.28
265.82,2.11,0.86,2.11,0.87,-0.90,-0.99,-1.27,1.21,1.21,1.26
268.48,2.06,0.88,2.06,0.88,-0.89,-0.97,-1.25,1.17,1.17,1.18
271.16,2.01,0.92,2.01,0.90,-0.89,-0.95,-1.23,1.13,1.13,1.10
273.87,1.97,0.92,1.97,0.92,-0.88,-0.93,-1.20,1.08,1.08,1.05
276.61,1.92,0.90,1.92,0.91,-0.87,-0.91,-1.18,1.04,1.04,1.01
279.38,1.87,0.89,1.87,0.88,-0.86,-0.89,-1.15,1.00,1.00,0.98
282.17,1.82,0.84,1.82,0.84,-0.85,-0.87,-1.13,0.97,0.97,0.97
284.99,1.77,0.79,1.77,0.82,-0.83,-0.85,-1.10,0.94,0.94,0.98
287.84,1.72,0.80,1.72,0.79,-0.81,-0.83,-1.07,0.91,0.91,0.91
290.72,1.67,0.80,1.67,0.76,-0.79,-0.81,-1.05,0.88,0.88,0.87
293.63,1.62,0.73,1.62,0.76,-0.77,-0.79,-1.02,0.85,0.85,0.89
296.57,1.57,0.73,1.57,0.75,-0.74,-0.77,-0.99,0.82,0.82,0.84
299.53,1.52,0.78,1.52,0.74,-0.73,-0.75,-0.96,0.79,0.79,0.73
302.53,1.47,0.74,1.47,0.73,-0.71,-0.73,-0.93,0.76,0.76,0.73
305.55,1.42,0.69,1.42,0.70,-0.69,-0.71,-0.90,0.73,0.73,0.73
308.61,1.37,0.66,1.37,0.65,-0.67,-0.69,-0.87,0.70,0.70,0.72
311.69,1.32,0.63,1.32,0.63,-0.65,-0.67,-0.84,0.67,0.67,0.70
314.81,1.28,0.61,1.28,0.62,-0.63,-0.65,-0.81,0.65,0.65,0.66
317.96,1.23,0.62,1.23,0.62,-0.61,-0.64,-0.78,0.62,0.62,0.60
321.14,1.18,0.62,1.18,0.60,-0.59,-0.62,-0.75,0.59,0.59,0.57
324.35,1.13,0.57,1.13,0.58,-0.57,-0.60,-0.72,0.56,0.56,0.56
327.59,1.09,0.55,1.09,0.56,-0.56,-0.58,-0.70,0.53,0.53,0.54
330.87,1.04,0.54,1.04,0.54,-0.55,-0.57,-0.67,0.49,0.49,0.50
334.18,1.00,0.53,1.00,0.53,-0.53,-0.55,-0.64,0.46,0.46,0.46
337.52,0.95,0.52,0.95,0.52,-0.52,-0.53,-0.61,0.43,0.43,0.43
340.90,0.90,0.51,0.90,0.50,-0.50,-0.51,-0.58,0.40,0.40,0.40
344.30,0.86,0.48,0.86,0.49,-0.49,-0.50,-0.56,0.37,0.37,0.37
347.75,0.81,0.47,0.81,0.47,-0.47,-0.48,-0.53,0.34,0.34,0.34
351.23,0.77,0.46,0.77,0.46,-0.46,-0.47,-0.50,0.31,0.31,0.31
354.74,0.72,0.44,0.72,0.44,-0.45,-0.45,-0.48,0.28,0.28,0.28
358.28,0.68,0.43,0.68,0.43,-0.43,-0.44,-0.45,0.25,0.25,0.25
361.87,0.64,0.41,0.64,0.41,-0.41,-0.42,-0.43,0.22,0.22,0.23
365.49,0.59,0.39,0.59,0.40,-0.40,-0.41,-0.40,0.20,0.20,0.20
369.14,0.55,0.40,0.55,0.39,-0.38,-0.39,-0.38,0.17,0.17,0.15
372.83,0.51,0.37,0.51,0.37,-0.36,-0.38,-0.35,0.14,0.14,0.13
376.56,0.46,0.34,0.46,0.34,-0.35,-0.37,-0.33,0.12,0.12,0.13
380.33,0.42,0.31,0.42,0.32,-0.33,-0.35,-0.31,0.09,0.09,0.11
384.13,0.38,0.30,0.38,0.30,-0.31,-0.34,-0.28,0.07,0.07,0.07
387.97,0.33,0.30,0.33,0.29,-0.29,-0.33,-0.26,0.04,0.04,0.04
391.85,0.29,0.28,0.29,0.28,-0.27,-0.32,-0.24,0.02,0.02,0.02
395.77,0.25,0.26,0.25,0.26,-0.26,-0.30,-0.21,-0.01,-0.01,-0.01
399.73,0.21,0.24,0.21,0.24,-0.24,-0.29,-0.19,-0.03,-0.03,-0.03
403.72,0.17,0.21,0.17,0.22,-0.23,-0.28,-0.17,-0.06,-0.06,-0.05
407.76,0.13,0.20,0.13,0.21,-0.21,-0.27,-0.15,-0.08,-0.08,-0.07
411.84,0.09,0.20,0.09,0.20,-0.20,-0.25,-0.13,-0.11,-0.11,-0.11
415.96,0.05,0.20,0.05,0.19,-0.18,-0.24,-0.11,-0.13,-0.13,-0.15
420.12,0.01,0.17,0.01,0.17,-0.17,-0.23,-0.09,-0.16,-0.16,-0.16
424.32,-0.03,0.13,-0.03,0.15,-0.16,-0.22,-0.07,-0.18,-0.18,-0.16
428.56,-0.06,0.14,-0.06,0.14,-0.14,-0.21,-0.05,-0.21,-0.21,-0.20
432.85,-0.10,0.14,-0.10,0.13,-0.13,-0.20,-0.03,-0.23,-0.23,-0.24
437.18,-0.14,0.13,-0.14,0.12,-0.12,-0.18,-0.01,-0.26,-0.26,-0.27
441.55,-0.17,0.10,-0.17,0.11,-0.11,-0.17,0.00,-0.28,-0.28,-0.28
445.96,-0.21,0.09,-0.21,0.10,-0.09,-0.16,0.02,-0.30,-0.30,-0.30
450.42,-0.25,0.10,-0.25,0.08,-0.08,-0.15,0.04,-0.33,-0.33,-0.34
454.93,-0.28,0.07,-0.28,0.07,-0.07,-0.14,0.05,-0.35,-0.35,-0.35
459.48,-0.32,0.05,-0.32,0.06,-0.05,-0.13,0.07,-0.37,-0.37,-0.36
464.07,-0.35,0.04,-0.35,0.03,-0.04,-0.11,0.09,-0.39,-0.39,-0.39
468.71,-0.38,0.03,-0.38,0.01,-0.02,-0.10,0.10,-0.40,-0.40,-0.41
473.40,-0.42,-0.01,-0.42,0.00,-0.01,-0.09,0.12,-0.42,-0.42,-0.40
478.13,-0.45,-0.02,-0.45,-0.01,0.00,-0.08,0.13,-0.44,-0.44,-0.43
482.91,-0.48,-0.00,-0.48,-0.02,0.01,-0.06,0.14,-0.47,-0.47,-0.48
487.74,-0.51,-0.02,-0.51,-0.02,0.02,-0.05,0.15,-0.49,-0.49,-0.49
492.62,-0.54,-0.04,-0.54,-0.03,0.03,-0.04,0.17,-0.51,-0.51,-0.50
497.55,-0.57,-0.04,-0.57,-0.04,0.04,-0.02,0.18,-0.53,-0.53,-0.53
502.52,-0.60,-0.04,-0.60,-0.05,0.05,-0.01,0.19,-0.55,-0.55,-0.56
507.55,-0.63,-0.05,-0.63,-0.06,0.06,0.00,0.20,-0.57,-0.57,-0.58
512.62,-0.65,-0.07,-0.65,-0.07,0.06,0.02,0.21,-0.59,-0.59,-0.58
517.75,-0.68,-0.08,-0.68,-0.08,0.07,0.04,0.22,-0.61,-0.61,-0.60
522.93,-0.71,-0.08,-0.71,-0.08,0.08,0.05,0.23,-0.63,-0.63,-0.63
528.16,-0.73,-0.08,-0.73,-0.08,0.08,0.07,0.23,-0.65,-0.65,-0.65
533.44,-0.75,-0.09,-0.75,-0.09,0.09,0.09,0.24,-0.66,-0.66,-0.66
