frequency,raw,error,smoothed,error_smoothed,equalization,parametric_eq,fixed_band_eq,equalized_raw,equalized_smoothed,target
20.00,11.89,1.80,11.89,1.80,-1.78,-1.62,-0.84,10.11,10.11,10.09
20.20,11.89,1.79,11.89,1.79,-1.79,-1.63,-0.86,10.10,10.11,10.10
20.40,11.89,1.79,11.89,1.79,-1.79,-1.65,-0.89,10.10,10.10,10.10
20.61,11.88,1.79,11.88,1.79,-1.80,-1.66,-0.92,10.09,10.08,10.10
20.81,11.87,1.79,11.87,1.79,-1.80,-1.67,-0.94,10.06,10.07,10.08
21.02,11.85,1.79,11.85,1.79,-1.80,-1.68,-0.97,10.04,10.04,10.05
21.23,11.82,1.80,11.82,1.80,-1.81,-1.69,-1.00,10.01,10.01,10.02
21.44,11.80,1.81,11.80,1.81,-1.81,-1.69,-1.03,9.99,9.99,9.99
21.66,11.77,1.82,11.77,1.82,-1.82,-1.70,-1.06,9.95,9.95,9.95
21.87,11.74,1.83,11.75,1.83,-1.82,-1.71,-1.09,9.92,9.92,9.92
22.09,11.72,1.83,11.72,1.83,-1.82,-1.71,-1.12,9.90,9.90,9.89
22.31,11.70,1.83,11.70,1.83,-1.82,-1.72,-1.15,9.88,9.88,9.87
22.54,11.68,1.82,11.68,1.82,-1.82,-1.73,-1.19,9.87,9.87,9.86
22.76,11.67,1.81,11.67,1.81,-1.81,-1.73,-1.22,9.86,9.86,9.85
22.99,11.65,1.80,11.65,1.80,-1.80,-1.74,-1.26,9.85,9.85,9.85
23.22,11.63,1.79,11.63,1.79,-1.79,-1.75,-1.29,9.84,9.84,9.84
23.45,11.61,1.78,11.61,1.78,-1.78,-1.76,-1.33,9.83,9.83,9.84
23.69,11.59,1.76,11.59,1.76,-1.77,-1.76,-1.37,9.82,9.82,9.83
23.92,11.57,1.76,11.57,1.76,-1.76,-1.77,-1.41,9.81,9.81,9.81
24.16,11.54,1.75,11.54,1.75,-1.75,-1.78,-1.45,9.79,9.79,9.79
24.40,11.51,1.75,11.51,1.75,-1.74,-1.79,-1.48,9.77,9.77,9.77
24.65,11.49,1.74,11.49,1.74,-1.74,-1.80,-1.52,9.75,9.74,9.74
24.89,11.46,1.74,11.46,1.74,-1.74,-1.81,-1.57,9.72,9.72,9.71
25.14,11.43,1.75,11.42,1.74,-1.74,-1.82,-1.61,9.68,9.68,9.68
25.39,11.39,1.75,11.39,1.75,-1.75,-1.83,-1.65,9.64,9.64,9.65
25.65,11.37,1.76,11.37,1.76,-1.77,-1.84,-1.69,9.60,9.60,9.61
25.91,11.34,1.78,11.34,1.78,-1.79,-1.85,-1.73,9.55,9.55,9.57
26.16,11.32,1.80,11.32,1.80,-1.82,-1.86,-1.77,9.50,9.50,9.52
26.43,11.30,1.83,11.30,1.84,-1.85,-1.87,-1.81,9.46,9.46,9.47
26.69,11.29,1.87,11.29,1.87,-1.87,-1.88,-1.85,9.42,9.42,9.42
26.96,11.27,1.91,11.27,1.91,-1.89,-1.89,-1.89,9.38,9.38,9.37
27.23,11.25,1.93,11.25,1.93,-1.90,-1.90,-1.93,9.35,9.35,9.32
27.50,11.21,1.93,11.21,1.93,-1.89,-1.91,-1.97,9.32,9.32,9.28
27.77,11.16,1.91,11.16,1.91,-1.88,-1.92,-2.01,9.28,9.28,9.25
28.05,11.10,1.88,11.10,1.88,-1.87,-1.93,-2.04,9.24,9.23,9.22
28.33,11.03,1.84,11.03,1.84,-1.85,-1.94,-2.08,9.18,9.18,9.19
28.62,10.96,1.80,10.96,1.81,-1.84,-1.95,-2.11,9.12,9.12,9.16
28.90,10.90,1.79,10.90,1.79,-1.84,-1.96,-2.14,9.06,9.06,9.11
29.19,10.86,1.81,10.86,1.81,-1.85,-1.97,-2.17,9.02,9.02,9.06
29.48,10.84,1.84,10.85,1.84,-1.86,-1.98,-2.19,8.98,8.98,9.00
29.78,10.85,1.90,10.84,1.90,-1.88,-1.99,-2.22,8.96,8.96,8.95
30.08,10.85,1.95,10.85,1.94,-1.91,-2.00,-2.24,8.95,8.95,8.90
30.38,10.86,1.99,10.86,1.98,-1.93,-2.01,-2.26,8.93,8.93,8.88
30.68,10.86,2.00,10.86,1.99,-1.96,-2.02,-2.27,8.90,8.90,8.86
30.99,10.84,1.99,10.84,1.99,-1.98,-2.02,-2.29,8.86,8.86,8.85
31.30,10.82,1.98,10.82,1.99,-2.02,-2.03,-2.30,8.80,8.80,8.83
31.61,10.80,2.00,10.80,2.00,-2.05,-2.04,-2.30,8.74,8.75,8.80
31.93,10.78,2.04,10.78,2.04,-2.09,-2.05,-2.31,8.69,8.69,8.74
32.24,10.78,2.11,10.78,2.11,-2.14,-2.06,-2.31,8.64,8.64,8.67
32.57,10.78,2.19,10.78,2.19,-2.19,-2.06,-2.31,8.59,8.59,8.59
32.89,10.79,2.28,10.78,2.27,-2.23,-2.07,-2.31,8.55,8.55,8.51
33.22,10.78,2.33,10.78,2.32,-2.28,-2.08,-2.30,8.51,8.51,8.46
33.55,10.78,2.35,10.78,2.35,-2.31,-2.08,-2.29,8.47,8.47,8.42
33.89,10.76,2.34,10.76,2.34,-2.33,-2.09,-2.28,8.43,8.43,8.42
34.23,10.74,2.33,10.74,2.33,-2.34,-2.09,-2.27,8.39,8.39,8.41
34.57,10.71,2.31,10.71,2.31,-2.34,-2.10,-2.26,8.37,8.37,8.40
34.92,10.69,2.31,10.69,2.31,-2.33,-2.11,-2.24,8.36,8.36,8.38
35.27,10.66,2.31,10.66,2.31,-2.31,-2.11,-2.23,8.36,8.36,8.36
35.62,10.64,2.30,10.64,2.30,-2.28,-2.11,-2.21,8.36,8.36,8.33
35.97,10.60,2.29,10.60,2.28,-2.26,-2.12,-2.19,8.35,8.35,8.32
36.33,10.57,2.25,10.57,2.25,-2.24,-2.12,-2.17,8.33,8.33,8.32
36.70,10.53,2.21,10.53,2.21,-2.22,-2.12,-2.15,8.31,8.32,8.33
37.06,10.49,2.17,10.49,2.17,-2.20,-2.13,-2.13,8.29,8.29,8.32
37.43,10.45,2.15,10.45,2.16,-2.19,-2.13,-2.11,8.26,8.26,8.30
37.81,10.40,2.17,10.40,2.17,-2.18,-2.13,-2.10,8.22,8.22,8.24
38.19,10.35,2.18,10.35,2.18,-2.17,-2.13,-2.08,8.18,8.17,8.17
38.57,10.29,2.20,10.29,2.19,-2.17,-2.14,-2.06,8.12,8.12,8.10
38.95,10.24,2.20,10.24,2.19,-2.18,-2.14,-2.04,8.06,8.06,8.04
39.34,10.18,2.19,10.18,2.19,-2.18,-2.14,-2.02,8.00,8.00,8.00
39.74,10.13,2.18,10.13,2.18,-2.18,-2.14,-2.01,7.95,7.95,7.95
40.14,10.08,2.17,10.08,2.17,-2.18,-2.14,-1.99,7.90,7.90,7.92
40.54,10.04,2.17,10.04,2.17,-2.18,-2.14,-1.98,7.86,7.86,7.87
40.94,10.00,2.17,10.00,2.17,-2.17,-2.14,-1.96,7.83,7.83,7.83
41.35,9.96,2.17,9.96,2.17,-2.16,-2.14,-1.95,7.80,7.80,7.79
41.76,9.92,2.16,9.92,2.15,-2.14,-2.13,-1.94,7.78,7.78,7.77
42.18,9.89,2.13,9.89,2.13,-2.13,-2.13,-1.93,7.76,7.76,7.75
42.60,9.85,2.11,9.85,2.11,-2.11,-2.13,-1.93,7.74,7.74,7.74
43.03,9.81,2.08,9.81,2.08,-2.08,-2.13,-1.92,7.72,7.72,7.72
43.46,9.77,2.06,9.77,2.06,-2.06,-2.12,-1.91,7.71,7.71,7.71
43.90,9.72,2.03,9.72,2.03,-2.03,-2.12,-1.91,7.69,7.69,7.69
44.33,9.68,2.00,9.68,2.00,-2.01,-2.12,-1.91,7.67,7.67,7.68
44.78,9.63,1.98,9.63,1.98,-1.99,-2.11,-1.91,7.65,7.65,7.66
45.23,9.59,1.96,9.59,1.96,-1.96,-2.11,-1.91,7.62,7.62,7.63
45.68,9.53,1.94,9.53,1.94,-1.94,-2.11,-1.91,7.59,7.59,7.59
46.13,9.48,1.93,9.48,1.93,-1.92,-2.10,-1.92,7.56,7.56,7.55
46.60,9.42,1.91,9.42,1.91,-1.90,-2.10,-1.92,7.52,7.52,7.51
47.06,9.36,1.89,9.36,1.89,-1.88,-2.09,-1.93,7.49,7.49,7.47
47.53,9.31,1.87,9.31,1.87,-1.86,-2.09,-1.94,7.45,7.45,7.44
48.01,9.25,1.84,9.25,1.84,-1.85,-2.08,-1.95,7.40,7.40,7.40
48.49,9.19,1.83,9.19,1.83,-1.84,-2.07,-1.96,7.35,7.35,7.36
48.97,9.13,1.82,9.13,1.82,-1.84,-2.07,-1.97,7.29,7.29,7.30
49.46,9.07,1.83,9.07,1.83,-1.85,-2.06,-1.98,7.22,7.22,7.24
49.96,9.02,1.85,9.02,1.85,-1.87,-2.05,-1.99,7.14,7.14,7.17
50.46,8.96,1.89,8.96,1.89,-1.91,-2.05,-2.01,7.06,7.06,7.07
50.96,8.91,1.93,8.91,1.94,-1.94,-2.04,-2.02,6.97,6.97,6.98
51.47,8.87,1.99,8.87,1.99,-1.98,-2.03,-2.04,6.89,6.89,6.88
51.99,8.82,2.03,8.82,2.02,-2.00,-2.02,-2.06,6.82,6.82,6.80
52.51,8.78,2.05,8.78,2.05,-2.02,-2.02,-2.07,6.76,6.76,6.73
53.03,8.73,2.05,8.73,2.05,-2.02,-2.01,-2.09,6.71,6.71,6.68
53.56,8.67,2.03,8.67,2.03,-2.01,-2.00,-2.11,6.67,6.67,6.65
54.10,8.61,1.99,8.61,1.99,-1.98,-1.99,-2.12,6.63,6.63,6.62
54.64,8.55,1.95,8.55,1.95,-1.95,-1.98,-2.14,6.60,6.60,6.60
55.18,8.48,1.90,8.48,1.90,-1.90,-1.97,-2.16,6.58,6.58,6.58
55.74,8.41,1.85,8.41,1.85,-1.86,-1.97,-2.17,6.55,6.55,6.56
56.29,8.35,1.81,8.35,1.81,-1.83,-1.96,-2.18,6.52,6.52,6.53
56.86,8.29,1.79,8.29,1.79,-1.80,-1.95,-2.20,6.49,6.49,6.50
57.42,8.24,1.78,8.24,1.78,-1.79,-1.94,-2.21,6.45,6.45,6.46
58.00,8.19,1.78,8.19,1.78,-1.79,-1.93,-2.22,6.40,6.40,6.41
58.58,8.13,1.80,8.13,1.80,-1.81,-1.92,-2.23,6.33,6.33,6.33
59.16,8.08,1.83,8.08,1.83,-1.84,-1.91,-2.23,6.24,6.24,6.25
59.76,8.01,1.88,8.01,1.88,-1.89,-1.90,-2.24,6.12,6.12,6.14
60.35,7.94,1.93,7.94,1.93,-1.96,-1.89,-2.24,5.99,5.99,6.01
60.96,7.87,2.00,7.87,2.00,-2.03,-1.88,-2.24,5.84,5.84,5.87
61.57,7.80,2.08,7.80,2.08,-2.10,-1.87,-2.24,5.70,5.70,5.72
62.18,7.73,2.16,7.73,2.16,-2.15,-1.86,-2.23,5.58,5.58,5.57
62.80,7.67,2.24,7.67,2.23,-2.20,-1.85,-2.23,5.47,5.47,5.43
63.43,7.61,2.27,7.61,2.27,-2.22,-1.84,-2.22,5.39,5.39,5.33
64.07,7.54,2.29,7.54,2.27,-2.21,-1.83,-2.21,5.33,5.33,5.26
64.71,7.48,2.23,7.48,2.23,-2.19,-1.82,-2.19,5.28,5.29,5.24
65.35,7.41,2.16,7.41,2.16,-2.16,-1.81,-2.17,5.25,5.25,5.25
66.01,7.34,2.08,7.34,2.08,-2.12,-1.80,-2.16,5.23,5.23,5.27
66.67,7.28,2.01,7.28,2.02,-2.08,-1.79,-2.14,5.20,5.20,5.26
67.33,7.21,1.98,7.21,1.98,-2.05,-1.78,-2.11,5.17,5.17,5.23
68.01,7.15,1.97,7.15,1.98,-2.02,-1.77,-2.09,5.13,5.12,5.17
68.69,7.08,2.00,7.08,2.00,-2.00,-1.76,-2.06,5.07,5.08,5.08
69.37,7.01,2.02,7.01,2.02,-1.99,-1.75,-2.03,5.02,5.02,4.99
70.07,6.94,2.03,6.94,2.02,-1.98,-1.74,-2.00,4.97,4.97,4.91
70.77,6.88,2.01,6.87,2.00,-1.96,-1.73,-1.97,4.92,4.92,4.87
71.48,6.80,1.95,6.80,1.95,-1.93,-1.73,-1.94,4.87,4.87,4.85
72.19,6.72,1.89,6.72,1.89,-1.89,-1.72,-1.91,4.84,4.83,4.83
72.91,6.64,1.82,6.64,1.82,-1.84,-1.71,-1.88,4.80,4.80,4.82
73.64,6.56,1.76,6.56,1.76,-1.78,-1.70,-1.84,4.78,4.78,4.80
74.38,6.47,1.70,6.48,1.70,-1.72,-1.69,-1.81,4.75,4.76,4.77
75.12,6.39,1.66,6.39,1.66,-1.66,-1.68,-1.78,4.73,4.73,4.74
75.87,6.32,1.61,6.31,1.61,-1.61,-1.67,-1.74,4.70,4.70,4.70
76.63,6.23,1.57,6.23,1.57,-1.57,-1.66,-1.71,4.66,4.66,4.66
77.40,6.15,1.54,6.15,1.54,-1.54,-1.65,-1.68,4.62,4.62,4.62
78.17,6.08,1.50,6.08,1.50,-1.50,-1.64,-1.64,4.57,4.57,4.57
78.95,6.00,1.47,6.00,1.47,-1.47,-1.63,-1.61,4.53,4.53,4.53
79.74,5.92,1.44,5.92,1.44,-1.44,-1.63,-1.58,4.48,4.48,4.48
80.54,5.84,1.42,5.84,1.42,-1.41,-1.62,-1.55,4.43,4.43,4.42
81.35,5.76,1.40,5.76,1.39,-1.38,-1.61,-1.51,4.38,4.38,4.37
82.16,5.67,1.37,5.67,1.37,-1.36,-1.60,-1.48,4.31,4.31,4.30
82.98,5.59,1.35,5.59,1.34,-1.35,-1.59,-1.45,4.24,4.24,4.24
83.81,5.50,1.33,5.51,1.33,-1.35,-1.58,-1.42,4.15,4.16,4.18
84.65,5.44,1.33,5.44,1.34,-1.36,-1.58,-1.40,4.08,4.08,4.11
85.50,5.39,1.36,5.39,1.36,-1.38,-1.57,-1.37,4.01,4.01,4.04
86.35,5.36,1.40,5.36,1.40,-1.41,-1.56,-1.34,3.95,3.95,3.96
87.22,5.34,1.45,5.34,1.45,-1.45,-1.55,-1.32,3.89,3.89,3.89
88.09,5.32,1.50,5.31,1.50,-1.49,-1.54,-1.29,3.83,3.82,3.81
88.97,5.29,1.55,5.29,1.55,-1.53,-1.54,-1.27,3.76,3.76,3.74
89.86,5.26,1.58,5.25,1.58,-1.57,-1.53,-1.25,3.69,3.69,3.67
90.76,5.21,1.61,5.21,1.61,-1.60,-1.52,-1.23,3.61,3.61,3.61
91.66,5.17,1.62,5.17,1.62,-1.62,-1.51,-1.21,3.55,3.55,3.54
92.58,5.11,1.63,5.11,1.63,-1.63,-1.51,-1.19,3.48,3.48,3.48
93.51,5.05,1.63,5.05,1.63,-1.63,-1.50,-1.17,3.42,3.42,3.42
94.44,4.98,1.62,4.98,1.62,-1.62,-1.49,-1.15,3.36,3.36,3.36
95.39,4.91,1.61,4.91,1.61,-1.60,-1.48,-1.13,3.31,3.31,3.30
96.34,4.82,1.58,4.82,1.58,-1.56,-1.48,-1.12,3.26,3.26,3.24
97.30,4.73,1.54,4.74,1.54,-1.52,-1.47,-1.10,3.21,3.21,3.19
98.28,4.65,1.49,4.65,1.49,-1.48,-1.46,-1.09,3.17,3.17,3.16
99.26,4.57,1.44,4.57,1.44,-1.45,-1.45,-1.07,3.12,3.12,3.13
100.25,4.48,1.39,4.48,1.39,-1.42,-1.44,-1.06,3.07,3.07,3.10
101.25,4.40,1.36,4.40,1.36,-1.40,-1.44,-1.05,3.01,3.01,3.05
102.27,4.32,1.36,4.32,1.36,-1.39,-1.43,-1.04,2.94,2.94,2.97
103.29,4.25,1.37,4.25,1.37,-1.39,-1.42,-1.03,2.86,2.86,2.87
104.32,4.17,1.40,4.17,1.40,-1.39,-1.41,-1.02,2.77,2.78,2.77
105.37,4.09,1.43,4.09,1.42,-1.40,-1.40,-1.01,2.69,2.69,2.67
106.42,4.02,1.44,4.02,1.44,-1.42,-1.39,-1.00,2.61,2.61,2.58
107.48,3.95,1.44,3.95,1.44,-1.42,-1.38,-1.00,2.53,2.53,2.51
108.56,3.88,1.43,3.88,1.43,-1.43,-1.38,-0.99,2.45,2.45,2.44
109.64,3.80,1.42,3.80,1.42,-1.42,-1.37,-0.98,2.38,2.38,2.39
110.74,3.73,1.40,3.73,1.40,-1.41,-1.36,-0.98,2.32,2.32,2.33
111.85,3.66,1.38,3.66,1.39,-1.40,-1.35,-0.98,2.26,2.26,2.27
112.97,3.59,1.37,3.59,1.37,-1.38,-1.34,-0.97,2.22,2.21,2.22
114.10,3.52,1.35,3.52,1.35,-1.35,-1.32,-0.97,2.18,2.18,2.17
115.24,3.46,1.33,3.46,1.33,-1.32,-1.31,-0.97,2.14,2.14,2.13
116.39,3.40,1.29,3.40,1.29,-1.28,-1.30,-0.97,2.12,2.12,2.11
117.55,3.34,1.25,3.34,1.24,-1.23,-1.29,-0.97,2.11,2.11,2.09
118.73,3.27,1.19,3.27,1.19,-1.17,-1.28,-0.97,2.10,2.10,2.09
119.92,3.21,1.12,3.21,1.12,-1.11,-1.26,-0.97,2.10,2.10,2.09
121.12,3.15,1.05,3.15,1.05,-1.05,-1.25,-0.97,2.10,2.10,2.09
122.33,3.09,0.99,3.09,0.99,-0.99,-1.24,-0.97,2.09,2.09,2.10
123.55,3.02,0.93,3.02,0.93,-0.95,-1.22,-0.98,2.08,2.08,2.09
124.79,2.96,0.88,2.97,0.89,-0.91,-1.21,-0.98,2.05,2.06,2.08
126.03,2.91,0.86,2.91,0.86,-0.89,-1.19,-0.99,2.02,2.02,2.05
127.29,2.85,0.86,2.85,0.86,-0.88,-1.17,-0.99,1.97,1.97,2.00
128.57,2.80,0.88,2.80,0.88,-0.88,-1.16,-1.00,1.92,1.92,1.93
129.85,2.75,0.90,2.75,0.90,-0.89,-1.14,-1.00,1.86,1.85,1.85
131.15,2.70,0.93,2.70,0.93,-0.91,-1.12,-1.01,1.79,1.79,1.77
132.46,2.64,0.95,2.64,0.95,-0.92,-1.11,-1.02,1.72,1.72,1.70
133.79,2.59,0.95,2.59,0.95,-0.94,-1.09,-1.03,1.65,1.65,1.64
135.12,2.54,0.95,2.54,0.95,-0.95,-1.07,-1.04,1.59,1.59,1.58
136.48,2.49,0.95,2.49,0.95,-0.95,-1.05,-1.05,1.53,1.53,1.54
137.84,2.44,0.95,2.44,0.95,-0.96,-1.04,-1.06,1.48,1.48,1.49
139.22,2.39,0.95,2.39,0.95,-0.96,-1.02,-1.07,1.43,1.43,1.44
140.61,2.34,0.96,2.34,0.96,-0.96,-1.00,-1.09,1.37,1.37,1.38
142.02,2.29,0.97,2.29,0.97,-0.97,-0.99,-1.10,1.32,1.32,1.32
143.44,2.24,0.98,2.24,0.98,-0.98,-0.97,-1.11,1.26,1.26,1.26
144.87,2.20,1.00,2.20,0.99,-0.99,-0.96,-1.13,1.20,1.20,1.20
146.32,2.15,1.01,2.15,1.01,-1.00,-0.95,-1.14,1.15,1.15,1.14
147.78,2.11,1.02,2.11,1.02,-1.02,-0.93,-1.16,1.09,1.09,1.09
149.26,2.06,1.03,2.06,1.03,-1.03,-0.93,-1.18,1.03,1.03,1.03
150.75,2.02,1.05,2.02,1.05,-1.05,-0.92,-1.20,0.97,0.97,0.98
152.26,1.98,1.06,1.98,1.06,-1.06,-0.92,-1.22,0.92,0.92,0.92
153.78,1.94,1.08,1.94,1.08,-1.08,-0.92,-1.24,0.87,0.87,0.87
155.32,1.91,1.10,1.91,1.09,-1.09,-0.92,-1.26,0.82,0.82,0.81
156.88,1.87,1.11,1.87,1.11,-1.11,-0.93,-1.28,0.77,0.77,0.76
158.44,1.84,1.12,1.84,1.12,-1.12,-0.94,-1.31,0.72,0.72,0.71
160.03,1.80,1.14,1.80,1.14,-1.14,-0.95,-1.33,0.67,0.67,0.67
161.63,1.77,1.15,1.77,1.15,-1.15,-0.97,-1.36,0.62,0.62,0.62
163.24,1.74,1.16,1.74,1.16,-1.17,-0.99,-1.39,0.57,0.57,0.57
164.88,1.70,1.18,1.70,1.18,-1.18,-1.02,-1.42,0.52,0.52,0.52
166.53,1.67,1.20,1.67,1.20,-1.20,-1.04,-1.44,0.47,0.47,0.47
168.19,1.64,1.22,1.64,1.22,-1.22,-1.08,-1.48,0.43,0.43,0.42
169.87,1.62,1.24,1.62,1.24,-1.24,-1.11,-1.51,0.38,0.38,0.38
171.57,1.59,1.26,1.59,1.26,-1.26,-1.15,-1.54,0.33,0.33,0.33
173.29,1.56,1.28,1.56,1.28,-1.28,-1.19,-1.57,0.29,0.29,0.29
175.02,1.54,1.30,1.54,1.30,-1.30,-1.24,-1.61,0.24,0.24,0.24
176.77,1.52,1.32,1.52,1.32,-1.32,-1.29,-1.65,0.20,0.20,0.20
178.54,1.50,1.35,1.50,1.35,-1.35,-1.34,-1.69,0.15,0.15,0.15
180.32,1.48,1.38,1.48,1.38,-1.38,-1.39,-1.72,0.10,0.10,0.10
182.13,1.46,1.41,1.46,1.41,-1.41,-1.44,-1.76,0.05,0.05,0.05
183.95,1.44,1.44,1.44,1.44,-1.44,-1.50,-1.81,-0.00,-0.00,-0.00
185.79,1.42,1.48,1.42,1.48,-1.47,-1.55,-1.85,-0.05,-0.05,-0.06
187.65,1.41,1.51,1.41,1.51,-1.51,-1.61,-1.89,-0.10,-0.10,-0.11
189.52,1.40,1.55,1.40,1.55,-1.54,-1.66,-1.94,-0.15,-0.15,-0.15
191.42,1.39,1.58,1.39,1.58,-1.58,-1.72,-1.98,-0.19,-0.20,-0.20
193.33,1.38,1.62,1.38,1.62,-1.62,-1.78,-2.03,-0.24,-0.24,-0.24
195.27,1.38,1.66,1.38,1.66,-1.67,-1.84,-2.08,-0.29,-0.29,-0.28
197.22,1.38,1.71,1.38,1.71,-1.72,-1.89,-2.13,-0.34,-0.34,-0.33
199.19,1.38,1.76,1.38,1.76,-1.77,-1.95,-2.17,-0.39,-0.39,-0.38
201.18,1.39,1.82,1.39,1.82,-1.82,-2.00,-2.23,-0.43,-0.43,-0.43
203.19,1.40,1.88,1.40,1.88,-1.88,-2.06,-2.28,-0.48,-0.48,-0.48
205.23,1.41,1.94,1.41,1.94,-1.93,-2.12,-2.33,-0.52,-0.52,-0.53
207.28,1.43,2.00,1.43,2.00,-1.99,-2.17,-2.38,-0.57,-0.57,-0.57
209.35,1.44,2.05,1.44,2.05,-2.05,-2.22,-2.43,-0.61,-0.61,-0.61
211.44,1.46,2.10,1.46,2.10,-2.10,-2.28,-2.48,-0.65,-0.65,-0.65
213.56,1.47,2.16,1.47,2.16,-2.16,-2.33,-2.53,-0.69,-0.69,-0.68
215.69,1.49,2.21,1.49,2.21,-2.22,-2.38,-2.58,-0.73,-0.73,-0.72
217.85,1.51,2.27,1.51,2.27,-2.27,-2.43,-2.63,-0.77,-0.77,-0.76
220.03,1.52,2.33,1.52,2.33,-2.33,-2.48,-2.68,-0.81,-0.81,-0.81
222.23,1.54,2.39,1.54,2.39,-2.39,-2.53,-2.73,-0.85,-0.85,-0.85
224.45,1.55,2.45,1.55,2.45,-2.45,-2.57,-2.77,-0.90,-0.90,-0.90
226.70,1.56,2.51,1.56,2.51,-2.51,-2.62,-2.82,-0.94,-0.94,-0.95
228.96,1.58,2.57,1.58,2.57,-2.56,-2.67,-2.86,-0.99,-0.99,-0.99
231.25,1.59,2.62,1.59,2.62,-2.62,-2.71,-2.90,-1.03,-1.03,-1.03
233.57,1.60,2.68,1.60,2.68,-2.68,-2.76,-2.94,-1.08,-1.08,-1.08
235.90,1.62,2.74,1.62,2.74,-2.74,-2.80,-2.98,-1.12,-1.12,-1.12
238.26,1.64,2.80,1.64,2.80,-2.81,-2.84,-3.02,-1.17,-1.17,-1.16
240.64,1.66,2.87,1.66,2.87,-2.87,-2.89,-3.05,-1.21,-1.21,-1.21
243.05,1.69,2.93,1.69,2.93,-2.94,-2.93,-3.08,-1.25,-1.25,-1.25
245.48,1.71,3.00,1.71,3.00,-3.00,-2.97,-3.10,-1.29,-1.29,-1.29
247.93,1.74,3.07,1.74,3.07,-3.07,-3.01,-3.13,-1.33,-1.33,-1.33
250.41,1.76,3.13,1.76,3.13,-3.13,-3.05,-3.15,-1.37,-1.37,-1.38
252.92,1.78,3.20,1.78,3.20,-3.19,-3.09,-3.16,-1.41,-1.41,-1.42
255.45,1.80,3.25,1.80,3.25,-3.24,-3.12,-3.18,-1.45,-1.45,-1.46
258.00,1.81,3.30,1.81,3.30,-3.29,-3.16,-3.19,-1.49,-1.49,-1.49
260.58,1.81,3.34,1.81,3.34,-3.34,-3.20,-3.20,-1.53,-1.52,-1.53
263.19,1.82,3.38,1.82,3.38,-3.38,-3.23,-3.21,-1.56,-1.56,-1.56
265.82,1.82,3.41,1.82,3.41,-3.42,-3.27,-3.21,-1.60,-1.60,-1.60
268.48,1.81,3.45,1.81,3.45,-3.45,-3.30,-3.21,-1.63,-1.63,-1.63
271.16,1.81,3.47,1.81,3.47,-3.47,-3.34,-3.21,-1.67,-1.67,-1.67
273.87,1.80,3.50,1.80,3.50,-3.50,-3.37,-3.21,-1.70,-1.70,-1.70
276.61,1.78,3.52,1.78,3.52,-3.52,-3.40,-3.21,-1.74,-1.74,-1.74
279.38,1.77,3.55,1.77,3.55,-3.55,-3.43,-3.20,-1.77,-1.77,-1.77
282.17,1.76,3.57,1.76,3.57,-3.57,-3.47,-3.20,-1.81,-1.81,-1.81
284.99,1.74,3.58,1.74,3.59,-3.59,-3.50,-3.19,-1.85,-1.85,-1.84
287.84,1.73,3.61,1.73,3.61,-3.61,-3.53,-3.18,-1.88,-1.88,-1.88
290.72,1.71,3.63,1.71,3.63,-3.63,-3.56,-3.18,-1.92,-1.92,-1.92
293.63,1.70,3.65,1.70,3.65,-3.65,-3.58,-3.17,-1.95,-1.95,-1.95
296.57,1.69,3.68,1.69,3.68,-3.68,-3.61,-3.17,-1.99,-1.99,-1.99
299.53,1.67,3.70,1.67,3.70,-3.70,-3.64,-3.16,-2.03,-2.03,-2.03
302.53,1.66,3.73,1.66,3.73,-3.73,-3.67,-3.16,-2.06,-2.06,-2.06
305.55,1.65,3.75,1.65,3.75,-3.75,-3.69,-3.15,-2.10,-2.10,-2.10
308.61,1.63,3.77,1.63,3.77,-3.77,-3.72,-3.15,-2.14,-2.14,-2.14
311.69,1.62,3.79,1.62,3.79,-3.79,-3.74,-3.15,-2.17,-2.17,-2.17
314.81,1.60,3.81,1.60,3.81,-3.81,-3.77,-3.15,-2.21,-2.21,-2.21
317.96,1.59,3.83,1.59,3.83,-3.83,-3.79,-3.15,-2.24,-2.24,-2.24
321.14,1.58,3.85,1.58,3.85,-3.85,-3.81,-3.15,-2.27,-2.27,-2.27
324.35,1.56,3.86,1.56,3.86,-3.86,-3.84,-3.16,-2.30,-2.30,-2.30
327.59,1.55,3.88,1.55,3.88,-3.88,-3.86,-3.17,-2.33,-2.33,-2.33
330.87,1.54,3.90,1.54,3.90,-3.90,-3.88,-3.18,-2.36,-2.36,-2.36
334.18,1.53,3.92,1.53,3.92,-3.92,-3.90,-3.19,-2.39,-2.39,-2.39
337.52,1.51,3.94,1.51,3.94,-3.94,-3.92,-3.21,-2.43,-2.43,-2.43
340.90,1.50,3.96,1.50,3.96,-3.96,-3.94,-3.22,-2.46,-2.46,-2.46
344.30,1.48,3.98,1.48,3.98,-3.98,-3.96,-3.24,-2.50,-2.50,-2.50
347.75,1.46,4.00,1.46,4.00,-4.00,-3.97,-3.27,-2.53,-2.53,-2.53
351.23,1.45,4.02,1.45,4.02,-4.01,-3.99,-3.29,-2.56,-2.56,-2.57
354.74,1.44,4.04,1.44,4.03,-4.03,-4.01,-3.32,-2.60,-2.60,-2.60
358.28,1.42,4.05,1.42,4.05,-4.05,-4.02,-3.35,-2.63,-2.63,-2.63
361.87,1.41,4.06,1.41,4.06,-4.07,-4.04,-3.38,-2.66,-2.66,-2.66
365.49,1.39,4.08,1.39,4.08,-4.08,-4.05,-3.42,-2.69,-2.69,-2.68
369.14,1.38,4.09,1.38,4.09,-4.10,-4.06,-3.45,-2.72,-2.72,-2.71
372.83,1.36,4.11,1.36,4.11,-4.11,-4.08,-3.49,-2.75,-2.75,-2.75
376.56,1.35,4.13,1.35,4.13,-4.13,-4.09,-3.54,-2.78,-2.78,-2.78
380.33,1.33,4.14,1.33,4.14,-4.14,-4.10,-3.58,-2.81,-2.81,-2.81
384.13,1.31,4.16,1.31,4.16,-4.16,-4.11,-3.63,-2.85,-2.85,-2.85
387.97,1.30,4.17,1.30,4.17,-4.17,-4.12,-3.68,-2.88,-2.88,-2.88
391.85,1.28,4.18,1.28,4.19,-4.18,-4.13,-3.73,-2.91,-2.91,-2.91
395.77,1.26,4.20,1.26,4.20,-4.19,-4.14,-3.78,-2.93,-2.93,-2.94
399.73,1.24,4.21,1.24,4.20,-4.20,-4.15,-3.83,-2.96,-2.96,-2.96
403.72,1.23,4.21,1.23,4.21,-4.21,-4.15,-3.89,-2.98,-2.98,-2.98
407.76,1.21,4.21,1.21,4.21,-4.21,-4.16,-3.95,-3.01,-3.01,-3.01
411.84,1.19,4.21,1.19,4.21,-4.22,-4.16,-4.00,-3.03,-3.03,-3.03
415.96,1.17,4.22,1.17,4.22,-4.22,-4.17,-4.06,-3.05,-3.05,-3.05
420.12,1.15,4.22,1.15,4.22,-4.22,-4.17,-4.12,-3.07,-3.07,-3.07
424.32,1.12,4.22,1.12,4.22,-4.22,-4.18,-4.18,-3.09,-3.09,-3.10
428.56,1.10,4.22,1.10,4.22,-4.21,-4.18,-4.23,-3.11,-3.11,-3.12
432.85,1.08,4.21,1.08,4.21,-4.21,-4.18,-4.29,-3.13,-3.13,-3.13
437.18,1.06,4.21,1.06,4.21,-4.21,-4.18,-4.35,-3.15,-3.15,-3.15
441.55,1.04,4.20,1.04,4.20,-4.20,-4.18,-4.40,-3.17,-3.17,-3.16
445.96,1.02,4.20,1.02,4.20,-4.20,-4.18,-4.45,-3.18,-3.18,-3.18
450.42,1.00,4.19,1.00,4.19,-4.20,-4.18,-4.50,-3.20,-3.20,-3.20
454.93,0.98,4.20,0.98,4.20,-4.20,-4.18,-4.55,-3.22,-3.23,-3.22
459.48,0.95,4.20,0.95,4.20,-4.20,-4.18,-4.59,-3.25,-3.25,-3.25
464.07,0.93,4.21,0.93,4.21,-4.20,-4.17,-4.63,-3.27,-3.27,-3.27
468.71,0.91,4.21,0.91,4.21,-4.20,-4.17,-4.66,-3.29,-3.29,-3.30
473.40,0.89,4.20,0.89,4.20,-4.20,-4.16,-4.69,-3.31,-3.31,-3.32
478.13,0.86,4.19,0.86,4.19,-4.19,-4.16,-4.71,-3.33,-3.33,-3.33
482.91,0.84,4.18,0.84,4.18,-4.18,-4.15,-4.73,-3.34,-3.34,-3.35
487.74,0.81,4.17,0.81,4.17,-4.17,-4.14,-4.74,-3.36,-3.36,-3.36
492.62,0.79,4.16,0.79,4.16,-4.16,-4.14,-4.75,-3.37,-3.37,-3.37
497.55,0.76,4.14,0.77,4.14,-4.15,-4.13,-4.75,-3.38,-3.38,-3.38
502.52,0.74,4.13,0.74,4.13,-4.13,-4.12,-4.74,-3.39,-3.39,-3.39
507.55,0.72,4.12,0.72,4.12,-4.12,-4.11,-4.73,-3.40,-3.41,-3.40
