frequency,raw,error,smoothed,error_smoothed,equalization,parametric_eq,fixed_band_eq,equalized_raw,equalized_smoothed,target
20.00,9.99,1.19,10.02,1.22,-1.20,-0.98,-0.50,8.79,8.82,8.80
20.20,9.93,1.12,9.90,1.10,-1.03,-0.99,-0.51,8.89,8.87,8.80
20.40,9.82,1.02,9.79,0.98,-0.91,-1.00,-0.53,8.92,8.88,8.80
20.61,9.68,0.87,9.68,0.87,-0.82,-1.01,-0.54,8.86,8.86,8.81
20.81,9.53,0.71,9.53,0.71,-0.77,-1.02,-0.56,8.76,8.76,8.82
21.02,9.44,0.61,9.43,0.60,-0.76,-1.03,-0.58,8.68,8.68,8.83
21.23,9.41,0.56,9.44,0.59,-0.78,-1.04,-0.59,8.62,8.65,8.85
21.44,9.54,0.67,9.55,0.69,-0.85,-1.05,-0.61,8.69,8.70,8.86
21.66,9.78,0.90,9.77,0.89,-1.01,-1.06,-0.63,8.77,8.76,8.88
21.87,10.06,1.17,10.06,1.17,-1.21,-1.06,-0.65,8.84,8.85,8.89
22.09,10.36,1.47,10.36,1.47,-1.43,-1.07,-0.67,8.93,8.93,8.89
22.31,10.64,1.75,10.63,1.74,-1.63,-1.08,-0.69,9.01,9.00,8.89
22.54,10.84,1.95,10.83,1.94,-1.78,-1.09,-0.71,9.06,9.05,8.89
22.76,10.94,2.05,10.93,2.04,-1.86,-1.10,-0.73,9.07,9.06,8.88
22.99,10.93,2.05,10.91,2.03,-1.88,-1.11,-0.75,9.05,9.03,8.88
23.22,10.80,1.92,10.80,1.92,-1.83,-1.12,-0.77,8.97,8.97,8.88
23.45,10.64,1.75,10.64,1.75,-1.76,-1.13,-0.80,8.88,8.88,8.89
23.69,10.48,1.58,10.48,1.58,-1.69,-1.14,-0.82,8.79,8.79,8.91
23.92,10.37,1.45,10.39,1.46,-1.66,-1.15,-0.84,8.71,8.73,8.93
24.16,10.38,1.43,10.40,1.45,-1.67,-1.16,-0.87,8.71,8.73,8.95
24.40,10.50,1.53,10.52,1.55,-1.72,-1.18,-0.89,8.78,8.80,8.97
24.65,10.72,1.73,10.71,1.72,-1.79,-1.19,-0.92,8.92,8.92,8.99
24.89,10.95,1.94,10.95,1.94,-1.87,-1.20,-0.94,9.07,9.07,9.00
25.14,11.12,2.10,11.13,2.11,-1.93,-1.21,-0.97,9.18,9.19,9.01
25.39,11.23,2.21,11.19,2.17,-1.95,-1.22,-0.99,9.28,9.24,9.02
25.65,11.11,2.08,11.11,2.08,-1.91,-1.24,-1.02,9.20,9.20,9.03
25.91,10.86,1.82,10.85,1.82,-1.80,-1.25,-1.04,9.06,9.05,9.04
26.16,10.45,1.40,10.42,1.37,-1.59,-1.27,-1.07,8.85,8.82,9.05
26.43,9.88,0.82,9.87,0.81,-1.32,-1.28,-1.09,8.56,8.55,9.06
26.69,9.28,0.21,9.27,0.20,-1.02,-1.30,-1.12,8.26,8.25,9.07
26.96,8.74,-0.34,8.77,-0.31,-0.74,-1.32,-1.14,8.00,8.03,9.08
27.23,8.43,-0.66,8.49,-0.60,-0.52,-1.34,-1.16,7.90,7.97,9.09
27.50,8.48,-0.62,8.49,-0.61,-0.38,-1.37,-1.19,8.10,8.11,9.10
27.77,8.73,-0.37,8.72,-0.38,-0.32,-1.39,-1.21,8.41,8.40,9.10
28.05,9.09,-0.01,9.08,-0.02,-0.33,-1.42,-1.23,8.77,8.75,9.10
28.33,9.46,0.36,9.44,0.34,-0.40,-1.45,-1.25,9.06,9.04,9.10
28.62,9.77,0.67,9.75,0.65,-0.55,-1.48,-1.27,9.22,9.20,9.10
28.90,9.98,0.89,9.98,0.89,-0.76,-1.52,-1.29,9.23,9.22,9.09
29.19,10.16,1.08,10.16,1.08,-1.01,-1.56,-1.31,9.15,9.15,9.08
29.48,10.32,1.25,10.35,1.27,-1.30,-1.61,-1.32,9.03,9.05,9.07
29.78,10.56,1.49,10.56,1.50,-1.58,-1.66,-1.34,8.98,8.99,9.06
30.08,10.81,1.75,10.82,1.76,-1.81,-1.72,-1.35,9.00,9.01,9.06
30.38,11.10,2.04,11.10,2.04,-2.02,-1.77,-1.36,9.08,9.08,9.06
30.68,11.36,2.28,11.34,2.27,-2.19,-1.83,-1.37,9.16,9.15,9.07
30.99,11.53,2.44,11.52,2.43,-2.34,-1.89,-1.37,9.18,9.18,9.09
31.30,11.62,2.52,11.62,2.51,-2.46,-1.93,-1.38,9.16,9.16,9.11
31.61,11.65,2.53,11.65,2.53,-2.54,-1.97,-1.38,9.12,9.12,9.12
31.93,11.64,2.51,11.64,2.52,-2.56,-1.99,-1.38,9.08,9.08,9.12
32.24,11.60,2.48,11.61,2.49,-2.52,-2.00,-1.38,9.08,9.08,9.12
32.57,11.55,2.44,11.55,2.44,-2.43,-1.98,-1.38,9.11,9.12,9.11
32.89,11.47,2.37,11.46,2.37,-2.30,-1.95,-1.38,9.17,9.16,9.09
33.22,11.32,2.24,11.32,2.23,-2.13,-1.91,-1.37,9.19,9.19,9.09
33.55,11.14,2.06,11.12,2.04,-1.96,-1.86,-1.37,9.18,9.16,9.08
33.89,10.88,1.79,10.88,1.79,-1.79,-1.80,-1.36,9.09,9.09,9.08
34.23,10.64,1.55,10.64,1.55,-1.64,-1.75,-1.35,9.00,9.00,9.09
34.57,10.44,1.34,10.46,1.37,-1.51,-1.69,-1.34,8.93,8.95,9.10
34.92,10.36,1.26,10.37,1.27,-1.41,-1.64,-1.33,8.95,8.96,9.10
35.27,10.37,1.27,10.37,1.27,-1.35,-1.59,-1.32,9.03,9.03,9.10
35.62,10.42,1.33,10.42,1.32,-1.32,-1.55,-1.31,9.11,9.10,9.10
35.97,10.49,1.39,10.47,1.38,-1.32,-1.51,-1.29,9.16,9.15,9.09
36.33,10.50,1.41,10.50,1.41,-1.34,-1.48,-1.28,9.16,9.16,9.09
36.70,10.49,1.41,10.50,1.41,-1.35,-1.45,-1.27,9.14,9.14,9.09
37.06,10.47,1.39,10.48,1.39,-1.35,-1.42,-1.25,9.13,9.13,9.09
37.43,10.45,1.36,10.45,1.36,-1.31,-1.39,-1.24,9.13,9.13,9.09
37.81,10.39,1.30,10.39,1.30,-1.26,-1.37,-1.23,9.13,9.13,9.09
38.19,10.33,1.24,10.32,1.22,-1.21,-1.35,-1.21,9.13,9.11,9.10
38.57,10.23,1.13,10.23,1.13,-1.16,-1.33,-1.20,9.07,9.07,9.10
38.95,10.16,1.06,10.16,1.06,-1.14,-1.31,-1.19,9.01,9.01,9.10
39.34,10.10,1.00,10.12,1.02,-1.14,-1.29,-1.18,8.96,8.97,9.10
39.74,10.13,1.03,10.14,1.05,-1.15,-1.28,-1.16,8.97,8.99,9.10
40.14,10.20,1.11,10.21,1.12,-1.15,-1.26,-1.15,9.05,9.06,9.09
40.54,10.30,1.22,10.29,1.20,-1.13,-1.25,-1.14,9.17,9.15,9.08
40.94,10.32,1.25,10.32,1.24,-1.08,-1.23,-1.13,9.25,9.24,9.08
41.35,10.27,1.20,10.26,1.19,-0.99,-1.22,-1.12,9.28,9.27,9.07
41.76,10.12,1.06,10.10,1.03,-0.88,-1.21,-1.12,9.24,9.22,9.07
42.18,9.86,0.79,9.85,0.79,-0.75,-1.20,-1.11,9.10,9.10,9.06
42.60,9.60,0.53,9.60,0.53,-0.64,-1.18,-1.10,8.96,8.96,9.06
43.03,9.36,0.30,9.40,0.33,-0.55,-1.17,-1.10,8.82,8.85,9.06
43.46,9.30,0.24,9.32,0.26,-0.48,-1.16,-1.09,8.82,8.84,9.06
43.90,9.37,0.31,9.38,0.32,-0.46,-1.14,-1.09,8.91,8.92,9.06
44.33,9.53,0.48,9.53,0.47,-0.47,-1.13,-1.09,9.06,9.05,9.05
44.78,9.69,0.65,9.68,0.63,-0.51,-1.12,-1.09,9.18,9.16,9.05
45.23,9.79,0.75,9.77,0.73,-0.57,-1.11,-1.09,9.22,9.20,9.04
45.68,9.78,0.75,9.78,0.75,-0.61,-1.09,-1.09,9.17,9.17,9.03
46.13,9.72,0.70,9.73,0.70,-0.63,-1.08,-1.09,9.09,9.10,9.02
46.60,9.64,0.63,9.65,0.63,-0.62,-1.06,-1.09,9.02,9.02,9.01
47.06,9.57,0.56,9.57,0.56,-0.60,-1.05,-1.09,8.97,8.97,9.01
47.53,9.51,0.51,9.51,0.51,-0.57,-1.04,-1.09,8.94,8.94,9.00
48.01,9.48,0.49,9.48,0.49,-0.57,-1.02,-1.10,8.91,8.91,8.99
48.49,9.48,0.50,9.49,0.51,-0.59,-1.01,-1.10,8.89,8.90,8.98
48.97,9.56,0.58,9.56,0.59,-0.65,-0.99,-1.11,8.90,8.91,8.97
49.46,9.66,0.70,9.67,0.70,-0.74,-0.98,-1.11,8.93,8.93,8.96
49.96,9.80,0.85,9.79,0.84,-0.84,-0.96,-1.12,8.97,8.96,8.95
50.46,9.92,0.97,9.92,0.97,-0.93,-0.95,-1.13,8.99,8.99,8.95
50.96,10.02,1.08,10.02,1.08,-1.01,-0.93,-1.13,9.01,9.01,8.94
51.47,10.08,1.15,10.07,1.14,-1.07,-0.91,-1.14,9.02,9.00,8.93
51.99,10.08,1.16,10.07,1.15,-1.10,-0.89,-1.15,8.98,8.97,8.92
52.51,10.03,1.12,10.02,1.12,-1.11,-0.88,-1.15,8.91,8.91,8.91
53.03,9.94,1.05,9.95,1.05,-1.09,-0.86,-1.16,8.85,8.86,8.90
53.56,9.86,0.98,9.87,0.99,-1.04,-0.84,-1.16,8.82,8.83,8.88
54.10,9.81,0.93,9.82,0.94,-0.97,-0.82,-1.17,8.84,8.85,8.87
54.64,9.76,0.90,9.76,0.90,-0.87,-0.80,-1.17,8.89,8.89,8.86
55.18,9.70,0.85,9.68,0.83,-0.76,-0.78,-1.18,8.94,8.92,8.85
55.74,9.56,0.73,9.55,0.72,-0.65,-0.76,-1.18,8.91,8.90,8.83
56.29,9.39,0.58,9.39,0.58,-0.54,-0.74,-1.18,8.85,8.85,8.81
56.86,9.21,0.41,9.22,0.42,-0.45,-0.72,-1.18,8.76,8.76,8.80
57.42,9.08,0.30,9.08,0.30,-0.38,-0.70,-1.17,8.71,8.70,8.78
58.00,8.98,0.22,9.00,0.24,-0.33,-0.67,-1.17,8.65,8.67,8.76
58.58,9.00,0.25,8.99,0.25,-0.31,-0.65,-1.16,8.68,8.68,8.75
59.16,9.03,0.30,9.03,0.30,-0.33,-0.63,-1.15,8.70,8.70,8.73
59.76,9.10,0.39,9.10,0.39,-0.38,-0.60,-1.14,8.72,8.72,8.71
60.35,9.18,0.48,9.18,0.48,-0.46,-0.58,-1.13,8.72,8.72,8.70
60.96,9.26,0.57,9.26,0.57,-0.55,-0.55,-1.11,8.71,8.71,8.68
61.57,9.33,0.66,9.33,0.66,-0.64,-0.53,-1.09,8.69,8.68,8.67
62.18,9.39,0.73,9.38,0.73,-0.72,-0.50,-1.07,8.67,8.66,8.66
62.80,9.42,0.78,9.43,0.78,-0.77,-0.47,-1.04,8.65,8.66,8.64
63.43,9.44,0.81,9.45,0.82,-0.79,-0.44,-1.01,8.65,8.66,8.63
64.07,9.44,0.83,9.44,0.83,-0.78,-0.42,-0.98,8.67,8.66,8.61
64.71,9.40,0.80,9.39,0.79,-0.74,-0.39,-0.95,8.66,8.65,8.60
65.35,9.30,0.72,9.30,0.72,-0.68,-0.36,-0.91,8.62,8.62,8.58
66.01,9.18,0.61,9.18,0.61,-0.61,-0.33,-0.87,8.57,8.56,8.57
66.67,9.04,0.49,9.05,0.50,-0.54,-0.29,-0.83,8.50,8.51,8.55
67.33,8.94,0.40,8.94,0.41,-0.47,-0.26,-0.78,8.47,8.47,8.54
68.01,8.86,0.35,8.87,0.35,-0.40,-0.23,-0.73,8.46,8.47,8.52
68.69,8.83,0.34,8.83,0.33,-0.35,-0.20,-0.68,8.49,8.48,8.50
69.37,8.80,0.32,8.80,0.32,-0.30,-0.16,-0.63,8.50,8.49,8.48
70.07,8.76,0.31,8.76,0.30,-0.27,-0.13,-0.58,8.49,8.48,8.46
70.77,8.71,0.28,8.71,0.28,-0.26,-0.09,-0.52,8.45,8.45,8.43
71.48,8.67,0.26,8.67,0.26,-0.25,-0.06,-0.46,8.41,8.41,8.41
72.19,8.62,0.24,8.62,0.24,-0.25,-0.02,-0.40,8.37,8.37,8.39
72.91,8.59,0.23,8.59,0.23,-0.26,0.02,-0.34,8.33,8.33,8.36
73.64,8.57,0.24,8.57,0.24,-0.27,0.06,-0.28,8.30,8.30,8.33
74.38,8.56,0.26,8.56,0.26,-0.28,0.10,-0.21,8.29,8.29,8.31
75.12,8.56,0.28,8.56,0.28,-0.28,0.14,-0.14,8.28,8.28,8.28
75.87,8.55,0.30,8.55,0.30,-0.28,0.18,-0.08,8.27,8.27,8.25
76.63,8.51,0.30,8.52,0.30,-0.26,0.22,-0.01,8.25,8.25,8.22
77.40,8.47,0.28,8.46,0.27,-0.23,0.26,0.06,8.24,8.23,8.19
78.17,8.37,0.21,8.37,0.21,-0.18,0.30,0.13,8.19,8.20,8.16
78.95,8.27,0.13,8.26,0.13,-0.11,0.35,0.21,8.15,8.15,8.14
79.74,8.14,0.02,8.14,0.03,-0.03,0.39,0.28,8.10,8.11,8.11
80.54,8.01,-0.07,8.01,-0.07,0.05,0.44,0.35,8.07,8.07,8.09
81.35,7.89,-0.17,7.89,-0.16,0.14,0.49,0.43,8.03,8.03,8.06
82.16,7.79,-0.24,7.79,-0.24,0.22,0.53,0.50,8.01,8.01,8.03
82.98,7.69,-0.31,7.69,-0.31,0.29,0.58,0.58,7.98,7.98,8.00
83.81,7.60,-0.37,7.60,-0.36,0.35,0.63,0.66,7.95,7.95,7.97
84.65,7.53,-0.41,7.53,-0.41,0.40,0.68,0.73,7.93,7.93,7.94
85.50,7.47,-0.44,7.47,-0.44,0.45,0.73,0.81,7.91,7.91,7.91
86.35,7.41,-0.47,7.41,-0.47,0.49,0.78,0.89,7.90,7.90,7.88
87.22,7.34,-0.51,7.34,-0.51,0.54,0.83,0.97,7.87,7.87,7.85
88.09,7.25,-0.57,7.25,-0.57,0.58,0.89,1.06,7.83,7.83,7.82
88.97,7.15,-0.63,7.15,-0.63,0.63,0.94,1.14,7.78,7.78,7.79
89.86,7.05,-0.70,7.05,-0.70,0.67,1.00,1.22,7.72,7.73,7.76
90.76,6.96,-0.76,6.96,-0.76,0.73,1.05,1.30,7.69,7.69,7.72
91.66,6.88,-0.81,6.88,-0.81,0.79,1.11,1.39,7.67,7.67,7.69
92.58,6.80,-0.85,6.80,-0.85,0.87,1.17,1.47,7.67,7.67,7.65
93.51,6.71,-0.91,6.71,-0.91,0.95,1.22,1.56,7.67,7.66,7.62
94.44,6.60,-1.00,6.59,-1.00,1.05,1.28,1.65,7.65,7.65,7.60
95.39,6.45,-1.12,6.45,-1.13,1.16,1.34,1.73,7.61,7.61,7.58
96.34,6.29,-1.27,6.29,-1.27,1.28,1.40,1.82,7.57,7.57,7.56
97.30,6.13,-1.43,6.14,-1.43,1.40,1.46,1.91,7.53,7.54,7.56
98.28,5.99,-1.57,5.99,-1.56,1.53,1.53,2.00,7.51,7.52,7.56
99.26,5.86,-1.68,5.86,-1.68,1.65,1.59,2.09,7.51,7.51,7.54
100.25,5.73,-1.77,5.73,-1.78,1.78,1.65,2.18,7.51,7.50,7.50
101.25,5.59,-1.86,5.59,-1.87,1.88,1.72,2.27,7.48,7.47,7.45
102.27,5.44,-1.96,5.44,-1.97,1.98,1.78,2.36,7.42,7.42,7.41
103.29,5.29,-2.07,5.29,-2.07,2.06,1.84,2.45,7.35,7.35,7.36
104.32,5.15,-2.17,5.16,-2.16,2.13,1.91,2.53,7.27,7.28,7.32
105.37,5.05,-2.22,5.05,-2.22,2.19,1.98,2.62,7.24,7.24,7.27
106.42,4.96,-2.27,4.96,-2.26,2.26,2.04,2.71,7.21,7.22,7.23
107.48,4.88,-2.30,4.88,-2.30,2.32,2.11,2.79,7.21,7.20,7.18
108.56,4.79,-2.35,4.79,-2.36,2.40,2.18,2.88,7.18,7.18,7.14
109.64,4.68,-2.43,4.68,-2.43,2.47,2.24,2.96,7.15,7.15,7.11
110.74,4.55,-2.53,4.55,-2.53,2.56,2.31,3.04,7.10,7.10,7.08
111.85,4.41,-2.65,4.41,-2.64,2.65,2.38,3.11,7.06,7.06,7.06
112.97,4.27,-2.76,4.27,-2.76,2.75,2.45,3.19,7.02,7.02,7.03
114.10,4.14,-2.87,4.14,-2.87,2.85,2.52,3.26,6.99,6.99,7.01
115.24,4.01,-2.97,4.01,-2.97,2.96,2.58,3.32,6.97,6.97,6.98
116.39,3.89,-3.06,3.89,-3.06,3.05,2.65,3.39,6.94,6.94,6.95
117.55,3.77,-3.14,3.77,-3.14,3.13,2.72,3.45,6.90,6.90,6.91
118.73,3.66,-3.21,3.66,-3.21,3.20,2.79,3.50,6.86,6.86,6.87
119.92,3.56,-3.27,3.56,-3.27,3.26,2.86,3.55,6.83,6.83,6.83
121.12,3.47,-3.32,3.48,-3.32,3.31,2.92,3.60,6.79,6.79,6.79
122.33,3.40,-3.35,3.39,-3.36,3.36,2.99,3.64,6.75,6.75,6.75
123.55,3.32,-3.39,3.32,-3.39,3.39,3.06,3.67,6.71,6.71,6.70
124.79,3.24,-3.42,3.24,-3.41,3.42,3.12,3.70,6.66,6.66,6.65
126.03,3.16,-3.44,3.16,-3.44,3.45,3.18,3.73,6.61,6.61,6.60
127.29,3.09,-3.47,3.08,-3.47,3.47,3.25,3.74,6.56,6.55,6.55
128.57,3.01,-3.49,3.00,-3.49,3.49,3.31,3.76,6.50,6.50,6.50
129.85,2.92,-3.52,2.92,-3.52,3.52,3.37,3.77,6.44,6.44,6.45
131.15,2.84,-3.55,2.85,-3.55,3.55,3.43,3.77,6.39,6.39,6.39
132.46,2.77,-3.57,2.77,-3.57,3.57,3.49,3.77,6.34,6.34,6.34
133.79,2.69,-3.60,2.69,-3.60,3.60,3.55,3.77,6.29,6.29,6.29
135.12,2.61,-3.63,2.61,-3.63,3.64,3.60,3.76,6.24,6.24,6.24
136.48,2.52,-3.67,2.53,-3.67,3.68,3.66,3.75,6.20,6.20,6.20
137.84,2.45,-3.71,2.45,-3.71,3.72,3.71,3.73,6.17,6.17,6.16
139.22,2.39,-3.75,2.38,-3.75,3.77,3.76,3.71,6.15,6.15,6.14
140.61,2.32,-3.80,2.32,-3.81,3.82,3.81,3.69,6.14,6.14,6.13
142.02,2.26,-3.86,2.26,-3.86,3.87,3.86,3.67,6.13,6.12,6.12
143.44,2.20,-3.92,2.20,-3.92,3.91,3.90,3.65,6.11,6.11,6.12
144.87,2.14,-3.98,2.15,-3.97,3.95,3.94,3.62,6.09,6.09,6.12
146.32,2.11,-4.01,2.11,-4.01,3.98,3.98,3.59,6.09,6.09,6.11
147.78,2.07,-4.03,2.08,-4.02,4.02,4.02,3.57,6.09,6.09,6.10
149.26,2.05,-4.02,2.05,-4.03,4.04,4.05,3.54,6.10,6.09,6.08
150.75,2.02,-4.03,2.01,-4.04,4.06,4.09,3.51,6.08,6.08,6.05
152.26,1.96,-4.05,1.96,-4.06,4.08,4.11,3.49,6.04,6.03,6.01
153.78,1.89,-4.08,1.89,-4.08,4.08,4.14,3.46,5.97,5.97,5.97
155.32,1.81,-4.11,1.82,-4.10,4.08,4.17,3.44,5.89,5.90,5.92
156.88,1.76,-4.11,1.77,-4.11,4.07,4.19,3.42,5.84,5.84,5.87
158.44,1.73,-4.09,1.73,-4.09,4.07,4.21,3.40,5.79,5.80,5.82
160.03,1.71,-4.06,1.71,-4.06,4.06,4.23,3.37,5.77,5.76,5.77
161.63,1.69,-4.03,1.68,-4.03,4.05,4.24,3.36,5.73,5.73,5.71
163.24,1.65,-4.01,1.65,-4.01,4.04,4.25,3.34,5.69,5.68,5.66
164.88,1.60,-4.00,1.59,-4.01,4.03,4.26,3.33,5.63,5.62,5.60
166.53,1.53,-4.02,1.53,-4.02,4.03,4.27,3.31,5.56,5.56,5.55
168.19,1.45,-4.04,1.46,-4.04,4.04,4.27,3.31,5.49,5.49,5.49
169.87,1.38,-4.06,1.38,-4.06,4.05,4.27,3.30,5.43,5.43,5.44
171.57,1.31,-4.08,1.31,-4.08,4.08,4.27,3.30,5.38,5.38,5.39
173.29,1.23,-4.10,1.23,-4.10,4.10,4.27,3.29,5.33,5.33,5.34
175.02,1.16,-4.12,1.16,-4.12,4.12,4.26,3.29,5.28,5.28,5.28
176.77,1.09,-4.14,1.09,-4.14,4.14,4.26,3.30,5.23,5.23,5.22
178.54,1.02,-4.15,1.02,-4.15,4.16,4.25,3.30,5.18,5.18,5.17
180.32,0.95,-4.17,0.95,-4.17,4.17,4.24,3.31,5.12,5.12,5.11
182.13,0.88,-4.18,0.88,-4.18,4.17,4.23,3.32,5.06,5.06,5.06
183.95,0.83,-4.18,0.83,-4.18,4.17,4.21,3.33,4.99,4.99,5.01
185.79,0.79,-4.17,0.79,-4.17,4.15,4.20,3.35,4.94,4.94,4.96
187.65,0.76,-4.15,0.76,-4.15,4.13,4.18,3.37,4.89,4.89,4.91
189.52,0.75,-4.11,0.75,-4.11,4.10,4.16,3.39,4.85,4.85,4.86
191.42,0.75,-4.06,0.75,-4.06,4.06,4.15,3.41,4.82,4.82,4.82
193.33,0.75,-4.02,0.75,-4.02,4.03,4.13,3.44,4.78,4.78,4.77
195.27,0.74,-3.98,0.74,-3.98,4.00,4.11,3.47,4.75,4.75,4.72
197.22,0.72,-3.96,0.72,-3.96,3.99,4.09,3.50,4.70,4.70,4.68
199.19,0.68,-3.96,0.68,-3.96,3.98,4.06,3.53,4.66,4.66,4.63
201.18,0.62,-3.96,0.62,-3.97,3.98,4.04,3.56,4.60,4.60,4.58
203.19,0.55,-3.98,0.54,-3.99,3.99,4.02,3.59,4.54,4.54,4.53
205.23,0.46,-4.02,0.46,-4.02,4.01,4.00,3.63,4.47,4.47,4.47
207.28,0.38,-4.04,0.38,-4.04,4.02,3.98,3.66,4.40,4.40,4.42
209.35,0.31,-4.06,0.31,-4.06,4.03,3.95,3.70,4.34,4.34,4.37
211.44,0.26,-4.06,0.26,-4.05,4.03,3.93,3.73,4.29,4.30,4.32
213.56,0.23,-4.04,0.23,-4.04,4.03,3.91,3.77,4.26,4.26,4.27
215.69,0.20,-4.01,0.20,-4.01,4.02,3.89,3.80,4.22,4.22,4.22
217.85,0.18,-3.99,0.17,-3.99,4.00,3.87,3.84,4.18,4.18,4.17
220.03,0.14,-3.97,0.14,-3.97,3.99,3.85,3.87,4.13,4.13,4.12
222.23,0.11,-3.96,0.11,-3.96,3.97,3.82,3.90,4.07,4.07,4.06
224.45,0.07,-3.95,0.07,-3.95,3.95,3.80,3.93,4.02,4.02,4.01
226.70,0.03,-3.93,0.03,-3.93,3.93,3.78,3.95,3.96,3.96,3.96
228.96,-0.00,-3.91,-0.00,-3.91,3.91,3.76,3.98,3.91,3.91,3.91
231.25,-0.03,-3.89,-0.03,-3.89,3.89,3.74,4.00,3.86,3.86,3.86
233.57,-0.06,-3.87,-0.06,-3.87,3.87,3.72,4.01,3.81,3.81,3.81
235.90,-0.08,-3.84,-0.08,-3.84,3.84,3.70,4.02,3.76,3.76,3.76
238.26,-0.10,-3.81,-0.10,-3.81,3.81,3.68,4.03,3.71,3.71,3.71
240.64,-0.12,-3.78,-0.12,-3.77,3.77,3.65,4.03,3.66,3.66,3.66
243.05,-0.13,-3.74,-0.13,-3.74,3.74,3.63,4.03,3.61,3.61,3.61
245.48,-0.14,-3.70,-0.14,-3.70,3.70,3.61,4.02,3.56,3.56,3.55
247.93,-0.15,-3.66,-0.15,-3.66,3.66,3.58,4.01,3.51,3.51,3.50
250.41,-0.16,-3.62,-0.16,-3.62,3.62,3.56,3.99,3.45,3.45,3.45
252.92,-0.18,-3.58,-0.18,-3.58,3.58,3.53,3.97,3.40,3.40,3.40
255.45,-0.19,-3.54,-0.19,-3.54,3.53,3.50,3.94,3.35,3.35,3.35
258.00,-0.20,-3.49,-0.20,-3.49,3.49,3.47,3.90,3.29,3.30,3.30
260.58,-0.20,-3.45,-0.20,-3.45,3.45,3.44,3.86,3.25,3.25,3.25
263.19,-0.21,-3.40,-0.21,-3.40,3.40,3.40,3.81,3.20,3.20,3.19
265.82,-0.21,-3.35,-0.21,-3.35,3.36,3.36,3.76,3.15,3.15,3.14
268.48,-0.22,-3.31,-0.22,-3.31,3.31,3.33,3.71,3.09,3.09,3.09
271.16,-0.23,-3.27,-0.23,-3.27,3.26,3.28,3.65,3.03,3.03,3.04
273.87,-0.24,-3.22,-0.24,-3.22,3.21,3.24,3.58,2.98,2.98,2.98
276.61,-0.24,-3.17,-0.24,-3.17,3.16,3.19,3.51,2.92,2.92,2.93
279.38,-0.23,-3.11,-0.23,-3.11,3.10,3.14,3.44,2.87,2.87,2.88
282.17,-0.22,-3.04,-0.22,-3.04,3.04,3.09,3.37,2.83,2.83,2.82
284.99,-0.20,-2.97,-0.20,-2.98,2.98,3.03,3.29,2.78,2.78,2.77
287.84,-0.19,-2.91,-0.19,-2.91,2.91,2.98,3.21,2.72,2.72,2.72
290.72,-0.18,-2.85,-0.18,-2.85,2.85,2.92,3.13,2.67,2.67,2.66
293.63,-0.17,-2.78,-0.17,-2.78,2.78,2.86,3.05,2.61,2.61,2.61
296.57,-0.15,-2.71,-0.15,-2.71,2.71,2.79,2.96,2.55,2.55,2.56
299.53,-0.14,-2.64,-0.14,-2.64,2.64,2.73,2.88,2.50,2.50,2.50
302.53,-0.12,-2.57,-0.12,-2.57,2.56,2.66,2.79,2.45,2.45,2.45
305.55,-0.10,-2.50,-0.10,-2.50,2.49,2.59,2.71,2.40,2.40,2.40
308.61,-0.08,-2.42,-0.08,-2.42,2.43,2.53,2.62,2.35,2.35,2.35
311.69,-0.05,-2.36,-0.05,-2.36,2.36,2.46,2.53,2.31,2.31,2.30
314.81,-0.03,-2.29,-0.03,-2.30,2.30,2.39,2.45,2.27,2.27,2.26
317.96,-0.01,-2.24,-0.01,-2.24,2.25,2.32,2.36,2.24,2.24,2.23
321.14,0.01,-2.20,0.01,-2.20,2.20,2.25,2.28,2.21,2.21,2.21
324.35,0.03,-2.16,0.03,-2.16,2.16,2.18,2.19,2.19,2.19,2.19
327.59,0.05,-2.12,0.05,-2.12,2.12,2.11,2.11,2.18,2.18,2.18
330.87,0.08,-2.09,0.08,-2.09,2.08,2.04,2.03,2.16,2.16,2.16
334.18,0.10,-2.05,0.10,-2.05,2.04,1.97,1.94,2.15,2.15,2.15
337.52,0.12,-2.01,0.12,-2.01,2.00,1.90,1.86,2.13,2.13,2.13
340.90,0.14,-1.97,0.14,-1.96,1.96,1.84,1.78,2.10,2.10,2.11
344.30,0.17,-1.91,0.17,-1.91,1.91,1.77,1.71,2.07,2.07,2.08
347.75,0.19,-1.85,0.19,-1.85,1.85,1.70,1.63,2.04,2.04,2.04
351.23,0.21,-1.79,0.21,-1.79,1.79,1.64,1.55,2.00,2.00,2.00
354.74,0.23,-1.72,0.23,-1.72,1.73,1.58,1.48,1.96,1.96,1.96
358.28,0.25,-1.66,0.25,-1.66,1.66,1.51,1.40,1.91,1.91,1.91
361.87,0.27,-1.59,0.27,-1.59,1.59,1.45,1.33,1.87,1.87,1.86
365.49,0.30,-1.52,0.30,-1.52,1.52,1.39,1.26,1.82,1.82,1.82
369.14,0.32,-1.45,0.32,-1.45,1.45,1.33,1.18,1.77,1.77,1.77
372.83,0.34,-1.39,0.34,-1.38,1.38,1.28,1.11,1.72,1.72,1.72
376.56,0.36,-1.32,0.36,-1.32,1.32,1.22,1.05,1.68,1.68,1.68
380.33,0.38,-1.25,0.38,-1.25,1.25,1.16,0.98,1.63,1.63,1.63
384.13,0.41,-1.18,0.41,-1.18,1.18,1.11,0.91,1.59,1.59,1.59
387.97,0.43,-1.11,0.43,-1.11,1.11,1.05,0.85,1.54,1.54,1.54
391.85,0.46,-1.04,0.46,-1.04,1.04,1.00,0.78,1.50,1.50,1.50
395.77,0.48,-0.97,0.48,-0.97,0.98,0.95,0.72,1.46,1.46,1.45
399.73,0.50,-0.91,0.50,-0.91,0.91,0.90,0.66,1.41,1.41,1.41
403.72,0.52,-0.85,0.52,-0.85,0.85,0.85,0.60,1.37,1.37,1.37
407.76,0.54,-0.78,0.54,-0.78,0.78,0.80,0.54,1.32,1.33,1.33
411.84,0.56,-0.72,0.56,-0.72,0.72,0.75,0.48,1.28,1.28,1.28
415.96,0.57,-0.67,0.57,-0.67,0.67,0.71,0.42,1.24,1.24,1.24
420.12,0.59,-0.61,0.59,-0.61,0.61,0.66,0.37,1.20,1.20,1.20
424.32,0.60,-0.56,0.60,-0.56,0.56,0.62,0.31,1.16,1.16,1.16
428.56,0.61,-0.50,0.61,-0.50,0.51,0.57,0.26,1.12,1.12,1.12
432.85,0.62,-0.46,0.62,-0.46,0.46,0.53,0.21,1.08,1.08,1.08
437.18,0.63,-0.41,0.63,-0.41,0.41,0.48,0.16,1.04,1.04,1.04
441.55,0.64,-0.37,0.64,-0.37,0.37,0.44,0.12,1.00,1.00,1.00
445.96,0.64,-0.32,0.64,-0.32,0.32,0.40,0.07,0.97,0.97,0.97
450.42,0.65,-0.28,0.65,-0.28,0.28,0.36,0.03,0.93,0.93,0.93
454.93,0.66,-0.24,0.66,-0.24,0.24,0.32,-0.02,0.90,0.89,0.90
459.48,0.66,-0.20,0.66,-0.20,0.20,0.28,-0.06,0.86,0.86,0.86
464.07,0.67,-0.16,0.67,-0.16,0.16,0.24,-0.09,0.82,0.82,0.82
468.71,0.67,-0.12,0.67,-0.12,0.12,0.20,-0.13,0.79,0.79,0.79
473.40,0.67,-0.08,0.67,-0.08,0.08,0.16,-0.16,0.75,0.75,0.75
478.13,0.68,-0.04,0.68,-0.04,0.04,0.12,-0.19,0.72,0.72,0.72
482.91,0.68,-0.00,0.68,-0.00,0.00,0.09,-0.22,0.68,0.68,0.68
487.74,0.68,0.03,0.68,0.03,-0.03,0.05,-0.24,0.65,0.65,0.65
492.62,0.69,0.07,0.69,0.07,-0.07,0.01,-0.27,0.62,0.62,0.62
497.55,0.69,0.10,0.69,0.10,-0.10,-0.02,-0.29,0.58,0.58,0.58
502.52,0.69,0.13,0.69,0.14,-0.13,-0.06,-0.30,0.55,0.55,0.55
507.55,0.68,0.16,0.68,0.16,-0.16,-0.09,-0.32,0.52,0.52,0.52
512.62,0.68,0.19,0.68,0.19,-0.19,-0.12,-0.33,0.49,0.49,0.49
517.75,0.68,0.22,0.68,0.22,-0.22,-0.16,-0.34,0.46,0.46,0.46
522.93,0.67,0.24,0.67,0.24,-0.24,-0.19,-0.35,0.43,0.43,0.43
528.16,0.66,0.26,0.66,0.26,-0.27,-0.22,-0.36,0.40,0.40,0.40
533.44,0.66,0.29,0.66,0.29,-0.29,-0.25,-0.36,0.37,0.37,0.37
538.77,0.65,0.31,0.65,0.31,-0.31,-0.27,-0.36,0.34,0.34,0.34
544.16,0.64,0.33,0.64,0.33,-0.33,-0.30,-0.36,0.31,0.31,0.31
