frequency,raw,error,smoothed,error_smoothed,equalization,parametric_eq,fixed_band_eq,equalized_raw,equalized_smoothed,target
20.00,13.11,8.39,13.11,8.39,-8.36,-8.36,-3.45,4.75,4.74,4.71
20.20,13.10,8.39,13.10,8.39,-8.39,-8.43,-3.54,4.71,4.71,4.71
20.40,13.10,8.40,13.10,8.40,-8.42,-8.49,-3.64,4.68,4.68,4.70
20.61,13.09,8.42,13.09,8.42,-8.44,-8.53,-3.74,4.66,4.65,4.68
20.81,13.08,8.44,13.08,8.44,-8.45,-8.56,-3.84,4.63,4.63,4.64
21.02,13.07,8.46,13.07,8.46,-8.46,-8.58,-3.95,4.60,4.60,4.61
21.23,13.05,8.48,13.05,8.47,-8.47,-8.59,-4.06,4.58,4.58,4.58
21.44,13.04,8.48,13.04,8.48,-8.47,-8.59,-4.17,4.57,4.57,4.56
21.66,13.03,8.48,13.03,8.48,-8.48,-8.59,-4.29,4.55,4.55,4.55
21.87,13.02,8.47,13.02,8.47,-8.47,-8.58,-4.41,4.54,4.55,4.54
22.09,13.00,8.46,13.00,8.46,-8.46,-8.57,-4.53,4.54,4.54,4.55
22.31,12.99,8.44,12.99,8.44,-8.44,-8.56,-4.66,4.55,4.55,4.55
22.54,12.98,8.41,12.98,8.41,-8.42,-8.54,-4.78,4.56,4.56,4.56
22.76,12.96,8.38,12.96,8.39,-8.38,-8.51,-4.92,4.58,4.58,4.58
22.99,12.94,8.35,12.94,8.35,-8.34,-8.49,-5.05,4.60,4.60,4.59
23.22,12.92,8.30,12.92,8.30,-8.29,-8.44,-5.19,4.63,4.63,4.62
23.45,12.90,8.25,12.90,8.25,-8.24,-8.40,-5.33,4.67,4.67,4.65
23.69,12.88,8.18,12.88,8.18,-8.17,-8.34,-5.48,4.71,4.71,4.70
23.92,12.86,8.11,12.86,8.11,-8.11,-8.28,-5.63,4.76,4.76,4.75
24.16,12.84,8.04,12.84,8.04,-8.04,-8.21,-5.78,4.81,4.81,4.80
24.40,12.82,7.97,12.82,7.97,-7.97,-8.14,-5.93,4.85,4.85,4.85
24.65,12.80,7.90,12.80,7.90,-7.91,-8.07,-6.09,4.90,4.90,4.91
24.89,12.78,7.84,12.78,7.84,-7.85,-8.01,-6.25,4.93,4.93,4.94
25.14,12.76,7.80,12.76,7.80,-7.82,-7.94,-6.41,4.95,4.95,4.97
25.39,12.74,7.77,12.74,7.77,-7.79,-7.87,-6.57,4.95,4.95,4.98
25.65,12.73,7.77,12.73,7.77,-7.79,-7.81,-6.74,4.94,4.94,4.96
25.91,12.71,7.77,12.71,7.78,-7.79,-7.76,-6.90,4.92,4.92,4.94
26.16,12.69,7.79,12.69,7.80,-7.80,-7.71,-7.07,4.89,4.90,4.90
26.43,12.68,7.82,12.68,7.82,-7.81,-7.66,-7.23,4.87,4.87,4.86
26.69,12.67,7.83,12.67,7.83,-7.81,-7.61,-7.40,4.86,4.86,4.83
26.96,12.65,7.84,12.65,7.83,-7.80,-7.57,-7.56,4.85,4.85,4.82
27.23,12.64,7.82,12.64,7.81,-7.78,-7.54,-7.72,4.85,4.85,4.82
27.50,12.62,7.77,12.62,7.77,-7.75,-7.50,-7.88,4.87,4.87,4.84
27.77,12.59,7.71,12.59,7.71,-7.70,-7.47,-8.03,4.89,4.89,4.88
28.05,12.57,7.64,12.57,7.64,-7.65,-7.44,-8.18,4.92,4.92,4.92
28.33,12.54,7.57,12.54,7.58,-7.59,-7.41,-8.32,4.95,4.95,4.96
28.62,12.51,7.51,12.51,7.52,-7.54,-7.39,-8.46,4.97,4.97,5.00
28.90,12.49,7.47,12.49,7.47,-7.49,-7.37,-8.58,4.99,4.99,5.02
29.19,12.46,7.44,12.46,7.44,-7.46,-7.34,-8.70,5.01,5.01,5.03
29.48,12.44,7.42,12.44,7.42,-7.43,-7.32,-8.80,5.01,5.01,5.02
29.78,12.42,7.41,12.42,7.41,-7.41,-7.30,-8.90,5.00,5.01,5.01
30.08,12.39,7.40,12.39,7.40,-7.40,-7.28,-8.97,5.00,5.00,4.99
30.38,12.37,7.40,12.37,7.40,-7.38,-7.27,-9.04,4.98,4.98,4.97
30.68,12.34,7.39,12.34,7.39,-7.37,-7.25,-9.09,4.97,4.97,4.95
30.99,12.30,7.36,12.31,7.36,-7.35,-7.23,-9.13,4.96,4.96,4.94
31.30,12.27,7.33,12.27,7.33,-7.32,-7.21,-9.15,4.95,4.95,4.94
31.61,12.24,7.29,12.24,7.29,-7.29,-7.19,-9.16,4.95,4.95,4.95
31.93,12.21,7.25,12.21,7.25,-7.25,-7.18,-9.14,4.95,4.95,4.96
32.24,12.18,7.21,12.18,7.21,-7.22,-7.16,-9.12,4.96,4.96,4.97
32.57,12.15,7.17,12.15,7.17,-7.18,-7.14,-9.08,4.97,4.97,4.98
32.89,12.13,7.15,12.12,7.15,-7.15,-7.12,-9.04,4.97,4.97,4.98
33.22,12.10,7.12,12.10,7.12,-7.12,-7.10,-8.97,4.98,4.98,4.98
33.55,12.07,7.10,12.07,7.10,-7.09,-7.08,-8.90,4.98,4.98,4.98
33.89,12.04,7.07,12.04,7.07,-7.06,-7.06,-8.81,4.98,4.98,4.98
34.23,12.01,7.04,12.01,7.04,-7.03,-7.04,-8.72,4.98,4.98,4.98
34.57,11.98,7.00,11.98,7.00,-7.00,-7.02,-8.61,4.98,4.98,4.98
34.92,11.95,6.97,11.95,6.97,-6.97,-7.00,-8.51,4.97,4.97,4.98
35.27,11.91,6.94,11.91,6.94,-6.94,-6.98,-8.39,4.97,4.97,4.98
35.62,11.88,6.91,11.88,6.91,-6.92,-6.95,-8.27,4.96,4.96,4.97
35.97,11.85,6.88,11.85,6.88,-6.88,-6.93,-8.15,4.96,4.96,4.96
36.33,11.81,6.86,11.81,6.86,-6.85,-6.91,-8.02,4.96,4.96,4.95
36.70,11.78,6.83,11.78,6.83,-6.82,-6.88,-7.89,4.96,4.96,4.95
37.06,11.75,6.80,11.75,6.80,-6.79,-6.86,-7.77,4.96,4.96,4.95
37.43,11.71,6.75,11.71,6.75,-6.75,-6.83,-7.64,4.96,4.96,4.96
37.81,11.68,6.71,11.68,6.71,-6.72,-6.80,-7.51,4.96,4.96,4.97
38.19,11.64,6.67,11.64,6.67,-6.69,-6.78,-7.38,4.95,4.95,4.98
38.57,11.61,6.64,11.61,6.65,-6.66,-6.75,-7.26,4.95,4.95,4.96
38.95,11.57,6.62,11.57,6.63,-6.62,-6.72,-7.14,4.95,4.95,4.95
39.34,11.53,6.61,11.53,6.60,-6.59,-6.69,-7.02,4.95,4.95,4.93
39.74,11.49,6.57,11.49,6.57,-6.55,-6.66,-6.90,4.94,4.94,4.92
40.14,11.45,6.53,11.45,6.53,-6.51,-6.63,-6.79,4.94,4.94,4.93
40.54,11.41,6.47,11.41,6.47,-6.48,-6.60,-6.68,4.94,4.94,4.95
40.94,11.38,6.42,11.38,6.42,-6.44,-6.57,-6.57,4.94,4.94,4.96
41.35,11.34,6.38,11.34,6.38,-6.40,-6.54,-6.47,4.93,4.93,4.96
41.76,11.30,6.35,11.30,6.35,-6.37,-6.50,-6.37,4.93,4.93,4.94
42.18,11.26,6.33,11.26,6.33,-6.33,-6.47,-6.28,4.92,4.92,4.92
42.60,11.22,6.32,11.22,6.31,-6.30,-6.44,-6.19,4.92,4.92,4.90
43.03,11.18,6.29,11.18,6.29,-6.27,-6.40,-6.10,4.91,4.91,4.89
43.46,11.13,6.25,11.13,6.25,-6.24,-6.37,-6.02,4.90,4.90,4.88
43.90,11.09,6.21,11.09,6.21,-6.21,-6.33,-5.94,4.89,4.89,4.88
44.33,11.05,6.17,11.05,6.17,-6.17,-6.30,-5.87,4.88,4.88,4.89
44.78,11.01,6.12,11.01,6.12,-6.14,-6.26,-5.80,4.87,4.87,4.89
45.23,10.97,6.09,10.97,6.09,-6.11,-6.23,-5.74,4.86,4.86,4.88
45.68,10.92,6.07,10.92,6.07,-6.07,-6.19,-5.68,4.85,4.85,4.85
46.13,10.88,6.06,10.88,6.05,-6.04,-6.15,-5.63,4.84,4.84,4.82
46.60,10.83,6.03,10.83,6.02,-6.01,-6.12,-5.57,4.82,4.82,4.81
47.06,10.79,5.99,10.79,5.99,-5.98,-6.08,-5.53,4.81,4.81,4.80
47.53,10.75,5.95,10.75,5.95,-5.96,-6.04,-5.48,4.79,4.79,4.80
48.01,10.71,5.92,10.71,5.92,-5.93,-6.01,-5.44,4.77,4.77,4.78
48.49,10.66,5.90,10.66,5.90,-5.91,-5.97,-5.41,4.76,4.76,4.76
48.97,10.62,5.87,10.62,5.87,-5.88,-5.93,-5.38,4.75,4.75,4.75
49.46,10.58,5.84,10.58,5.85,-5.84,-5.89,-5.35,4.74,4.74,4.74
49.96,10.54,5.83,10.54,5.83,-5.81,-5.85,-5.32,4.73,4.73,4.72
50.46,10.50,5.80,10.50,5.80,-5.78,-5.81,-5.30,4.72,4.72,4.70
50.96,10.46,5.76,10.46,5.75,-5.75,-5.78,-5.28,4.71,4.71,4.69
51.47,10.42,5.69,10.42,5.70,-5.71,-5.74,-5.26,4.71,4.71,4.72
51.99,10.37,5.65,10.37,5.66,-5.67,-5.70,-5.25,4.70,4.70,4.73
52.51,10.33,5.63,10.33,5.63,-5.64,-5.66,-5.24,4.69,4.69,4.70
53.03,10.28,5.62,10.28,5.60,-5.60,-5.62,-5.23,4.69,4.69,4.66
53.56,10.23,5.56,10.23,5.56,-5.56,-5.58,-5.22,4.68,4.68,4.67
54.10,10.19,5.51,10.19,5.53,-5.53,-5.55,-5.21,4.65,4.65,4.67
54.64,10.14,5.48,10.14,5.49,-5.51,-5.51,-5.20,4.63,4.63,4.65
55.18,10.09,5.49,10.09,5.46,-5.48,-5.47,-5.19,4.61,4.61,4.60
55.74,10.04,5.42,10.04,5.43,-5.44,-5.43,-5.19,4.60,4.60,4.62
56.29,9.99,5.38,9.99,5.40,-5.38,-5.39,-5.18,4.61,4.61,4.61
56.86,9.95,5.38,9.95,5.39,-5.32,-5.35,-5.17,4.62,4.62,4.56
57.42,9.90,5.36,9.90,5.36,-5.27,-5.32,-5.16,4.63,4.63,4.54
58.00,9.85,5.33,9.85,5.24,-5.22,-5.28,-5.16,4.63,4.63,4.52
58.58,9.80,5.07,9.80,5.10,-5.18,-5.24,-5.15,4.62,4.62,4.73
59.16,9.76,4.92,9.76,5.02,-5.15,-5.21,-5.13,4.61,4.61,4.83
59.76,9.71,5.04,9.71,5.03,-5.12,-5.17,-5.12,4.59,4.59,4.67
60.35,9.67,5.15,9.67,5.11,-5.10,-5.13,-5.10,4.57,4.57,4.52
60.96,9.62,5.20,9.62,5.16,-5.08,-5.10,-5.09,4.54,4.54,4.42
61.57,9.57,5.11,9.57,5.14,-5.07,-5.06,-5.07,4.50,4.50,4.46
62.18,9.52,5.08,9.52,5.10,-5.07,-5.02,-5.04,4.45,4.45,4.44
62.80,9.47,5.08,9.47,5.06,-5.06,-4.99,-5.02,4.41,4.41,4.39
63.43,9.42,5.03,9.42,5.03,-5.04,-4.95,-4.99,4.38,4.38,4.39
64.07,9.37,4.97,9.37,4.99,-5.00,-4.92,-4.96,4.36,4.36,4.40
64.71,9.32,4.94,9.32,4.94,-4.95,-4.88,-4.92,4.36,4.36,4.37
65.35,9.26,4.91,9.26,4.91,-4.91,-4.85,-4.89,4.35,4.35,4.35
66.01,9.21,4.89,9.21,4.88,-4.87,-4.82,-4.85,4.34,4.34,4.33
66.67,9.16,4.85,9.16,4.84,-4.84,-4.78,-4.81,4.32,4.32,4.31
67.33,9.11,4.81,9.11,4.80,-4.81,-4.75,-4.77,4.29,4.29,4.30
68.01,9.05,4.76,9.05,4.77,-4.79,-4.72,-4.72,4.27,4.27,4.29
68.69,9.00,4.75,9.00,4.75,-4.76,-4.68,-4.68,4.24,4.24,4.25
69.37,8.94,4.74,8.94,4.74,-4.73,-4.65,-4.63,4.21,4.21,4.21
70.07,8.89,4.73,8.89,4.72,-4.71,-4.62,-4.59,4.18,4.18,4.16
70.77,8.83,4.70,8.83,4.70,-4.68,-4.59,-4.54,4.15,4.15,4.13
71.48,8.77,4.66,8.77,4.67,-4.66,-4.56,-4.49,4.12,4.12,4.11
72.19,8.72,4.63,8.72,4.63,-4.64,-4.53,-4.44,4.08,4.08,4.09
72.91,8.66,4.60,8.66,4.60,-4.61,-4.50,-4.39,4.05,4.05,4.06
73.64,8.60,4.58,8.60,4.58,-4.59,-4.47,-4.35,4.01,4.01,4.02
74.38,8.54,4.56,8.54,4.56,-4.56,-4.44,-4.30,3.98,3.98,3.98
75.12,8.48,4.53,8.48,4.54,-4.54,-4.42,-4.25,3.94,3.94,3.95
75.87,8.42,4.52,8.42,4.52,-4.51,-4.39,-4.21,3.91,3.91,3.90
76.63,8.36,4.51,8.36,4.50,-4.48,-4.36,-4.17,3.88,3.88,3.86
77.40,8.30,4.48,8.30,4.48,-4.46,-4.34,-4.13,3.84,3.84,3.82
78.17,8.24,4.44,8.24,4.44,-4.44,-4.31,-4.09,3.80,3.80,3.80
78.95,8.18,4.41,8.18,4.41,-4.43,-4.29,-4.05,3.75,3.75,3.77
79.74,8.12,4.37,8.12,4.39,-4.42,-4.26,-4.01,3.69,3.69,3.75
80.54,8.05,4.38,8.05,4.37,-4.42,-4.24,-3.98,3.63,3.63,3.67
81.35,7.99,4.40,7.99,4.36,-4.41,-4.21,-3.95,3.58,3.58,3.60
82.16,7.93,4.34,7.93,4.42,-4.39,-4.19,-3.92,3.54,3.54,3.59
82.98,7.86,4.41,7.86,4.44,-4.36,-4.17,-3.89,3.50,3.50,3.45
83.81,7.80,4.56,7.80,4.40,-4.32,-4.15,-3.87,3.48,3.48,3.23
84.65,7.73,4.26,7.73,4.33,-4.27,-4.12,-3.85,3.46,3.46,3.47
85.50,7.66,4.14,7.66,4.21,-4.21,-4.10,-3.83,3.45,3.45,3.52
86.35,7.59,4.14,7.60,4.08,-4.16,-4.08,-3.82,3.44,3.44,3.46
87.22,7.53,4.03,7.53,4.04,-4.10,-4.06,-3.81,3.43,3.43,3.50
88.09,7.46,3.99,7.46,4.01,-4.04,-4.04,-3.80,3.42,3.42,3.47
88.97,7.39,3.99,7.39,3.98,-3.99,-4.03,-3.79,3.40,3.40,3.41
89.86,7.33,3.97,7.33,3.98,-3.96,-4.01,-3.79,3.37,3.37,3.35
90.76,7.26,3.97,7.26,3.96,-3.95,-3.99,-3.79,3.32,3.32,3.29
91.66,7.20,3.95,7.20,3.95,-3.94,-3.97,-3.79,3.27,3.26,3.25
92.58,7.14,3.92,7.14,3.94,-3.93,-3.96,-3.79,3.21,3.21,3.22
93.51,7.08,3.95,7.08,3.93,-3.92,-3.94,-3.80,3.16,3.16,3.13
94.44,7.02,3.91,7.02,3.90,-3.90,-3.93,-3.81,3.12,3.12,3.10
95.39,6.96,3.87,6.96,3.89,-3.89,-3.91,-3.82,3.08,3.08,3.09
96.34,6.91,3.86,6.91,3.86,-3.87,-3.90,-3.84,3.04,3.04,3.05
97.30,6.86,3.87,6.86,3.85,-3.86,-3.88,-3.85,3.00,3.00,2.99
98.28,6.80,3.84,6.80,3.85,-3.85,-3.87,-3.87,2.96,2.96,2.96
99.26,6.75,3.83,6.75,3.84,-3.84,-3.86,-3.89,2.91,2.91,2.92
100.25,6.70,3.83,6.70,3.83,-3.84,-3.84,-3.92,2.87,2.87,2.87
101.25,6.65,3.83,6.66,3.83,-3.84,-3.83,-3.94,2.82,2.82,2.82
102.27,6.61,3.84,6.61,3.84,-3.83,-3.82,-3.97,2.77,2.77,2.77
103.29,6.56,3.84,6.56,3.84,-3.83,-3.81,-3.99,2.73,2.73,2.71
104.32,6.50,3.83,6.50,3.83,-3.82,-3.80,-4.02,2.68,2.68,2.68
105.37,6.44,3.82,6.44,3.82,-3.81,-3.79,-4.05,2.63,2.63,2.62
106.42,6.38,3.81,6.38,3.80,-3.80,-3.78,-4.08,2.58,2.58,2.57
107.48,6.32,3.77,6.32,3.78,-3.79,-3.77,-4.11,2.52,2.53,2.55
108.56,6.26,3.76,6.26,3.77,-3.78,-3.76,-4.13,2.47,2.47,2.49
109.64,6.19,3.77,6.19,3.77,-3.77,-3.75,-4.16,2.42,2.42,2.43
110.74,6.13,3.78,6.13,3.76,-3.76,-3.74,-4.19,2.37,2.37,2.36
111.85,6.08,3.75,6.08,3.76,-3.75,-3.73,-4.21,2.32,2.32,2.33
112.97,6.02,3.74,6.02,3.74,-3.74,-3.73,-4.24,2.28,2.28,2.28
114.10,5.96,3.74,5.96,3.73,-3.73,-3.72,-4.26,2.23,2.23,2.22
115.24,5.91,3.72,5.90,3.72,-3.71,-3.71,-4.28,2.19,2.19,2.18
116.39,5.85,3.71,5.85,3.71,-3.70,-3.70,-4.30,2.15,2.15,2.14
117.55,5.79,3.69,5.79,3.68,-3.68,-3.70,-4.31,2.10,2.10,2.10
118.73,5.72,3.66,5.72,3.66,-3.67,-3.69,-4.32,2.06,2.06,2.06
119.92,5.66,3.63,5.66,3.64,-3.65,-3.68,-4.32,2.01,2.01,2.03
121.12,5.60,3.62,5.60,3.63,-3.64,-3.68,-4.33,1.96,1.96,1.98
122.33,5.54,3.63,5.54,3.62,-3.62,-3.67,-4.33,1.91,1.91,1.91
123.55,5.47,3.61,5.47,3.61,-3.61,-3.66,-4.32,1.86,1.86,1.86
124.79,5.41,3.59,5.41,3.60,-3.60,-3.66,-4.31,1.82,1.81,1.82
126.03,5.35,3.59,5.35,3.59,-3.58,-3.65,-4.30,1.77,1.77,1.76
127.29,5.29,3.58,5.29,3.58,-3.57,-3.64,-4.28,1.72,1.72,1.71
128.57,5.23,3.56,5.23,3.57,-3.56,-3.64,-4.26,1.67,1.67,1.67
129.85,5.17,3.55,5.17,3.55,-3.54,-3.63,-4.23,1.63,1.63,1.62
131.15,5.11,3.53,5.11,3.52,-3.53,-3.62,-4.20,1.58,1.58,1.58
132.46,5.06,3.50,5.06,3.50,-3.52,-3.62,-4.16,1.53,1.53,1.56
133.79,5.00,3.48,5.00,3.50,-3.52,-3.61,-4.13,1.48,1.48,1.52
135.12,4.95,3.52,4.94,3.51,-3.51,-3.60,-4.08,1.44,1.44,1.43
136.48,4.89,3.53,4.89,3.51,-3.51,-3.59,-4.04,1.39,1.39,1.36
137.84,4.84,3.50,4.84,3.52,-3.50,-3.59,-3.99,1.34,1.34,1.34
139.22,4.79,3.51,4.79,3.51,-3.50,-3.58,-3.94,1.29,1.29,1.29
140.61,4.75,3.51,4.75,3.50,-3.50,-3.57,-3.89,1.25,1.25,1.24
142.02,4.70,3.50,4.70,3.50,-3.50,-3.56,-3.84,1.20,1.20,1.20
143.44,4.66,3.49,4.66,3.49,-3.50,-3.55,-3.78,1.16,1.16,1.17
144.87,4.62,3.48,4.62,3.49,-3.50,-3.54,-3.73,1.12,1.12,1.13
146.32,4.57,3.50,4.57,3.49,-3.50,-3.53,-3.67,1.07,1.07,1.08
147.78,4.53,3.51,4.53,3.50,-3.50,-3.52,-3.62,1.03,1.03,1.02
149.26,4.49,3.51,4.49,3.51,-3.50,-3.51,-3.56,0.99,0.99,0.98
150.75,4.45,3.51,4.45,3.51,-3.50,-3.50,-3.50,0.95,0.95,0.94
152.26,4.41,3.51,4.41,3.51,-3.50,-3.49,-3.45,0.91,0.91,0.90
153.78,4.37,3.50,4.37,3.50,-3.50,-3.48,-3.39,0.87,0.87,0.87
155.32,4.33,3.49,4.33,3.49,-3.50,-3.46,-3.34,0.82,0.82,0.84
156.88,4.28,3.48,4.28,3.48,-3.50,-3.45,-3.28,0.78,0.78,0.80
158.44,4.24,3.49,4.24,3.49,-3.50,-3.44,-3.23,0.74,0.74,0.75
160.03,4.20,3.50,4.20,3.51,-3.49,-3.42,-3.18,0.71,0.70,0.69
161.63,4.15,3.51,4.15,3.51,-3.48,-3.40,-3.13,0.67,0.67,0.64
163.24,4.10,3.50,4.10,3.49,-3.47,-3.39,-3.08,0.63,0.63,0.61
164.88,4.06,3.45,4.05,3.46,-3.46,-3.37,-3.04,0.60,0.60,0.60
166.53,4.00,3.43,4.00,3.43,-3.44,-3.35,-2.99,0.56,0.56,0.57
168.19,3.95,3.41,3.95,3.41,-3.42,-3.34,-2.95,0.53,0.53,0.54
169.87,3.90,3.39,3.90,3.39,-3.40,-3.32,-2.91,0.50,0.50,0.51
171.57,3.85,3.37,3.85,3.38,-3.38,-3.30,-2.88,0.47,0.47,0.47
173.29,3.79,3.36,3.79,3.36,-3.36,-3.28,-2.84,0.43,0.43,0.43
175.02,3.73,3.34,3.73,3.34,-3.33,-3.25,-2.81,0.40,0.40,0.39
176.77,3.67,3.31,3.67,3.32,-3.31,-3.23,-2.77,0.36,0.36,0.36
178.54,3.62,3.29,3.62,3.29,-3.29,-3.21,-2.75,0.33,0.33,0.33
180.32,3.55,3.26,3.55,3.26,-3.26,-3.19,-2.72,0.30,0.30,0.29
182.13,3.49,3.23,3.49,3.23,-3.23,-3.16,-2.69,0.27,0.27,0.26
183.95,3.43,3.19,3.43,3.19,-3.19,-3.14,-2.67,0.24,0.24,0.24
185.79,3.37,3.15,3.37,3.15,-3.16,-3.11,-2.65,0.21,0.21,0.22
187.65,3.31,3.12,3.31,3.12,-3.13,-3.08,-2.63,0.19,0.19,0.19
189.52,3.25,3.08,3.25,3.09,-3.09,-3.05,-2.61,0.16,0.16,0.16
191.42,3.19,3.05,3.19,3.05,-3.05,-3.03,-2.60,0.14,0.14,0.13
193.33,3.13,3.02,3.13,3.02,-3.01,-3.00,-2.58,0.11,0.11,0.11
195.27,3.07,2.98,3.07,2.98,-2.97,-2.97,-2.57,0.09,0.09,0.08
197.22,3.01,2.94,3.01,2.94,-2.94,-2.94,-2.56,0.07,0.07,0.07
199.19,2.94,2.89,2.94,2.89,-2.90,-2.90,-2.55,0.05,0.05,0.05
201.18,2.88,2.85,2.88,2.85,-2.86,-2.87,-2.54,0.03,0.03,0.03
203.19,2.82,2.81,2.82,2.81,-2.82,-2.84,-2.54,0.01,0.01,0.01
205.23,2.76,2.78,2.76,2.78,-2.77,-2.81,-2.53,-0.01,-0.01,-0.02
207.28,2.70,2.74,2.70,2.74,-2.73,-2.77,-2.52,-0.03,-0.03,-0.04
209.35,2.64,2.69,2.64,2.70,-2.69,-2.74,-2.52,-0.05,-0.05,-0.05
211.44,2.58,2.65,2.58,2.65,-2.65,-2.70,-2.52,-0.07,-0.07,-0.07
213.56,2.52,2.61,2.52,2.60,-2.61,-2.66,-2.51,-0.08,-0.08,-0.08
215.69,2.46,2.56,2.46,2.56,-2.56,-2.63,-2.51,-0.10,-0.10,-0.09
217.85,2.40,2.51,2.41,2.51,-2.51,-2.59,-2.51,-0.11,-0.11,-0.11
220.03,2.35,2.47,2.35,2.47,-2.47,-2.55,-2.50,-0.12,-0.12,-0.12
222.23,2.29,2.42,2.29,2.42,-2.42,-2.51,-2.50,-0.13,-0.13,-0.13
224.45,2.23,2.37,2.23,2.37,-2.37,-2.47,-2.49,-0.14,-0.14,-0.14
226.70,2.17,2.32,2.17,2.32,-2.32,-2.43,-2.49,-0.15,-0.15,-0.15
228.96,2.11,2.27,2.11,2.27,-2.27,-2.39,-2.48,-0.16,-0.16,-0.17
231.25,2.04,2.22,2.04,2.22,-2.21,-2.35,-2.47,-0.17,-0.17,-0.18
233.57,1.98,2.17,1.98,2.17,-2.16,-2.31,-2.46,-0.17,-0.17,-0.18
235.90,1.92,2.11,1.92,2.10,-2.10,-2.27,-2.45,-0.18,-0.18,-0.19
238.26,1.86,2.04,1.86,2.04,-2.05,-2.23,-2.43,-0.19,-0.19,-0.18
240.64,1.80,1.98,1.80,1.99,-2.00,-2.18,-2.42,-0.19,-0.20,-0.18
243.05,1.75,1.96,1.75,1.95,-1.95,-2.14,-2.40,-0.20,-0.20,-0.21
245.48,1.69,1.91,1.69,1.91,-1.91,-2.10,-2.37,-0.21,-0.21,-0.22
247.93,1.65,1.87,1.65,1.87,-1.87,-2.05,-2.35,-0.22,-0.22,-0.22
250.41,1.60,1.83,1.61,1.83,-1.84,-2.01,-2.32,-0.24,-0.23,-0.23
252.92,1.57,1.80,1.57,1.81,-1.82,-1.96,-2.29,-0.24,-0.24,-0.23
255.45,1.55,1.79,1.55,1.79,-1.79,-1.92,-2.26,-0.25,-0.25,-0.24
258.00,1.53,1.77,1.53,1.77,-1.77,-1.87,-2.23,-0.25,-0.25,-0.24
260.58,1.52,1.76,1.51,1.76,-1.76,-1.83,-2.19,-0.24,-0.24,-0.24
263.19,1.50,1.75,1.50,1.75,-1.74,-1.78,-2.15,-0.24,-0.24,-0.25
265.82,1.48,1.73,1.48,1.72,-1.72,-1.73,-2.11,-0.24,-0.24,-0.25
268.48,1.46,1.69,1.46,1.70,-1.69,-1.69,-2.06,-0.24,-0.24,-0.24
271.16,1.42,1.67,1.42,1.66,-1.66,-1.64,-2.02,-0.24,-0.24,-0.24
273.87,1.39,1.63,1.39,1.63,-1.63,-1.59,-1.97,-0.24,-0.24,-0.24
276.61,1.34,1.58,1.34,1.59,-1.58,-1.54,-1.91,-0.24,-0.24,-0.24
279.38,1.30,1.55,1.30,1.54,-1.54,-1.50,-1.86,-0.24,-0.24,-0.25
282.17,1.25,1.49,1.25,1.49,-1.49,-1.45,-1.81,-0.24,-0.24,-0.24
284.99,1.20,1.44,1.20,1.44,-1.44,-1.40,-1.75,-0.24,-0.24,-0.24
287.84,1.15,1.39,1.15,1.39,-1.39,-1.35,-1.69,-0.24,-0.24,-0.24
290.72,1.10,1.34,1.10,1.34,-1.34,-1.30,-1.64,-0.24,-0.24,-0.23
293.63,1.05,1.29,1.05,1.29,-1.29,-1.25,-1.58,-0.24,-0.24,-0.23
296.57,1.01,1.24,1.01,1.24,-1.24,-1.20,-1.52,-0.23,-0.23,-0.23
299.53,0.96,1.20,0.96,1.19,-1.19,-1.15,-1.46,-0.23,-0.23,-0.24
302.53,0.91,1.14,0.91,1.14,-1.14,-1.10,-1.40,-0.23,-0.23,-0.23
305.55,0.86,1.09,0.86,1.09,-1.09,-1.05,-1.33,-0.22,-0.22,-0.22
308.61,0.82,1.04,0.82,1.04,-1.04,-1.00,-1.27,-0.22,-0.22,-0.22
311.69,0.77,0.99,0.77,0.99,-0.99,-0.95,-1.21,-0.22,-0.22,-0.21
314.81,0.73,0.94,0.73,0.94,-0.94,-0.90,-1.15,-0.21,-0.21,-0.21
317.96,0.68,0.89,0.68,0.89,-0.89,-0.85,-1.09,-0.21,-0.21,-0.20
321.14,0.64,0.84,0.64,0.84,-0.84,-0.80,-1.02,-0.20,-0.20,-0.20
324.35,0.60,0.80,0.60,0.80,-0.80,-0.75,-0.96,-0.20,-0.20,-0.20
327.59,0.56,0.75,0.56,0.75,-0.75,-0.69,-0.90,-0.19,-0.19,-0.20
330.87,0.51,0.70,0.51,0.71,-0.71,-0.64,-0.84,-0.19,-0.19,-0.19
334.18,0.47,0.66,0.47,0.66,-0.66,-0.59,-0.78,-0.19,-0.19,-0.19
337.52,0.43,0.61,0.43,0.61,-0.61,-0.54,-0.71,-0.18,-0.18,-0.18
340.90,0.39,0.57,0.39,0.57,-0.57,-0.50,-0.65,-0.18,-0.18,-0.18
344.30,0.35,0.52,0.35,0.52,-0.52,-0.45,-0.59,-0.17,-0.17,-0.17
347.75,0.31,0.48,0.31,0.48,-0.48,-0.40,-0.53,-0.16,-0.16,-0.17
351.23,0.27,0.43,0.27,0.43,-0.43,-0.35,-0.47,-0.16,-0.16,-0.16
354.74,0.23,0.39,0.23,0.38,-0.38,-0.30,-0.41,-0.15,-0.15,-0.16
358.28,0.20,0.33,0.20,0.34,-0.34,-0.26,-0.35,-0.14,-0.14,-0.13
361.87,0.16,0.29,0.16,0.29,-0.30,-0.21,-0.29,-0.14,-0.14,-0.13
365.49,0.12,0.26,0.12,0.25,-0.26,-0.17,-0.23,-0.14,-0.14,-0.14
369.14,0.08,0.21,0.08,0.22,-0.22,-0.12,-0.18,-0.13,-0.13,-0.13
372.83,0.05,0.18,0.05,0.18,-0.18,-0.08,-0.12,-0.13,-0.13,-0.13
376.56,0.01,0.14,0.01,0.14,-0.14,-0.04,-0.06,-0.13,-0.13,-0.13
380.33,-0.02,0.10,-0.02,0.10,-0.10,0.01,-0.00,-0.12,-0.12,-0.12
384.13,-0.06,0.06,-0.06,0.06,-0.06,0.05,0.06,-0.12,-0.12,-0.12
387.97,-0.09,0.03,-0.09,0.02,-0.02,0.09,0.11,-0.11,-0.11,-0.12
391.85,-0.13,-0.02,-0.13,-0.02,0.02,0.12,0.17,-0.11,-0.11,-0.11
395.77,-0.16,-0.06,-0.16,-0.06,0.06,0.16,0.23,-0.10,-0.10,-0.10
399.73,-0.19,-0.09,-0.19,-0.10,0.10,0.20,0.28,-0.10,-0.10,-0.10
403.72,-0.23,-0.13,-0.23,-0.13,0.13,0.23,0.34,-0.09,-0.09,-0.09
407.76,-0.26,-0.17,-0.26,-0.17,0.17,0.26,0.39,-0.09,-0.09,-0.09
411.84,-0.29,-0.21,-0.29,-0.21,0.21,0.30,0.44,-0.08,-0.08,-0.08
415.96,-0.32,-0.24,-0.32,-0.25,0.24,0.33,0.50,-0.08,-0.08,-0.08
420.12,-0.35,-0.28,-0.35,-0.28,0.28,0.36,0.55,-0.07,-0.07,-0.07
424.32,-0.38,-0.31,-0.38,-0.31,0.31,0.39,0.60,-0.07,-0.07,-0.07
428.56,-0.41,-0.34,-0.41,-0.35,0.35,0.42,0.65,-0.07,-0.07,-0.07
432.85,-0.44,-0.38,-0.44,-0.38,0.38,0.45,0.70,-0.07,-0.06,-0.07
437.18,-0.47,-0.41,-0.47,-0.41,0.41,0.47,0.75,-0.06,-0.06,-0.06
441.55,-0.50,-0.44,-0.50,-0.44,0.44,0.50,0.79,-0.06,-0.06,-0.06
445.96,-0.53,-0.47,-0.53,-0.47,0.47,0.53,0.84,-0.06,-0.06,-0.06
450.42,-0.56,-0.50,-0.56,-0.50,0.50,0.55,0.88,-0.05,-0.05,-0.05
454.93,-0.59,-0.54,-0.59,-0.53,0.54,0.58,0.92,-0.05,-0.05,-0.05
459.48,-0.61,-0.56,-0.61,-0.57,0.57,0.60,0.96,-0.05,-0.05,-0.05
464.07,-0.64,-0.59,-0.64,-0.60,0.60,0.63,1.00,-0.04,-0.04,-0.05
468.71,-0.67,-0.63,-0.67,-0.63,0.63,0.65,1.03,-0.04,-0.04,-0.04
473.40,-0.69,-0.66,-0.69,-0.66,0.66,0.68,1.06,-0.04,-0.04,-0.03
478.13,-0.72,-0.69,-0.72,-0.69,0.69,0.70,1.09,-0.03,-0.03,-0.03
482.91,-0.74,-0.71,-0.74,-0.71,0.72,0.73,1.12,-0.03,-0.03,-0.03
487.74,-0.77,-0.74,-0.77,-0.74,0.74,0.75,1.14,-0.02,-0.02,-0.02
492.62,-0.79,-0.77,-0.79,-0.77,0.77,0.77,1.16,-0.01,-0.01,-0.02
497.55,-0.81,-0.81,-0.81,-0.80,0.80,0.80,1.18,-0.01,-0.01,-0.00
502.52,-0.84,-0.84,-0.84,-0.83,0.83,0.82,1.20,-0.00,-0.00,0.00
