frequency,raw,error,smoothed,error_smoothed,equalization,parametric_eq,fixed_band_eq,equalized_raw,equalized_smoothed,target
20.00,7.92,2.87,7.90,2.85,-2.68,-2.63,-1.63,5.24,5.22,5.05
20.20,7.98,2.91,8.00,2.93,-2.93,-2.81,-1.68,5.05,5.07,5.07
20.40,8.12,3.03,8.15,3.06,-3.16,-2.98,-1.73,4.95,4.99,5.09
20.61,8.33,3.22,8.34,3.23,-3.37,-3.19,-1.78,4.95,4.96,5.11
20.81,8.60,3.48,8.59,3.47,-3.56,-3.40,-1.83,5.03,5.03,5.12
21.02,8.86,3.72,8.86,3.71,-3.74,-3.64,-1.89,5.13,5.12,5.15
21.23,9.11,3.94,9.10,3.93,-3.89,-3.87,-1.94,5.23,5.22,5.17
21.44,9.31,4.10,9.30,4.09,-4.02,-4.10,-2.00,5.29,5.29,5.21
21.66,9.46,4.20,9.46,4.21,-4.15,-4.33,-2.06,5.30,5.31,5.25
21.87,9.58,4.29,9.58,4.28,-4.25,-4.51,-2.12,5.33,5.32,5.29
22.09,9.66,4.32,9.66,4.32,-4.32,-4.69,-2.18,5.34,5.34,5.33
22.31,9.71,4.34,9.71,4.34,-4.36,-4.77,-2.24,5.35,5.35,5.37
22.54,9.75,4.35,9.75,4.35,-4.38,-4.84,-2.31,5.37,5.37,5.40
22.76,9.78,4.35,9.78,4.36,-4.40,-4.81,-2.37,5.38,5.39,5.43
22.99,9.81,4.37,9.81,4.37,-4.40,-4.76,-2.44,5.40,5.41,5.44
23.22,9.83,4.38,9.83,4.38,-4.40,-4.64,-2.51,5.43,5.43,5.45
23.45,9.84,4.39,9.85,4.39,-4.39,-4.51,-2.58,5.46,5.46,5.46
23.69,9.84,4.37,9.84,4.37,-4.35,-4.36,-2.66,5.49,5.49,5.47
23.92,9.82,4.33,9.81,4.33,-4.29,-4.20,-2.73,5.52,5.52,5.48
24.16,9.76,4.25,9.75,4.25,-4.20,-4.06,-2.81,5.56,5.55,5.50
24.40,9.66,4.13,9.65,4.13,-4.07,-3.92,-2.88,5.58,5.58,5.52
24.65,9.52,3.97,9.52,3.97,-3.92,-3.80,-2.96,5.61,5.60,5.55
24.89,9.36,3.79,9.35,3.78,-3.75,-3.69,-3.04,5.61,5.61,5.57
25.14,9.18,3.59,9.17,3.58,-3.57,-3.61,-3.12,5.60,5.60,5.59
25.39,8.99,3.38,9.00,3.39,-3.42,-3.53,-3.20,5.57,5.58,5.61
25.65,8.86,3.24,8.85,3.24,-3.31,-3.47,-3.28,5.55,5.55,5.61
25.91,8.77,3.15,8.77,3.15,-3.25,-3.42,-3.36,5.52,5.52,5.62
26.16,8.75,3.12,8.77,3.14,-3.25,-3.39,-3.44,5.51,5.52,5.63
26.43,8.84,3.20,8.85,3.21,-3.31,-3.36,-3.52,5.53,5.54,5.63
26.69,9.01,3.36,9.00,3.36,-3.42,-3.35,-3.60,5.59,5.58,5.64
26.96,9.21,3.55,9.21,3.56,-3.56,-3.34,-3.68,5.64,5.64,5.65
27.23,9.43,3.76,9.43,3.76,-3.72,-3.34,-3.75,5.71,5.70,5.67
27.50,9.63,3.95,9.63,3.94,-3.87,-3.34,-3.83,5.76,5.75,5.69
27.77,9.78,4.07,9.78,4.07,-3.99,-3.35,-3.90,5.79,5.79,5.71
28.05,9.88,4.15,9.87,4.14,-4.05,-3.36,-3.97,5.83,5.82,5.74
28.33,9.90,4.13,9.90,4.13,-4.06,-3.38,-4.04,5.84,5.84,5.77
28.62,9.87,4.06,9.87,4.06,-4.00,-3.40,-4.10,5.87,5.87,5.81
28.90,9.78,3.93,9.78,3.93,-3.88,-3.43,-4.16,5.90,5.90,5.85
29.19,9.66,3.76,9.66,3.76,-3.72,-3.45,-4.22,5.94,5.94,5.90
29.48,9.52,3.57,9.52,3.57,-3.55,-3.48,-4.27,5.97,5.97,5.95
29.78,9.37,3.38,9.37,3.38,-3.39,-3.51,-4.31,5.98,5.98,5.99
30.08,9.23,3.21,9.23,3.20,-3.27,-3.54,-4.35,5.96,5.96,6.03
30.38,9.13,3.08,9.14,3.09,-3.22,-3.57,-4.39,5.91,5.92,6.05
30.68,9.11,3.05,9.13,3.07,-3.24,-3.60,-4.42,5.87,5.89,6.06
30.99,9.22,3.16,9.22,3.16,-3.34,-3.64,-4.45,5.88,5.89,6.06
31.30,9.40,3.36,9.41,3.37,-3.47,-3.67,-4.46,5.93,5.94,6.05
31.61,9.65,3.62,9.65,3.63,-3.63,-3.70,-4.48,6.02,6.02,6.03
31.93,9.91,3.90,9.89,3.88,-3.77,-3.73,-4.48,6.14,6.13,6.01
32.24,10.07,4.07,10.07,4.07,-3.86,-3.76,-4.49,6.21,6.21,6.00
32.57,10.16,4.17,10.13,4.14,-3.89,-3.79,-4.48,6.27,6.24,5.99
32.89,10.08,4.07,10.07,4.05,-3.86,-3.81,-4.47,6.22,6.20,6.01
33.22,9.89,3.86,9.89,3.85,-3.78,-3.84,-4.46,6.11,6.10,6.03
33.55,9.65,3.59,9.65,3.60,-3.67,-3.86,-4.44,5.98,5.99,6.06
33.89,9.42,3.35,9.44,3.37,-3.54,-3.88,-4.42,5.88,5.90,6.07
34.23,9.30,3.22,9.31,3.23,-3.43,-3.90,-4.39,5.87,5.88,6.07
34.57,9.26,3.19,9.28,3.21,-3.35,-3.92,-4.36,5.91,5.93,6.07
34.92,9.34,3.29,9.33,3.28,-3.31,-3.93,-4.33,6.03,6.02,6.05
35.27,9.43,3.40,9.42,3.39,-3.34,-3.94,-4.30,6.10,6.08,6.03
35.62,9.52,3.50,9.51,3.49,-3.41,-3.95,-4.26,6.11,6.10,6.02
35.97,9.58,3.57,9.59,3.56,-3.52,-3.96,-4.22,6.06,6.06,6.02
36.33,9.66,3.63,9.67,3.64,-3.65,-3.96,-4.18,6.01,6.02,6.03
36.70,9.77,3.72,9.78,3.74,-3.78,-3.96,-4.14,5.99,6.00,6.05
37.06,9.92,3.86,9.92,3.86,-3.90,-3.96,-4.10,6.02,6.02,6.06
37.43,10.08,4.02,10.07,4.01,-4.01,-3.96,-4.06,6.08,6.07,6.07
37.81,10.20,4.15,10.20,4.15,-4.11,-3.96,-4.02,6.10,6.10,6.05
38.19,10.31,4.26,10.29,4.25,-4.20,-3.95,-3.98,6.11,6.09,6.04
38.57,10.33,4.30,10.33,4.30,-4.28,-3.94,-3.94,6.05,6.05,6.03
38.95,10.34,4.32,10.35,4.33,-4.34,-3.93,-3.91,6.00,6.00,6.02
39.34,10.35,4.33,10.35,4.34,-4.38,-3.92,-3.87,5.97,5.97,6.01
39.74,10.37,4.35,10.37,4.36,-4.38,-3.90,-3.84,5.99,5.99,6.01
40.14,10.39,4.36,10.39,4.36,-4.34,-3.89,-3.81,6.05,6.05,6.03
40.54,10.40,4.35,10.39,4.34,-4.28,-3.87,-3.78,6.13,6.12,6.05
40.94,10.35,4.27,10.35,4.26,-4.18,-3.86,-3.75,6.17,6.17,6.08
41.35,10.26,4.14,10.25,4.13,-4.07,-3.84,-3.72,6.19,6.18,6.12
41.76,10.12,3.96,10.11,3.96,-3.95,-3.82,-3.70,6.17,6.17,6.16
42.18,9.96,3.78,9.96,3.78,-3.82,-3.81,-3.68,6.13,6.13,6.17
42.60,9.81,3.63,9.81,3.63,-3.71,-3.79,-3.66,6.10,6.10,6.18
43.03,9.70,3.53,9.71,3.54,-3.62,-3.78,-3.65,6.08,6.09,6.17
43.46,9.66,3.50,9.66,3.50,-3.55,-3.76,-3.63,6.10,6.10,6.16
43.90,9.65,3.51,9.65,3.50,-3.53,-3.75,-3.62,6.13,6.13,6.15
44.33,9.68,3.54,9.68,3.54,-3.53,-3.74,-3.62,6.15,6.15,6.14
44.78,9.73,3.58,9.73,3.58,-3.57,-3.73,-3.61,6.16,6.16,6.14
45.23,9.79,3.64,9.79,3.64,-3.62,-3.72,-3.61,6.17,6.16,6.15
45.68,9.85,3.69,9.85,3.69,-3.68,-3.72,-3.62,6.17,6.17,6.16
46.13,9.91,3.75,9.91,3.75,-3.74,-3.72,-3.62,6.17,6.16,6.16
46.60,9.96,3.80,9.96,3.80,-3.80,-3.72,-3.63,6.16,6.16,6.16
47.06,10.00,3.85,10.00,3.85,-3.84,-3.72,-3.64,6.16,6.16,6.15
47.53,10.02,3.89,10.02,3.89,-3.87,-3.73,-3.65,6.15,6.15,6.13
48.01,10.02,3.92,10.02,3.91,-3.89,-3.74,-3.66,6.13,6.13,6.10
48.49,10.01,3.92,10.01,3.92,-3.90,-3.76,-3.68,6.11,6.11,6.08
48.97,9.99,3.91,9.99,3.91,-3.91,-3.78,-3.70,6.08,6.08,6.08
49.46,9.96,3.89,9.97,3.89,-3.91,-3.80,-3.72,6.06,6.06,6.08
49.96,9.95,3.87,9.95,3.88,-3.91,-3.83,-3.74,6.04,6.05,6.07
50.46,9.94,3.89,9.94,3.89,-3.90,-3.86,-3.77,6.04,6.04,6.06
50.96,9.94,3.90,9.94,3.90,-3.90,-3.89,-3.79,6.04,6.04,6.04
51.47,9.94,3.92,9.94,3.91,-3.90,-3.92,-3.82,6.04,6.03,6.02
51.99,9.93,3.92,9.93,3.92,-3.91,-3.95,-3.85,6.02,6.02,6.01
52.51,9.92,3.92,9.92,3.92,-3.92,-3.98,-3.88,6.00,6.00,6.01
53.03,9.91,3.92,9.92,3.92,-3.94,-4.00,-3.90,5.98,5.98,6.00
53.56,9.91,3.94,9.91,3.94,-3.95,-4.02,-3.93,5.96,5.96,5.98
54.10,9.91,3.96,9.91,3.96,-3.96,-4.04,-3.96,5.96,5.96,5.96
54.64,9.92,3.98,9.92,3.97,-3.96,-4.05,-3.98,5.96,5.96,5.94
55.18,9.92,3.98,9.92,3.97,-3.96,-4.05,-4.01,5.96,5.96,5.94
55.74,9.91,3.96,9.91,3.96,-3.96,-4.04,-4.03,5.95,5.95,5.95
56.29,9.89,3.94,9.89,3.94,-3.94,-4.03,-4.05,5.95,5.95,5.95
56.86,9.86,3.91,9.86,3.92,-3.92,-4.01,-4.07,5.94,5.94,5.95
57.42,9.82,3.89,9.82,3.89,-3.88,-3.98,-4.08,5.93,5.94,5.93
58.00,9.77,3.87,9.77,3.86,-3.84,-3.95,-4.09,5.94,5.94,5.90
58.58,9.72,3.81,9.72,3.81,-3.79,-3.91,-4.10,5.94,5.94,5.91
59.16,9.67,3.75,9.67,3.74,-3.74,-3.86,-4.10,5.93,5.93,5.93
59.76,9.62,3.67,9.63,3.67,-3.70,-3.81,-4.10,5.93,5.93,5.96
60.35,9.58,3.61,9.58,3.62,-3.65,-3.76,-4.09,5.93,5.93,5.97
60.96,9.54,3.58,9.54,3.58,-3.61,-3.70,-4.08,5.93,5.93,5.96
61.57,9.50,3.57,9.50,3.57,-3.57,-3.64,-4.07,5.93,5.93,5.93
62.18,9.46,3.57,9.46,3.56,-3.54,-3.58,-4.04,5.92,5.92,5.89
62.80,9.42,3.55,9.42,3.54,-3.51,-3.52,-4.01,5.90,5.91,5.87
63.43,9.38,3.51,9.38,3.51,-3.50,-3.47,-3.98,5.88,5.88,5.87
64.07,9.35,3.47,9.35,3.47,-3.49,-3.42,-3.94,5.86,5.86,5.88
64.71,9.34,3.45,9.34,3.45,-3.49,-3.37,-3.89,5.85,5.85,5.89
65.35,9.33,3.45,9.33,3.45,-3.49,-3.33,-3.84,5.84,5.84,5.89
66.01,9.33,3.46,9.33,3.47,-3.49,-3.29,-3.79,5.84,5.84,5.87
66.67,9.31,3.49,9.31,3.49,-3.48,-3.26,-3.73,5.83,5.83,5.82
67.33,9.28,3.51,9.28,3.50,-3.47,-3.23,-3.66,5.82,5.82,5.78
68.01,9.24,3.50,9.24,3.49,-3.44,-3.20,-3.59,5.80,5.80,5.74
68.69,9.19,3.45,9.19,3.45,-3.41,-3.18,-3.51,5.78,5.78,5.74
69.37,9.13,3.38,9.13,3.38,-3.36,-3.15,-3.44,5.76,5.76,5.74
70.07,9.06,3.30,9.07,3.30,-3.31,-3.13,-3.35,5.76,5.76,5.76
70.77,9.00,3.22,9.00,3.22,-3.24,-3.12,-3.27,5.76,5.76,5.78
71.48,8.93,3.15,8.93,3.15,-3.18,-3.10,-3.18,5.76,5.76,5.78
72.19,8.86,3.09,8.86,3.09,-3.12,-3.08,-3.09,5.74,5.74,5.77
72.91,8.78,3.05,8.78,3.05,-3.07,-3.06,-3.00,5.71,5.71,5.74
73.64,8.71,3.01,8.71,3.01,-3.03,-3.04,-2.91,5.68,5.68,5.69
74.38,8.64,2.99,8.65,2.99,-2.99,-3.02,-2.81,5.65,5.65,5.66
75.12,8.59,2.97,8.60,2.97,-2.96,-3.00,-2.72,5.63,5.63,5.63
75.87,8.56,2.95,8.56,2.95,-2.93,-2.97,-2.62,5.63,5.63,5.61
76.63,8.52,2.92,8.52,2.92,-2.90,-2.94,-2.52,5.63,5.63,5.61
77.40,8.49,2.87,8.49,2.87,-2.85,-2.91,-2.42,5.64,5.64,5.62
78.17,8.44,2.81,8.44,2.81,-2.79,-2.87,-2.32,5.65,5.65,5.63
78.95,8.38,2.74,8.38,2.74,-2.73,-2.82,-2.23,5.66,5.66,5.64
79.74,8.31,2.66,8.31,2.66,-2.66,-2.78,-2.13,5.66,5.66,5.65
80.54,8.23,2.57,8.24,2.57,-2.58,-2.72,-2.03,5.65,5.65,5.66
81.35,8.15,2.49,8.15,2.49,-2.51,-2.67,-1.93,5.64,5.64,5.66
82.16,8.07,2.42,8.07,2.42,-2.45,-2.60,-1.84,5.62,5.62,5.65
82.98,7.98,2.37,7.98,2.37,-2.39,-2.53,-1.74,5.59,5.59,5.61
83.81,7.89,2.33,7.89,2.33,-2.33,-2.46,-1.64,5.56,5.55,5.56
84.65,7.79,2.29,7.79,2.29,-2.28,-2.38,-1.55,5.51,5.51,5.50
85.50,7.68,2.25,7.68,2.24,-2.23,-2.29,-1.45,5.45,5.45,5.44
86.35,7.57,2.19,7.57,2.19,-2.19,-2.21,-1.36,5.39,5.39,5.38
87.22,7.46,2.13,7.46,2.13,-2.14,-2.11,-1.27,5.32,5.32,5.32
88.09,7.34,2.07,7.34,2.07,-2.08,-2.02,-1.18,5.26,5.26,5.27
88.97,7.22,2.01,7.22,2.01,-2.01,-1.92,-1.08,5.20,5.21,5.21
89.86,7.10,1.95,7.10,1.95,-1.94,-1.82,-0.99,5.16,5.16,5.15
90.76,6.98,1.87,6.98,1.87,-1.85,-1.71,-0.90,5.12,5.12,5.10
91.66,6.85,1.78,6.85,1.78,-1.76,-1.60,-0.81,5.09,5.09,5.07
92.58,6.73,1.67,6.73,1.67,-1.66,-1.49,-0.73,5.07,5.07,5.06
93.51,6.60,1.54,6.60,1.55,-1.55,-1.38,-0.64,5.04,5.04,5.05
94.44,6.46,1.43,6.46,1.43,-1.44,-1.27,-0.55,5.02,5.03,5.04
95.39,6.32,1.31,6.32,1.31,-1.32,-1.16,-0.47,5.00,5.00,5.02
96.34,6.18,1.20,6.17,1.19,-1.20,-1.05,-0.38,4.98,4.97,4.98
97.30,6.02,1.08,6.02,1.08,-1.08,-0.94,-0.30,4.94,4.94,4.94
98.28,5.85,0.95,5.85,0.95,-0.96,-0.82,-0.22,4.89,4.89,4.90
99.26,5.68,0.83,5.69,0.83,-0.84,-0.71,-0.13,4.84,4.84,4.85
100.25,5.52,0.71,5.52,0.71,-0.72,-0.60,-0.05,4.81,4.81,4.81
101.25,5.37,0.59,5.37,0.59,-0.58,-0.48,0.03,4.79,4.79,4.78
102.27,5.22,0.46,5.22,0.46,-0.43,-0.37,0.10,4.79,4.79,4.77
103.29,5.08,0.31,5.08,0.31,-0.27,-0.26,0.18,4.82,4.82,4.77
104.32,4.95,0.15,4.95,0.14,-0.09,-0.15,0.25,4.86,4.86,4.80
105.37,4.82,-0.04,4.82,-0.05,0.08,-0.04,0.32,4.90,4.90,4.86
106.42,4.69,-0.24,4.69,-0.25,0.24,0.07,0.39,4.93,4.93,4.93
107.48,4.56,-0.44,4.56,-0.44,0.38,0.18,0.46,4.95,4.95,5.01
108.56,4.44,-0.59,4.44,-0.59,0.50,0.28,0.53,4.94,4.94,5.03
109.64,4.32,-0.68,4.32,-0.68,0.59,0.38,0.59,4.91,4.91,5.00
110.74,4.19,-0.73,4.19,-0.72,0.66,0.48,0.65,4.85,4.85,4.92
111.85,4.07,-0.72,4.07,-0.72,0.71,0.58,0.71,4.78,4.78,4.79
112.97,3.95,-0.70,3.95,-0.70,0.74,0.68,0.76,4.69,4.69,4.65
114.10,3.83,-0.69,3.83,-0.71,0.78,0.77,0.81,4.61,4.62,4.53
115.24,3.72,-0.74,3.73,-0.75,0.83,0.85,0.85,4.56,4.56,4.47
116.39,3.63,-0.84,3.63,-0.84,0.90,0.94,0.89,4.53,4.53,4.47
117.55,3.54,-0.95,3.55,-0.96,0.98,1.02,0.93,4.52,4.52,4.50
118.73,3.47,-1.08,3.47,-1.08,1.07,1.09,0.96,4.54,4.54,4.56
119.92,3.41,-1.21,3.40,-1.20,1.17,1.16,0.99,4.57,4.57,4.61
121.12,3.35,-1.31,3.35,-1.30,1.26,1.22,1.01,4.60,4.61,4.65
122.33,3.30,-1.37,3.30,-1.37,1.33,1.27,1.02,4.63,4.63,4.67
123.55,3.26,-1.41,3.26,-1.41,1.39,1.33,1.04,4.65,4.65,4.67
124.79,3.23,-1.43,3.23,-1.43,1.42,1.36,1.04,4.65,4.65,4.66
126.03,3.20,-1.43,3.20,-1.43,1.44,1.40,1.04,4.64,4.64,4.63
127.29,3.19,-1.42,3.19,-1.42,1.44,1.42,1.04,4.62,4.62,4.61
128.57,3.17,-1.41,3.17,-1.41,1.42,1.44,1.03,4.60,4.60,4.58
129.85,3.16,-1.39,3.16,-1.40,1.40,1.45,1.01,4.56,4.56,4.55
131.15,3.14,-1.38,3.14,-1.38,1.38,1.45,1.00,4.52,4.52,4.52
132.46,3.13,-1.35,3.13,-1.35,1.34,1.44,0.97,4.48,4.48,4.49
133.79,3.13,-1.32,3.13,-1.32,1.31,1.43,0.94,4.44,4.44,4.44
135.12,3.13,-1.27,3.13,-1.27,1.28,1.40,0.91,4.41,4.41,4.40
136.48,3.15,-1.23,3.15,-1.23,1.24,1.37,0.87,4.38,4.39,4.37
137.84,3.17,-1.18,3.17,-1.19,1.20,1.33,0.83,4.37,4.37,4.35
139.22,3.20,-1.15,3.20,-1.15,1.15,1.29,0.78,4.35,4.35,4.35
140.61,3.23,-1.11,3.23,-1.11,1.10,1.23,0.73,4.34,4.34,4.34
142.02,3.27,-1.06,3.27,-1.06,1.05,1.17,0.68,4.32,4.32,4.33
143.44,3.30,-1.01,3.30,-1.01,1.00,1.10,0.62,4.30,4.30,4.31
144.87,3.33,-0.95,3.33,-0.95,0.94,1.03,0.57,4.27,4.27,4.28
146.32,3.36,-0.88,3.36,-0.88,0.88,0.95,0.51,4.24,4.24,4.24
147.78,3.39,-0.81,3.39,-0.81,0.81,0.87,0.44,4.21,4.21,4.20
149.26,3.43,-0.73,3.43,-0.73,0.75,0.79,0.38,4.17,4.17,4.16
150.75,3.46,-0.66,3.46,-0.67,0.68,0.70,0.31,4.13,4.13,4.12
152.26,3.49,-0.60,3.49,-0.60,0.61,0.61,0.24,4.10,4.10,4.09
153.78,3.53,-0.53,3.53,-0.53,0.53,0.51,0.17,4.06,4.06,4.06
155.32,3.57,-0.46,3.57,-0.46,0.46,0.42,0.10,4.03,4.03,4.04
156.88,3.62,-0.39,3.62,-0.39,0.38,0.32,0.03,4.00,4.00,4.01
158.44,3.67,-0.30,3.67,-0.30,0.29,0.22,-0.05,3.96,3.96,3.97
160.03,3.72,-0.21,3.72,-0.21,0.20,0.12,-0.12,3.93,3.93,3.93
161.63,3.78,-0.11,3.78,-0.11,0.11,0.02,-0.20,3.89,3.89,3.89
163.24,3.84,-0.01,3.84,-0.01,0.01,-0.08,-0.28,3.85,3.85,3.85
164.88,3.91,0.10,3.91,0.10,-0.09,-0.18,-0.36,3.81,3.81,3.81
166.53,3.98,0.20,3.98,0.20,-0.20,-0.28,-0.43,3.78,3.78,3.77
168.19,4.04,0.31,4.04,0.31,-0.30,-0.38,-0.51,3.74,3.74,3.74
169.87,4.11,0.41,4.11,0.41,-0.41,-0.48,-0.59,3.70,3.70,3.70
171.57,4.17,0.51,4.17,0.51,-0.51,-0.57,-0.68,3.66,3.66,3.66
173.29,4.23,0.61,4.23,0.61,-0.61,-0.67,-0.76,3.62,3.62,3.62
175.02,4.30,0.71,4.30,0.71,-0.71,-0.76,-0.84,3.59,3.59,3.59
176.77,4.36,0.81,4.36,0.81,-0.81,-0.86,-0.92,3.55,3.55,3.55
178.54,4.42,0.91,4.42,0.90,-0.90,-0.95,-1.01,3.52,3.52,3.52
180.32,4.48,1.00,4.48,1.00,-1.00,-1.04,-1.09,3.49,3.48,3.48
182.13,4.54,1.09,4.54,1.09,-1.09,-1.13,-1.17,3.45,3.45,3.44
183.95,4.59,1.18,4.59,1.18,-1.18,-1.22,-1.26,3.40,3.40,3.41
185.79,4.64,1.27,4.64,1.27,-1.28,-1.31,-1.35,3.36,3.36,3.37
187.65,4.69,1.37,4.69,1.37,-1.37,-1.40,-1.43,3.32,3.32,3.33
189.52,4.75,1.46,4.75,1.46,-1.47,-1.48,-1.52,3.28,3.28,3.28
191.42,4.80,1.56,4.80,1.56,-1.57,-1.56,-1.61,3.23,3.23,3.24
193.33,4.85,1.66,4.85,1.66,-1.66,-1.65,-1.69,3.19,3.19,3.19
195.27,4.90,1.76,4.90,1.76,-1.76,-1.73,-1.78,3.15,3.15,3.14
197.22,4.95,1.86,4.95,1.85,-1.85,-1.80,-1.87,3.11,3.11,3.10
199.19,5.00,1.95,5.00,1.94,-1.94,-1.88,-1.96,3.06,3.06,3.05
201.18,5.04,2.03,5.04,2.03,-2.02,-1.96,-2.05,3.02,3.02,3.01
203.19,5.08,2.11,5.08,2.11,-2.11,-2.03,-2.13,2.97,2.97,2.97
205.23,5.11,2.18,5.11,2.18,-2.19,-2.11,-2.22,2.92,2.93,2.93
207.28,5.15,2.26,5.15,2.26,-2.27,-2.18,-2.31,2.88,2.88,2.89
209.35,5.18,2.34,5.18,2.34,-2.35,-2.25,-2.39,2.84,2.84,2.84
211.44,5.22,2.42,5.22,2.42,-2.42,-2.32,-2.48,2.79,2.79,2.80
213.56,5.25,2.50,5.25,2.50,-2.50,-2.38,-2.56,2.75,2.75,2.75
215.69,5.29,2.58,5.29,2.58,-2.57,-2.45,-2.65,2.71,2.71,2.71
217.85,5.32,2.65,5.32,2.65,-2.65,-2.52,-2.73,2.67,2.67,2.67
220.03,5.35,2.72,5.35,2.72,-2.72,-2.58,-2.81,2.63,2.63,2.63
222.23,5.37,2.78,5.38,2.78,-2.78,-2.64,-2.88,2.59,2.59,2.59
224.45,5.40,2.85,5.40,2.84,-2.84,-2.70,-2.96,2.56,2.56,2.56
226.70,5.43,2.90,5.43,2.90,-2.90,-2.76,-3.03,2.53,2.53,2.53
228.96,5.46,2.96,5.45,2.96,-2.95,-2.82,-3.10,2.50,2.50,2.50
231.25,5.48,3.01,5.48,3.01,-3.01,-2.88,-3.16,2.47,2.47,2.47
233.57,5.50,3.05,5.50,3.05,-3.06,-2.94,-3.22,2.44,2.44,2.45
235.90,5.52,3.10,5.52,3.10,-3.11,-2.99,-3.28,2.41,2.41,2.42
238.26,5.54,3.15,5.54,3.15,-3.16,-3.05,-3.33,2.38,2.38,2.39
240.64,5.56,3.20,5.56,3.20,-3.21,-3.10,-3.38,2.35,2.35,2.35
243.05,5.57,3.25,5.57,3.25,-3.26,-3.15,-3.42,2.31,2.31,2.32
245.48,5.59,3.30,5.59,3.31,-3.31,-3.20,-3.46,2.28,2.28,2.28
247.93,5.60,3.36,5.60,3.36,-3.36,-3.25,-3.50,2.24,2.24,2.24
250.41,5.61,3.41,5.61,3.41,-3.40,-3.30,-3.52,2.21,2.21,2.20
252.92,5.62,3.45,5.62,3.45,-3.44,-3.34,-3.55,2.18,2.18,2.17
255.45,5.63,3.49,5.63,3.49,-3.47,-3.39,-3.57,2.16,2.16,2.15
258.00,5.64,3.51,5.64,3.51,-3.50,-3.43,-3.58,2.14,2.14,2.13
260.58,5.65,3.52,5.65,3.52,-3.52,-3.48,-3.59,2.13,2.13,2.13
263.19,5.66,3.53,5.66,3.53,-3.53,-3.52,-3.60,2.12,2.12,2.12
265.82,5.66,3.54,5.66,3.54,-3.55,-3.56,-3.60,2.11,2.11,2.12
268.48,5.66,3.55,5.66,3.55,-3.56,-3.60,-3.60,2.10,2.10,2.11
271.16,5.66,3.56,5.66,3.56,-3.57,-3.64,-3.59,2.09,2.09,2.10
273.87,5.66,3.58,5.66,3.58,-3.59,-3.67,-3.59,2.08,2.08,2.08
276.61,5.66,3.60,5.66,3.60,-3.61,-3.71,-3.57,2.06,2.06,2.06
279.38,5.66,3.63,5.66,3.63,-3.63,-3.74,-3.56,2.03,2.03,2.03
282.17,5.65,3.65,5.66,3.65,-3.65,-3.78,-3.54,2.00,2.00,2.00
284.99,5.65,3.68,5.65,3.68,-3.68,-3.81,-3.53,1.97,1.97,1.97
287.84,5.65,3.70,5.65,3.70,-3.70,-3.84,-3.51,1.94,1.94,1.94
290.72,5.64,3.73,5.64,3.73,-3.73,-3.87,-3.49,1.91,1.91,1.91
293.63,5.63,3.76,5.63,3.76,-3.76,-3.90,-3.47,1.87,1.87,1.87
296.57,5.62,3.78,5.62,3.78,-3.78,-3.92,-3.45,1.84,1.84,1.84
299.53,5.61,3.81,5.61,3.81,-3.81,-3.95,-3.43,1.80,1.80,1.80
302.53,5.60,3.84,5.60,3.84,-3.84,-3.97,-3.41,1.76,1.76,1.76
305.55,5.59,3.86,5.59,3.86,-3.86,-4.00,-3.39,1.73,1.73,1.73
308.61,5.57,3.88,5.57,3.88,-3.88,-4.02,-3.37,1.69,1.69,1.69
311.69,5.56,3.90,5.56,3.90,-3.90,-4.04,-3.35,1.66,1.66,1.66
314.81,5.54,3.92,5.54,3.92,-3.92,-4.06,-3.34,1.62,1.62,1.62
317.96,5.52,3.94,5.52,3.94,-3.93,-4.07,-3.32,1.59,1.59,1.59
321.14,5.50,3.95,5.50,3.95,-3.95,-4.09,-3.31,1.56,1.56,1.56
324.35,5.48,3.96,5.48,3.96,-3.96,-4.10,-3.30,1.52,1.52,1.52
327.59,5.46,3.97,5.46,3.97,-3.98,-4.12,-3.29,1.49,1.49,1.49
330.87,5.44,3.99,5.44,3.99,-3.99,-4.13,-3.28,1.45,1.45,1.45
334.18,5.42,4.00,5.42,4.00,-4.00,-4.14,-3.28,1.42,1.42,1.42
337.52,5.40,4.01,5.40,4.01,-4.01,-4.14,-3.28,1.39,1.39,1.39
340.90,5.38,4.02,5.38,4.02,-4.02,-4.15,-3.28,1.36,1.36,1.36
344.30,5.35,4.03,5.35,4.03,-4.03,-4.16,-3.28,1.33,1.33,1.32
347.75,5.33,4.04,5.33,4.04,-4.03,-4.16,-3.29,1.29,1.29,1.29
351.23,5.30,4.04,5.30,4.04,-4.04,-4.16,-3.29,1.26,1.26,1.26
354.74,5.28,4.04,5.28,4.04,-4.05,-4.17,-3.31,1.23,1.23,1.23
358.28,5.25,4.05,5.26,4.05,-4.05,-4.17,-3.32,1.20,1.20,1.21
361.87,5.23,4.05,5.23,4.05,-4.05,-4.16,-3.34,1.18,1.18,1.18
365.49,5.20,4.06,5.20,4.06,-4.05,-4.16,-3.35,1.15,1.15,1.15
369.14,5.17,4.06,5.17,4.06,-4.05,-4.16,-3.38,1.12,1.12,1.12
372.83,5.14,4.05,5.14,4.05,-4.05,-4.15,-3.40,1.09,1.09,1.09
376.56,5.11,4.05,5.11,4.05,-4.05,-4.14,-3.43,1.06,1.06,1.06
380.33,5.07,4.05,5.07,4.05,-4.05,-4.13,-3.45,1.03,1.03,1.03
384.13,5.04,4.04,5.04,4.04,-4.04,-4.12,-3.48,1.00,1.00,1.00
387.97,5.01,4.03,5.01,4.03,-4.04,-4.11,-3.52,0.97,0.97,0.97
391.85,4.97,4.03,4.98,4.03,-4.03,-4.10,-3.55,0.95,0.95,0.95
395.77,4.94,4.02,4.94,4.02,-4.02,-4.09,-3.59,0.92,0.92,0.92
399.73,4.91,4.01,4.91,4.01,-4.01,-4.07,-3.63,0.90,0.89,0.90
403.72,4.87,4.01,4.87,4.01,-4.00,-4.05,-3.67,0.87,0.87,0.87
407.76,4.84,4.00,4.84,4.00,-3.99,-4.03,-3.71,0.84,0.84,0.84
411.84,4.80,3.98,4.80,3.98,-3.98,-4.01,-3.75,0.82,0.82,0.82
415.96,4.76,3.97,4.76,3.97,-3.97,-3.99,-3.79,0.79,0.79,0.79
420.12,4.73,3.96,4.73,3.96,-3.96,-3.97,-3.83,0.77,0.77,0.77
424.32,4.69,3.94,4.69,3.94,-3.94,-3.95,-3.87,0.74,0.74,0.74
428.56,4.65,3.93,4.65,3.93,-3.93,-3.92,-3.92,0.72,0.72,0.72
432.85,4.61,3.91,4.61,3.91,-3.91,-3.90,-3.96,0.69,0.70,0.70
437.18,4.56,3.89,4.56,3.89,-3.89,-3.87,-3.99,0.67,0.67,0.67
441.55,4.52,3.87,4.52,3.87,-3.88,-3.84,-4.03,0.65,0.65,0.65
445.96,4.48,3.86,4.48,3.86,-3.86,-3.81,-4.07,0.63,0.63,0.63
450.42,4.44,3.84,4.44,3.84,-3.84,-3.78,-4.10,0.61,0.61,0.61
454.93,4.40,3.82,4.40,3.82,-3.82,-3.75,-4.13,0.58,0.58,0.58
459.48,4.36,3.80,4.36,3.80,-3.80,-3.72,-4.15,0.56,0.56,0.56
464.07,4.32,3.78,4.32,3.78,-3.78,-3.68,-4.17,0.54,0.54,0.54
468.71,4.27,3.75,4.27,3.75,-3.75,-3.65,-4.19,0.52,0.52,0.52
473.40,4.23,3.73,4.23,3.73,-3.73,-3.61,-4.20,0.50,0.50,0.50
478.13,4.18,3.70,4.18,3.70,-3.70,-3.57,-4.21,0.48,0.48,0.48
482.91,4.14,3.67,4.13,3.67,-3.67,-3.54,-4.21,0.46,0.46,0.46
487.74,4.09,3.64,4.09,3.64,-3.64,-3.50,-4.21,0.44,0.44,0.44
492.62,4.04,3.61,4.04,3.61,-3.61,-3.46,-4.20,0.43,0.43,0.43
497.55,3.98,3.57,3.98,3.57,-3.57,-3.42,-4.18,0.41,0.41,0.41
502.52,3.93,3.54,3.93,3.54,-3.54,-3.37,-4.15,0.39,0.39,0.39
507.55,3.88,3.50,3.88,3.50,-3.50,-3.33,-4.12,0.38,0.38,0.38
512.62,3.82,3.46,3.82,3.46,-3.46,-3.29,-4.09,0.36,0.36,0.36
517.75,3.77,3.42,3.77,3.42,-3.42,-3.24,-4.04,0.34,0.34,0.34
522.93,3.71,3.38,3.71,3.38,-3.38,-3.20,-4.00,0.33,0.33,0.33
528.16,3.66,3.34,3.66,3.34,-3.34,-3.15,-3.94,0.32,0.32,0.32
533.44,3.60,3.30,3.60,3.30,-3.30,-3.11,-3.88,0.30,0.30,0.30
538.77,3.55,3.26,3.55,3.26,-3.26,-3.06,-3.82,0.29,0.29,0.29
544.16,3.49,3.21,3.49,3.21,-3.21,-3.01,-3.75,0.28,0.28,0.28
549.60,3.43,3.17,3.43,3.17,-3.17,-2.96,-3.67,0.27,0.27,0.26
