frequency,raw,error,smoothed,error_smoothed,equalization,parametric_eq,fixed_band_eq,equalized_raw,equalized_smoothed,target
20.00,9.68,5.70,9.68,5.69,-5.74,-6.49,-2.33,3.94,3.94,3.97
20.20,9.70,5.67,9.70,5.68,-5.69,-6.34,-2.40,4.01,4.01,4.02
20.40,9.72,5.65,9.72,5.67,-5.65,-6.19,-2.46,4.07,4.07,4.07
20.61,9.74,5.67,9.74,5.64,-5.62,-6.02,-2.54,4.13,4.13,4.08
20.81,9.77,5.62,9.77,5.62,-5.58,-5.86,-2.61,4.18,4.18,4.15
21.02,9.79,5.57,9.79,5.58,-5.55,-5.73,-2.68,4.24,4.24,4.21
21.23,9.81,5.53,9.81,5.54,-5.52,-5.61,-2.76,4.29,4.29,4.28
21.44,9.84,5.50,9.83,5.49,-5.50,-5.53,-2.84,4.34,4.34,4.34
21.66,9.86,5.46,9.86,5.46,-5.46,-5.46,-2.92,4.40,4.40,4.39
21.87,9.88,5.41,9.88,5.44,-5.43,-5.41,-3.01,4.45,4.45,4.47
22.09,9.90,5.42,9.90,5.41,-5.41,-5.36,-3.09,4.49,4.49,4.47
22.31,9.92,5.41,9.92,5.39,-5.41,-5.33,-3.18,4.51,4.51,4.51
22.54,9.94,5.36,9.94,5.38,-5.41,-5.30,-3.27,4.52,4.52,4.57
22.76,9.96,5.38,9.96,5.40,-5.43,-5.28,-3.37,4.53,4.53,4.57
22.99,9.98,5.45,9.98,5.45,-5.46,-5.26,-3.46,4.52,4.52,4.53
23.22,10.00,5.52,10.00,5.50,-5.49,-5.25,-3.56,4.51,4.51,4.47
23.45,10.01,5.54,10.01,5.54,-5.52,-5.23,-3.66,4.49,4.49,4.47
23.69,10.03,5.56,10.03,5.56,-5.55,-5.23,-3.77,4.48,4.48,4.47
23.92,10.05,5.57,10.05,5.58,-5.58,-5.22,-3.87,4.47,4.47,4.47
24.16,10.07,5.59,10.07,5.60,-5.59,-5.22,-3.98,4.48,4.48,4.47
24.40,10.08,5.61,10.08,5.60,-5.58,-5.21,-4.08,4.50,4.50,4.47
24.65,10.10,5.59,10.10,5.58,-5.56,-5.21,-4.19,4.54,4.54,4.51
24.89,10.11,5.54,10.11,5.55,-5.53,-5.21,-4.30,4.59,4.59,4.57
25.14,10.13,5.49,10.13,5.49,-5.49,-5.22,-4.42,4.64,4.64,4.64
25.39,10.14,5.44,10.14,5.43,-5.45,-5.22,-4.53,4.69,4.69,4.71
25.65,10.16,5.37,10.16,5.37,-5.41,-5.22,-4.64,4.75,4.75,4.79
25.91,10.17,5.32,10.17,5.34,-5.36,-5.22,-4.76,4.81,4.82,4.85
26.16,10.19,5.31,10.19,5.32,-5.31,-5.23,-4.87,4.88,4.87,4.87
26.43,10.20,5.32,10.20,5.29,-5.27,-5.23,-4.98,4.93,4.93,4.88
26.69,10.21,5.26,10.21,5.26,-5.24,-5.23,-5.10,4.97,4.97,4.95
26.96,10.22,5.20,10.22,5.21,-5.21,-5.24,-5.21,5.01,5.01,5.01
27.23,10.23,5.15,10.23,5.17,-5.19,-5.24,-5.32,5.03,5.03,5.07
27.50,10.23,5.16,10.23,5.16,-5.18,-5.24,-5.42,5.05,5.05,5.07
27.77,10.24,5.17,10.24,5.16,-5.17,-5.24,-5.52,5.07,5.07,5.07
28.05,10.25,5.17,10.25,5.17,-5.17,-5.24,-5.62,5.08,5.08,5.07
28.33,10.25,5.18,10.25,5.18,-5.18,-5.25,-5.72,5.08,5.08,5.07
28.62,10.26,5.19,10.26,5.19,-5.19,-5.25,-5.81,5.07,5.07,5.07
28.90,10.27,5.20,10.27,5.20,-5.21,-5.24,-5.89,5.06,5.07,5.07
29.19,10.28,5.21,10.28,5.21,-5.22,-5.24,-5.96,5.07,5.07,5.07
29.48,10.30,5.22,10.30,5.23,-5.22,-5.24,-6.03,5.08,5.08,5.07
29.78,10.31,5.23,10.31,5.23,-5.20,-5.24,-6.10,5.10,5.10,5.07
30.08,10.32,5.23,10.32,5.22,-5.18,-5.23,-6.15,5.14,5.14,5.09
30.38,10.33,5.18,10.33,5.18,-5.15,-5.22,-6.19,5.17,5.17,5.15
30.68,10.33,5.11,10.33,5.11,-5.12,-5.22,-6.23,5.22,5.22,5.22
30.99,10.34,5.05,10.34,5.05,-5.08,-5.21,-6.26,5.26,5.26,5.29
31.30,10.35,4.99,10.35,5.01,-5.03,-5.20,-6.27,5.31,5.31,5.35
31.61,10.35,4.97,10.35,4.97,-4.98,-5.19,-6.28,5.37,5.37,5.37
31.93,10.35,4.95,10.35,4.94,-4.94,-5.18,-6.28,5.42,5.42,5.40
32.24,10.36,4.89,10.36,4.92,-4.90,-5.16,-6.27,5.46,5.46,5.46
32.57,10.36,4.88,10.36,4.88,-4.87,-5.15,-6.25,5.49,5.49,5.47
32.89,10.36,4.86,10.36,4.84,-4.85,-5.13,-6.22,5.51,5.51,5.50
33.22,10.36,4.79,10.36,4.81,-4.83,-5.12,-6.19,5.53,5.53,5.57
33.55,10.36,4.79,10.36,4.79,-4.81,-5.10,-6.15,5.56,5.56,5.57
33.89,10.37,4.79,10.37,4.79,-4.79,-5.09,-6.10,5.58,5.58,5.57
34.23,10.37,4.79,10.37,4.80,-4.77,-5.07,-6.04,5.60,5.60,5.57
34.57,10.37,4.80,10.37,4.78,-4.75,-5.05,-5.98,5.62,5.62,5.57
34.92,10.37,4.75,10.37,4.75,-4.73,-5.03,-5.92,5.64,5.64,5.62
35.27,10.37,4.70,10.37,4.72,-4.73,-5.01,-5.85,5.64,5.64,5.67
35.62,10.37,4.70,10.37,4.69,-4.73,-4.99,-5.77,5.64,5.64,5.67
35.97,10.37,4.70,10.37,4.70,-4.73,-4.97,-5.70,5.64,5.64,5.67
36.33,10.37,4.72,10.37,4.73,-4.75,-4.95,-5.62,5.62,5.62,5.65
36.70,10.37,4.78,10.37,4.76,-4.77,-4.93,-5.54,5.60,5.61,5.59
37.06,10.37,4.80,10.37,4.80,-4.79,-4.90,-5.46,5.58,5.58,5.57
37.43,10.37,4.82,10.37,4.84,-4.82,-4.88,-5.38,5.55,5.55,5.55
37.81,10.37,4.88,10.37,4.87,-4.85,-4.86,-5.30,5.52,5.52,5.49
38.19,10.37,4.89,10.37,4.89,-4.87,-4.84,-5.22,5.50,5.50,5.47
38.57,10.36,4.89,10.36,4.89,-4.88,-4.82,-5.14,5.48,5.48,5.47
38.95,10.36,4.89,10.36,4.89,-4.89,-4.79,-5.07,5.47,5.47,5.47
39.34,10.36,4.88,10.36,4.88,-4.89,-4.77,-4.99,5.46,5.46,5.47
39.74,10.35,4.88,10.35,4.88,-4.89,-4.75,-4.92,5.46,5.46,5.47
40.14,10.35,4.87,10.35,4.87,-4.89,-4.73,-4.85,5.45,5.45,5.47
40.54,10.34,4.87,10.34,4.87,-4.89,-4.70,-4.78,5.45,5.45,5.47
40.94,10.34,4.86,10.34,4.87,-4.87,-4.68,-4.71,5.46,5.46,5.47
41.35,10.33,4.86,10.33,4.86,-4.84,-4.66,-4.65,5.49,5.49,5.47
41.76,10.32,4.85,10.32,4.84,-4.80,-4.64,-4.59,5.53,5.52,5.47
42.18,10.31,4.79,10.31,4.79,-4.73,-4.61,-4.53,5.58,5.58,5.52
42.60,10.31,4.71,10.31,4.72,-4.66,-4.59,-4.47,5.65,5.65,5.59
43.03,10.30,4.63,10.30,4.61,-4.58,-4.57,-4.42,5.71,5.71,5.66
43.46,10.29,4.49,10.29,4.49,-4.51,-4.55,-4.37,5.77,5.77,5.79
43.90,10.28,4.38,10.28,4.39,-4.46,-4.53,-4.33,5.82,5.82,5.90
44.33,10.27,4.30,10.27,4.33,-4.42,-4.50,-4.29,5.85,5.85,5.96
44.78,10.26,4.35,10.26,4.34,-4.41,-4.48,-4.25,5.85,5.85,5.91
45.23,10.25,4.41,10.25,4.39,-4.42,-4.46,-4.21,5.83,5.83,5.84
45.68,10.24,4.46,10.24,4.46,-4.44,-4.44,-4.18,5.79,5.79,5.78
46.13,10.22,4.52,10.22,4.53,-4.48,-4.42,-4.15,5.74,5.74,5.70
46.60,10.21,4.58,10.21,4.58,-4.53,-4.40,-4.13,5.68,5.68,5.63
47.06,10.20,4.63,10.20,4.61,-4.57,-4.37,-4.11,5.63,5.63,5.57
47.53,10.19,4.61,10.19,4.62,-4.61,-4.35,-4.09,5.58,5.58,5.57
48.01,10.17,4.60,10.17,4.60,-4.63,-4.33,-4.07,5.55,5.55,5.57
48.49,10.16,4.59,10.16,4.59,-4.63,-4.31,-4.06,5.53,5.53,5.57
48.97,10.15,4.58,10.15,4.60,-4.61,-4.29,-4.05,5.54,5.54,5.57
49.46,10.14,4.61,10.14,4.61,-4.58,-4.27,-4.04,5.55,5.55,5.52
49.96,10.12,4.63,10.12,4.60,-4.55,-4.25,-4.03,5.58,5.58,5.50
50.46,10.11,4.54,10.11,4.55,-4.50,-4.23,-4.03,5.61,5.61,5.57
50.96,10.09,4.46,10.09,4.46,-4.45,-4.20,-4.03,5.64,5.64,5.63
51.47,10.08,4.38,10.08,4.38,-4.40,-4.18,-4.03,5.68,5.68,5.70
51.99,10.07,4.29,10.07,4.31,-4.35,-4.16,-4.03,5.72,5.72,5.77
52.51,10.05,4.28,10.05,4.28,-4.31,-4.14,-4.03,5.74,5.74,5.77
53.03,10.04,4.26,10.04,4.25,-4.29,-4.12,-4.03,5.75,5.75,5.77
53.56,10.02,4.25,10.02,4.24,-4.28,-4.10,-4.04,5.74,5.74,5.77
54.10,10.01,4.23,10.01,4.24,-4.28,-4.08,-4.04,5.73,5.73,5.77
54.64,9.99,4.26,9.99,4.28,-4.29,-4.06,-4.05,5.71,5.71,5.73
55.18,9.98,4.31,9.98,4.32,-4.29,-4.03,-4.05,5.69,5.69,5.66
55.74,9.96,4.36,9.96,4.33,-4.27,-4.01,-4.06,5.69,5.69,5.59
56.29,9.94,4.31,9.94,4.30,-4.24,-3.99,-4.06,5.70,5.69,5.62
56.86,9.91,4.22,9.91,4.23,-4.19,-3.97,-4.06,5.72,5.72,5.69
57.42,9.89,4.12,9.89,4.13,-4.12,-3.95,-4.07,5.77,5.77,5.76
58.00,9.86,4.03,9.86,4.03,-4.04,-3.93,-4.07,5.82,5.82,5.83
58.58,9.84,3.94,9.84,3.93,-3.95,-3.90,-4.06,5.89,5.89,5.90
59.16,9.81,3.84,9.81,3.84,-3.86,-3.88,-4.06,5.95,5.95,5.97
59.76,9.79,3.75,9.79,3.76,-3.78,-3.86,-4.05,6.00,6.00,6.04
60.35,9.76,3.69,9.76,3.69,-3.72,-3.84,-4.04,6.04,6.04,6.07
60.96,9.74,3.66,9.74,3.65,-3.68,-3.82,-4.03,6.05,6.05,6.07
61.57,9.71,3.64,9.71,3.65,-3.66,-3.79,-4.02,6.05,6.05,6.07
62.18,9.69,3.65,9.69,3.65,-3.65,-3.77,-4.00,6.04,6.04,6.03
62.80,9.66,3.69,9.66,3.66,-3.65,-3.75,-3.98,6.01,6.01,5.97
63.43,9.63,3.66,9.63,3.68,-3.66,-3.73,-3.95,5.97,5.97,5.97
64.07,9.61,3.68,9.61,3.68,-3.68,-3.70,-3.93,5.93,5.93,5.93
64.71,9.58,3.71,9.58,3.68,-3.70,-3.68,-3.89,5.88,5.88,5.87
65.35,9.56,3.68,9.56,3.70,-3.72,-3.66,-3.86,5.84,5.84,5.87
66.01,9.53,3.71,9.53,3.73,-3.72,-3.64,-3.82,5.81,5.81,5.82
66.67,9.50,3.75,9.50,3.75,-3.72,-3.61,-3.79,5.78,5.78,5.76
67.33,9.48,3.79,9.48,3.75,-3.72,-3.59,-3.74,5.76,5.76,5.68
68.01,9.45,3.71,9.45,3.72,-3.70,-3.57,-3.70,5.75,5.75,5.74
68.69,9.42,3.64,9.42,3.66,-3.67,-3.54,-3.66,5.75,5.75,5.77
69.37,9.38,3.61,9.38,3.61,-3.62,-3.52,-3.61,5.76,5.76,5.77
70.07,9.35,3.58,9.35,3.58,-3.57,-3.49,-3.56,5.78,5.78,5.77
70.77,9.31,3.54,9.31,3.54,-3.51,-3.47,-3.51,5.80,5.80,5.77
71.48,9.27,3.50,9.27,3.47,-3.46,-3.45,-3.46,5.82,5.82,5.77
72.19,9.23,3.39,9.23,3.40,-3.42,-3.42,-3.41,5.82,5.82,5.84
72.91,9.19,3.32,9.19,3.33,-3.38,-3.40,-3.35,5.81,5.81,5.87
73.64,9.15,3.29,9.15,3.30,-3.36,-3.37,-3.30,5.79,5.79,5.86
74.38,9.12,3.32,9.12,3.32,-3.35,-3.35,-3.25,5.77,5.77,5.79
75.12,9.09,3.36,9.09,3.35,-3.34,-3.33,-3.20,5.75,5.75,5.73
75.87,9.06,3.38,9.06,3.37,-3.33,-3.30,-3.14,5.73,5.73,5.67
76.63,9.03,3.35,9.03,3.36,-3.32,-3.28,-3.09,5.71,5.71,5.67
77.40,9.00,3.33,9.00,3.33,-3.31,-3.25,-3.04,5.69,5.69,5.67
78.17,8.98,3.30,8.98,3.30,-3.30,-3.23,-2.99,5.68,5.68,5.67
78.95,8.95,3.28,8.95,3.28,-3.28,-3.20,-2.95,5.67,5.67,5.67
79.74,8.92,3.25,8.92,3.24,-3.26,-3.18,-2.90,5.66,5.66,5.67
80.54,8.89,3.22,8.89,3.21,-3.25,-3.15,-2.85,5.64,5.64,5.67
81.35,8.86,3.19,8.86,3.21,-3.24,-3.12,-2.81,5.62,5.62,5.67
82.16,8.83,3.22,8.83,3.22,-3.24,-3.10,-2.77,5.59,5.59,5.61
82.98,8.80,3.26,8.80,3.25,-3.24,-3.07,-2.73,5.55,5.55,5.54
83.81,8.77,3.29,8.77,3.27,-3.24,-3.05,-2.69,5.52,5.52,5.47
84.65,8.74,3.26,8.74,3.26,-3.23,-3.02,-2.65,5.50,5.50,5.47
85.50,8.71,3.23,8.71,3.24,-3.22,-3.00,-2.62,5.48,5.48,5.47
86.35,8.68,3.20,8.68,3.21,-3.20,-2.97,-2.59,5.48,5.48,5.47
87.22,8.65,3.18,8.65,3.16,-3.17,-2.94,-2.56,5.48,5.48,5.47
88.09,8.62,3.10,8.62,3.10,-3.11,-2.92,-2.53,5.51,5.51,5.52
88.97,8.60,3.02,8.60,3.05,-3.05,-2.89,-2.50,5.55,5.55,5.57
89.86,8.57,2.99,8.57,2.99,-2.97,-2.86,-2.47,5.60,5.59,5.57
90.76,8.52,2.95,8.52,2.93,-2.89,-2.84,-2.45,5.63,5.63,5.57
91.66,8.47,2.87,8.46,2.85,-2.82,-2.81,-2.43,5.65,5.64,5.60
92.58,8.40,2.73,8.40,2.75,-2.75,-2.78,-2.41,5.64,5.64,5.67
93.51,8.33,2.65,8.33,2.65,-2.70,-2.76,-2.39,5.63,5.63,5.67
94.44,8.27,2.60,8.27,2.59,-2.66,-2.73,-2.37,5.61,5.61,5.67
95.39,8.24,2.56,8.24,2.59,-2.64,-2.70,-2.36,5.59,5.60,5.67
96.34,8.22,2.61,8.23,2.61,-2.63,-2.67,-2.35,5.59,5.59,5.61
97.30,8.23,2.65,8.23,2.64,-2.63,-2.65,-2.34,5.60,5.60,5.57
98.28,8.24,2.66,8.24,2.67,-2.63,-2.62,-2.33,5.61,5.61,5.57
99.26,8.23,2.66,8.23,2.68,-2.62,-2.59,-2.32,5.61,5.61,5.57
100.25,8.20,2.68,8.20,2.67,-2.61,-2.56,-2.31,5.59,5.58,5.53
101.25,8.14,2.65,8.14,2.61,-2.59,-2.54,-2.30,5.55,5.55,5.49
102.27,8.06,2.53,8.07,2.55,-2.55,-2.51,-2.30,5.51,5.51,5.54
103.29,7.99,2.44,7.99,2.48,-2.50,-2.48,-2.29,5.48,5.49,5.55
104.32,7.92,2.45,7.92,2.42,-2.45,-2.45,-2.29,5.47,5.47,5.47
105.37,7.87,2.39,7.86,2.39,-2.40,-2.42,-2.29,5.47,5.47,5.47
106.42,7.82,2.34,7.82,2.35,-2.35,-2.40,-2.28,5.47,5.47,5.47
107.48,7.78,2.31,7.78,2.31,-2.31,-2.37,-2.28,5.48,5.48,5.47
108.56,7.75,2.28,7.75,2.28,-2.27,-2.34,-2.28,5.48,5.48,5.47
109.64,7.73,2.26,7.73,2.26,-2.25,-2.31,-2.28,5.48,5.48,5.47
110.74,7.71,2.23,7.71,2.23,-2.24,-2.28,-2.27,5.47,5.47,5.47
111.85,7.69,2.21,7.69,2.21,-2.23,-2.25,-2.27,5.45,5.45,5.47
112.97,7.66,2.19,7.66,2.20,-2.22,-2.23,-2.27,5.44,5.44,5.47
114.10,7.63,2.21,7.63,2.22,-2.22,-2.20,-2.26,5.41,5.41,5.42
115.24,7.60,2.24,7.60,2.24,-2.21,-2.17,-2.26,5.39,5.39,5.36
116.39,7.57,2.26,7.57,2.23,-2.20,-2.14,-2.25,5.37,5.37,5.30
117.55,7.54,2.21,7.53,2.22,-2.19,-2.11,-2.24,5.34,5.34,5.33
118.73,7.50,2.16,7.50,2.19,-2.19,-2.08,-2.23,5.31,5.31,5.34
119.92,7.46,2.18,7.46,2.15,-2.19,-2.05,-2.22,5.27,5.27,5.28
121.12,7.41,2.14,7.41,2.13,-2.18,-2.02,-2.20,5.23,5.23,5.27
122.33,7.36,2.10,7.36,2.13,-2.16,-2.00,-2.19,5.20,5.20,5.26
123.55,7.31,2.11,7.31,2.13,-2.13,-1.97,-2.17,5.17,5.17,5.20
124.79,7.25,2.16,7.26,2.14,-2.09,-1.94,-2.15,5.17,5.17,5.10
126.03,7.20,2.13,7.20,2.12,-2.03,-1.91,-2.13,5.17,5.17,5.07
127.29,7.15,2.06,7.15,2.06,-1.97,-1.88,-2.10,5.18,5.18,5.09
128.57,7.10,1.94,7.10,1.92,-1.90,-1.85,-2.08,5.20,5.20,5.15
129.85,7.04,1.78,7.04,1.78,-1.83,-1.82,-2.05,5.21,5.21,5.26
131.15,6.99,1.62,6.99,1.68,-1.77,-1.79,-2.02,5.22,5.21,5.37
132.46,6.93,1.63,6.93,1.63,-1.72,-1.76,-1.99,5.21,5.21,5.30
133.79,6.88,1.64,6.88,1.63,-1.68,-1.73,-1.96,5.20,5.20,5.23
135.12,6.82,1.65,6.82,1.66,-1.65,-1.70,-1.92,5.17,5.17,5.17
136.48,6.77,1.66,6.77,1.68,-1.63,-1.68,-1.88,5.14,5.14,5.10
137.84,6.71,1.68,6.71,1.67,-1.60,-1.65,-1.84,5.11,5.11,5.03
139.22,6.65,1.67,6.65,1.63,-1.56,-1.62,-1.80,5.09,5.09,4.99
140.61,6.59,1.54,6.59,1.57,-1.51,-1.59,-1.76,5.08,5.08,5.05
142.02,6.54,1.46,6.54,1.47,-1.45,-1.56,-1.72,5.08,5.08,5.07
143.44,6.48,1.39,6.48,1.36,-1.39,-1.53,-1.68,5.09,5.09,5.10
144.87,6.43,1.26,6.43,1.27,-1.33,-1.50,-1.63,5.10,5.10,5.17
146.32,6.37,1.20,6.37,1.21,-1.28,-1.47,-1.59,5.09,5.09,5.17
147.78,6.32,1.18,6.32,1.18,-1.24,-1.44,-1.54,5.08,5.08,5.13
149.26,6.26,1.20,6.26,1.20,-1.22,-1.41,-1.50,5.05,5.05,5.06
150.75,6.21,1.22,6.21,1.22,-1.20,-1.38,-1.45,5.01,5.01,4.99
152.26,6.16,1.23,6.16,1.24,-1.19,-1.35,-1.40,4.97,4.97,4.93
153.78,6.11,1.23,6.11,1.22,-1.17,-1.32,-1.36,4.94,4.94,4.88
155.32,6.07,1.19,6.07,1.17,-1.15,-1.29,-1.31,4.92,4.92,4.87
156.88,6.02,1.10,6.02,1.12,-1.11,-1.26,-1.27,4.91,4.91,4.92
158.44,5.98,1.02,5.98,1.07,-1.06,-1.23,-1.22,4.91,4.91,4.95
160.03,5.93,1.05,5.93,1.01,-1.00,-1.20,-1.18,4.92,4.92,4.88
161.63,5.88,0.95,5.88,0.94,-0.95,-1.17,-1.13,4.93,4.93,4.93
163.24,5.83,0.86,5.83,0.88,-0.90,-1.14,-1.09,4.93,4.93,4.97
164.88,5.78,0.81,5.78,0.81,-0.86,-1.11,-1.04,4.92,4.92,4.97
166.53,5.73,0.80,5.73,0.80,-0.84,-1.09,-1.00,4.89,4.89,4.92
168.19,5.67,0.80,5.67,0.81,-0.82,-1.06,-0.95,4.85,4.85,4.86
169.87,5.61,0.83,5.61,0.80,-0.79,-1.03,-0.91,4.82,4.82,4.78
171.57,5.55,0.77,5.55,0.79,-0.76,-1.00,-0.87,4.78,4.78,4.77
173.29,5.48,0.75,5.48,0.77,-0.72,-0.97,-0.83,4.76,4.76,4.73
175.02,5.42,0.75,5.42,0.73,-0.68,-0.94,-0.79,4.74,4.74,4.67
176.77,5.36,0.68,5.36,0.67,-0.63,-0.91,-0.75,4.73,4.73,4.67
178.54,5.29,0.57,5.29,0.57,-0.57,-0.88,-0.71,4.72,4.72,4.73
180.32,5.23,0.46,5.23,0.47,-0.52,-0.85,-0.67,4.71,4.71,4.77
182.13,5.17,0.39,5.17,0.41,-0.47,-0.82,-0.63,4.70,4.70,4.77
183.95,5.11,0.38,5.11,0.38,-0.42,-0.79,-0.59,4.68,4.68,4.73
185.79,5.04,0.39,5.04,0.38,-0.39,-0.75,-0.55,4.65,4.65,4.65
187.65,4.98,0.39,4.98,0.40,-0.36,-0.72,-0.51,4.62,4.62,4.59
189.52,4.91,0.39,4.91,0.38,-0.35,-0.69,-0.48,4.56,4.56,4.52
191.42,4.85,0.37,4.85,0.36,-0.35,-0.66,-0.44,4.50,4.50,4.47
193.33,4.78,0.31,4.78,0.33,-0.35,-0.63,-0.40,4.44,4.44,4.47
195.27,4.71,0.30,4.71,0.31,-0.34,-0.60,-0.37,4.38,4.37,4.41
197.22,4.65,0.31,4.65,0.31,-0.32,-0.57,-0.33,4.32,4.32,4.33
199.19,4.58,0.31,4.58,0.31,-0.30,-0.54,-0.30,4.28,4.28,4.27
201.18,4.51,0.31,4.51,0.30,-0.27,-0.51,-0.26,4.24,4.24,4.20
203.19,4.45,0.27,4.45,0.27,-0.24,-0.48,-0.23,4.21,4.21,4.17
205.23,4.38,0.21,4.38,0.21,-0.20,-0.45,-0.20,4.18,4.18,4.17
207.28,4.32,0.14,4.32,0.14,-0.16,-0.42,-0.16,4.16,4.16,4.17
209.35,4.25,0.08,4.25,0.08,-0.11,-0.39,-0.13,4.14,4.14,4.17
211.44,4.18,0.02,4.18,0.04,-0.05,-0.35,-0.10,4.13,4.13,4.16
213.56,4.11,0.02,4.11,0.00,0.01,-0.32,-0.07,4.12,4.12,4.09
215.69,4.04,-0.04,4.04,-0.05,0.06,-0.29,-0.04,4.10,4.10,4.07
217.85,3.96,-0.11,3.96,-0.11,0.12,-0.26,-0.01,4.08,4.08,4.07
220.03,3.89,-0.19,3.89,-0.17,0.16,-0.23,0.02,4.05,4.05,4.07
222.23,3.81,-0.21,3.81,-0.22,0.21,-0.20,0.05,4.02,4.02,4.02
224.45,3.74,-0.24,3.74,-0.26,0.25,-0.16,0.07,3.99,3.99,3.97
226.70,3.67,-0.31,3.67,-0.28,0.29,-0.13,0.10,3.96,3.96,3.97
228.96,3.61,-0.29,3.61,-0.30,0.31,-0.10,0.13,3.93,3.93,3.91
231.25,3.57,-0.30,3.57,-0.32,0.32,-0.07,0.15,3.89,3.89,3.87
233.57,3.54,-0.33,3.54,-0.33,0.31,-0.04,0.18,3.85,3.86,3.87
235.90,3.53,-0.34,3.53,-0.33,0.29,-0.00,0.20,3.82,3.82,3.87
238.26,3.54,-0.30,3.53,-0.29,0.25,0.03,0.23,3.79,3.78,3.83
240.64,3.54,-0.22,3.54,-0.23,0.20,0.06,0.25,3.75,3.75,3.76
243.05,3.55,-0.15,3.55,-0.15,0.16,0.09,0.27,3.70,3.70,3.70
245.48,3.54,-0.08,3.54,-0.08,0.11,0.12,0.29,3.65,3.65,3.62
247.93,3.53,-0.02,3.53,-0.02,0.06,0.16,0.31,3.59,3.59,3.55
250.41,3.51,0.02,3.50,-0.00,0.03,0.19,0.33,3.53,3.53,3.49
252.92,3.47,-0.01,3.47,0.00,0.01,0.22,0.35,3.48,3.48,3.47
255.45,3.42,-0.04,3.42,-0.01,0.02,0.25,0.36,3.44,3.44,3.46
258.00,3.37,-0.01,3.37,-0.04,0.05,0.29,0.38,3.42,3.41,3.37
260.58,3.31,-0.07,3.31,-0.07,0.09,0.32,0.39,3.39,3.39,3.37
263.19,3.25,-0.13,3.25,-0.12,0.13,0.35,0.41,3.37,3.37,3.37
265.82,3.18,-0.19,3.18,-0.20,0.17,0.38,0.42,3.35,3.35,3.37
268.48,3.12,-0.26,3.12,-0.25,0.21,0.42,0.44,3.33,3.33,3.37
271.16,3.05,-0.29,3.05,-0.28,0.25,0.45,0.45,3.31,3.31,3.35
273.87,2.99,-0.29,2.99,-0.29,0.28,0.48,0.46,3.27,3.27,3.28
276.61,2.93,-0.28,2.93,-0.30,0.30,0.51,0.48,3.23,3.23,3.21
279.38,2.86,-0.31,2.86,-0.32,0.32,0.55,0.49,3.18,3.18,3.17
282.17,2.80,-0.37,2.80,-0.34,0.33,0.58,0.50,3.13,3.13,3.17
284.99,2.74,-0.36,2.74,-0.35,0.35,0.61,0.51,3.09,3.09,3.10
287.84,2.68,-0.35,2.68,-0.36,0.38,0.64,0.52,3.05,3.05,3.03
290.72,2.62,-0.36,2.62,-0.37,0.42,0.67,0.54,3.03,3.03,2.97
293.63,2.56,-0.42,2.56,-0.41,0.47,0.70,0.55,3.02,3.02,2.97
296.57,2.50,-0.48,2.50,-0.49,0.52,0.73,0.56,3.02,3.01,2.97
299.53,2.44,-0.57,2.44,-0.58,0.57,0.76,0.57,3.00,3.00,3.01
302.53,2.38,-0.69,2.38,-0.65,0.60,0.79,0.58,2.98,2.98,3.06
305.55,2.32,-0.69,2.32,-0.69,0.63,0.82,0.59,2.94,2.94,3.01
308.61,2.26,-0.68,2.26,-0.70,0.64,0.85,0.61,2.90,2.90,2.94
311.69,2.20,-0.68,2.20,-0.68,0.65,0.88,0.62,2.85,2.85,2.88
314.81,2.14,-0.66,2.14,-0.64,0.66,0.91,0.63,2.80,2.80,2.80
317.96,2.09,-0.61,2.09,-0.60,0.66,0.93,0.65,2.75,2.75,2.70
321.14,2.03,-0.55,2.03,-0.58,0.66,0.96,0.66,2.69,2.69,2.57
324.35,1.97,-0.60,1.97,-0.62,0.67,0.99,0.68,2.64,2.64,2.57
327.59,1.92,-0.71,1.92,-0.69,0.68,1.01,0.69,2.60,2.60,2.63
330.87,1.86,-0.80,1.86,-0.76,0.70,1.04,0.71,2.57,2.57,2.66
334.18,1.81,-0.78,1.81,-0.79,0.74,1.06,0.72,2.55,2.55,2.59
337.52,1.75,-0.77,1.75,-0.78,0.78,1.08,0.74,2.54,2.54,2.52
340.90,1.70,-0.78,1.70,-0.79,0.83,1.10,0.76,2.52,2.52,2.47
344.30,1.64,-0.83,1.64,-0.83,0.86,1.12,0.78,2.50,2.50,2.47
347.75,1.59,-0.88,1.59,-0.88,0.88,1.14,0.80,2.47,2.47,2.47
351.23,1.54,-0.93,1.54,-0.94,0.91,1.16,0.82,2.45,2.45,2.47
354.74,1.49,-0.99,1.49,-0.97,0.93,1.18,0.84,2.42,2.42,2.47
358.28,1.44,-0.97,1.44,-0.96,0.97,1.20,0.86,2.40,2.40,2.41
361.87,1.38,-0.95,1.38,-0.97,1.00,1.21,0.88,2.38,2.38,2.34
365.49,1.33,-0.95,1.33,-0.99,1.03,1.23,0.90,2.36,2.36,2.28
369.14,1.28,-1.06,1.28,-1.04,1.05,1.24,0.93,2.33,2.33,2.34
372.83,1.23,-1.11,1.23,-1.08,1.06,1.26,0.95,2.29,2.29,2.34
376.56,1.18,-1.09,1.18,-1.10,1.06,1.27,0.98,2.24,2.24,2.26
380.33,1.13,-1.08,1.13,-1.10,1.07,1.28,1.00,2.20,2.20,2.20
384.13,1.08,-1.10,1.08,-1.09,1.08,1.29,1.03,2.16,2.16,2.17
387.97,1.03,-1.11,1.03,-1.08,1.09,1.29,1.05,2.12,2.12,2.14
391.85,0.98,-1.03,0.98,-1.06,1.10,1.30,1.08,2.08,2.08,2.01
395.77,0.93,-1.05,0.93,-1.06,1.11,1.31,1.11,2.04,2.04,1.97
399.73,0.88,-1.09,0.88,-1.09,1.12,1.31,1.13,2.00,2.00,1.97
403.72,0.83,-1.14,0.83,-1.14,1.13,1.31,1.16,1.96,1.96,1.97
407.76,0.79,-1.19,0.79,-1.18,1.14,1.32,1.19,1.92,1.92,1.97
411.84,0.74,-1.20,0.74,-1.20,1.14,1.32,1.22,1.88,1.88,1.94
415.96,0.69,-1.18,0.69,-1.19,1.15,1.32,1.24,1.85,1.85,1.87
420.12,0.65,-1.16,0.65,-1.16,1.16,1.31,1.27,1.81,1.81,1.81
424.32,0.60,-1.13,0.60,-1.13,1.17,1.31,1.30,1.77,1.77,1.74
428.56,0.56,-1.12,0.56,-1.14,1.18,1.31,1.32,1.74,1.74,1.67
432.85,0.51,-1.16,0.51,-1.16,1.19,1.30,1.35,1.70,1.70,1.67
437.18,0.47,-1.21,0.47,-1.21,1.21,1.30,1.37,1.67,1.67,1.67
441.55,0.42,-1.25,0.42,-1.25,1.23,1.29,1.40,1.65,1.65,1.67
445.96,0.38,-1.29,0.38,-1.27,1.26,1.28,1.42,1.64,1.64,1.67
450.42,0.34,-1.29,0.34,-1.29,1.28,1.27,1.44,1.62,1.62,1.63
454.93,0.29,-1.28,0.29,-1.30,1.30,1.26,1.46,1.60,1.60,1.57
459.48,0.25,-1.32,0.25,-1.30,1.31,1.25,1.47,1.56,1.56,1.57
464.07,0.21,-1.30,0.21,-1.32,1.30,1.24,1.49,1.51,1.51,1.52
468.71,0.17,-1.30,0.17,-1.33,1.29,1.23,1.50,1.46,1.46,1.47
473.40,0.13,-1.34,0.13,-1.30,1.28,1.22,1.51,1.41,1.41,1.47
478.13,0.09,-1.27,0.09,-1.26,1.27,1.20,1.52,1.36,1.36,1.36
482.91,0.05,-1.20,0.05,-1.22,1.26,1.19,1.53,1.31,1.31,1.25
487.74,0.01,-1.17,0.01,-1.18,1.25,1.18,1.53,1.26,1.26,1.18
492.62,-0.03,-1.20,-0.03,-1.20,1.23,1.16,1.53,1.20,1.20,1.17
497.55,-0.07,-1.24,-0.07,-1.24,1.21,1.14,1.53,1.15,1.15,1.17
502.52,-0.10,-1.27,-0.10,-1.25,1.19,1.13,1.52,1.09,1.09,1.17
507.55,-0.14,-1.23,-0.14,-1.22,1.17,1.11,1.51,1.04,1.04,1.09
512.62,-0.17,-1.16,-0.17,-1.17,1.16,1.10,1.50,0.98,0.98,0.98
517.75,-0.21,-1.08,-0.21,-1.12,1.14,1.08,1.49,0.93,0.93,0.87
522.93,-0.24,-1.12,-0.24,-1.10,1.12,1.06,1.47,0.88,0.88,0.87
528.16,-0.28,-1.10,-0.28,-1.08,1.11,1.04,1.45,0.83,0.83,0.82
533.44,-0.31,-1.07,-0.31,-1.07,1.10,1.02,1.43,0.79,0.79,0.76
538.77,-0.34,-1.03,-0.34,-1.08,1.10,1.01,1.40,0.76,0.76,0.69
