frequency,raw,error,smoothed,error_smoothed,equalization,parametric_eq,fixed_band_eq,equalized_raw,equalized_smoothed,target
20.00,8.37,2.94,8.36,2.92,-2.95,-2.92,-1.17,5.43,5.42,5.43
20.20,8.55,3.06,8.56,3.07,-3.10,-3.08,-1.20,5.45,5.46,5.48
20.40,8.71,3.18,8.72,3.21,-3.23,-3.24,-1.24,5.49,5.50,5.53
20.61,8.87,3.34,8.86,3.33,-3.33,-3.36,-1.27,5.54,5.53,5.53
20.81,8.98,3.45,8.98,3.45,-3.41,-3.49,-1.31,5.58,5.58,5.53
21.02,9.06,3.53,9.06,3.53,-3.46,-3.53,-1.35,5.60,5.60,5.53
21.23,9.11,3.57,9.10,3.54,-3.49,-3.57,-1.39,5.62,5.61,5.54
21.44,9.11,3.51,9.11,3.52,-3.49,-3.53,-1.43,5.61,5.61,5.59
21.66,9.07,3.44,9.08,3.46,-3.46,-3.49,-1.47,5.62,5.62,5.63
21.87,9.03,3.39,9.03,3.39,-3.39,-3.40,-1.51,5.64,5.63,5.63
22.09,8.96,3.33,8.96,3.31,-3.31,-3.31,-1.56,5.65,5.65,5.63
22.31,8.89,3.22,8.89,3.21,-3.22,-3.22,-1.60,5.67,5.67,5.67
22.54,8.81,3.08,8.81,3.10,-3.12,-3.13,-1.65,5.69,5.69,5.73
22.76,8.74,3.01,8.74,3.01,-3.03,-3.05,-1.70,5.71,5.71,5.73
22.99,8.68,2.94,8.68,2.94,-2.95,-2.98,-1.75,5.73,5.73,5.73
23.22,8.63,2.89,8.63,2.89,-2.88,-2.93,-1.80,5.74,5.74,5.73
23.45,8.59,2.86,8.59,2.84,-2.84,-2.88,-1.85,5.75,5.75,5.73
23.69,8.58,2.79,8.58,2.80,-2.82,-2.84,-1.90,5.76,5.76,5.80
23.92,8.60,2.77,8.60,2.78,-2.83,-2.81,-1.95,5.77,5.77,5.83
24.16,8.66,2.82,8.66,2.80,-2.86,-2.78,-2.01,5.80,5.80,5.83
24.40,8.74,2.84,8.75,2.86,-2.89,-2.75,-2.06,5.85,5.85,5.90
24.65,8.85,2.92,8.85,2.94,-2.93,-2.72,-2.12,5.92,5.92,5.93
24.89,8.96,3.03,8.96,3.00,-2.96,-2.70,-2.17,6.00,6.00,5.93
25.14,9.04,3.05,9.05,3.04,-2.97,-2.68,-2.23,6.07,6.07,5.99
25.39,9.10,3.04,9.09,3.03,-2.96,-2.65,-2.29,6.14,6.13,6.07
25.65,9.08,2.95,9.08,2.97,-2.92,-2.63,-2.35,6.16,6.16,6.13
25.91,9.03,2.89,9.03,2.89,-2.85,-2.61,-2.40,6.18,6.17,6.13
26.16,8.93,2.79,8.92,2.78,-2.76,-2.60,-2.46,6.16,6.16,6.13
26.43,8.80,2.66,8.80,2.67,-2.67,-2.58,-2.52,6.12,6.13,6.13
26.69,8.68,2.55,8.68,2.54,-2.60,-2.57,-2.57,6.08,6.08,6.13
26.96,8.58,2.45,8.59,2.45,-2.54,-2.56,-2.63,6.04,6.05,6.13
27.23,8.53,2.40,8.54,2.41,-2.50,-2.55,-2.68,6.03,6.04,6.13
27.50,8.54,2.40,8.54,2.42,-2.48,-2.54,-2.74,6.05,6.05,6.13
27.77,8.56,2.48,8.56,2.47,-2.47,-2.54,-2.79,6.09,6.08,6.08
28.05,8.58,2.55,8.58,2.53,-2.47,-2.53,-2.84,6.12,6.11,6.03
28.33,8.58,2.55,8.58,2.56,-2.46,-2.53,-2.88,6.12,6.12,6.03
28.62,8.56,2.53,8.56,2.52,-2.45,-2.53,-2.93,6.12,6.11,6.03
28.90,8.51,2.45,8.51,2.44,-2.42,-2.53,-2.97,6.10,6.09,6.06
29.19,8.46,2.33,8.46,2.36,-2.36,-2.53,-3.01,6.10,6.10,6.13
29.48,8.41,2.27,8.42,2.28,-2.29,-2.54,-3.05,6.11,6.13,6.13
29.78,8.40,2.22,8.40,2.20,-2.21,-2.54,-3.08,6.19,6.19,6.18
30.08,8.41,2.14,8.41,2.14,-2.13,-2.55,-3.11,6.27,6.28,6.26
30.38,8.44,2.05,8.44,2.08,-2.07,-2.55,-3.14,6.37,6.37,6.38
30.68,8.47,2.04,8.46,2.03,-2.03,-2.56,-3.16,6.44,6.43,6.43
30.99,8.49,2.04,8.49,2.01,-2.03,-2.56,-3.18,6.46,6.46,6.45
31.30,8.51,2.00,8.51,2.03,-2.06,-2.57,-3.19,6.45,6.45,6.51
31.61,8.55,2.07,8.56,2.08,-2.14,-2.58,-3.20,6.41,6.41,6.48
31.93,8.62,2.19,8.63,2.17,-2.26,-2.58,-3.21,6.37,6.38,6.43
32.24,8.75,2.32,8.75,2.33,-2.40,-2.59,-3.21,6.35,6.36,6.43
32.57,8.89,2.51,8.89,2.52,-2.55,-2.60,-3.21,6.35,6.35,6.38
32.89,9.04,2.73,9.04,2.73,-2.69,-2.61,-3.20,6.36,6.35,6.31
33.22,9.15,2.92,9.15,2.92,-2.81,-2.61,-3.20,6.34,6.34,6.23
33.55,9.22,3.06,9.21,3.03,-2.90,-2.62,-3.19,6.31,6.30,6.16
33.89,9.21,3.08,9.21,3.07,-2.97,-2.63,-3.17,6.24,6.24,6.13
34.23,9.16,3.03,9.16,3.04,-3.00,-2.64,-3.15,6.16,6.16,6.13
34.57,9.10,2.97,9.10,2.97,-3.01,-2.64,-3.13,6.09,6.09,6.13
34.92,9.05,2.92,9.06,2.92,-3.01,-2.65,-3.11,6.04,6.05,6.13
35.27,9.04,2.91,9.04,2.91,-3.00,-2.66,-3.09,6.04,6.05,6.13
35.62,9.06,2.92,9.06,2.93,-2.99,-2.66,-3.07,6.07,6.07,6.13
35.97,9.11,2.98,9.11,2.97,-2.99,-2.67,-3.04,6.12,6.12,6.13
36.33,9.17,3.02,9.17,3.00,-3.00,-2.67,-3.01,6.18,6.17,6.16
36.70,9.23,3.01,9.23,3.03,-2.99,-2.68,-2.99,6.23,6.23,6.22
37.06,9.26,3.02,9.25,3.03,-2.97,-2.69,-2.96,6.29,6.29,6.23
37.43,9.25,3.01,9.24,3.00,-2.91,-2.69,-2.93,6.33,6.33,6.23
37.81,9.18,2.94,9.18,2.92,-2.84,-2.70,-2.91,6.34,6.34,6.23
38.19,9.09,2.80,9.08,2.80,-2.75,-2.70,-2.88,6.34,6.34,6.29
38.57,8.96,2.63,8.96,2.64,-2.66,-2.70,-2.85,6.30,6.30,6.33
38.95,8.85,2.52,8.85,2.51,-2.59,-2.71,-2.83,6.26,6.26,6.33
39.34,8.75,2.42,8.76,2.43,-2.55,-2.71,-2.81,6.20,6.21,6.33
39.74,8.71,2.42,8.72,2.43,-2.55,-2.71,-2.78,6.16,6.17,6.29
40.14,8.73,2.50,8.73,2.50,-2.58,-2.72,-2.76,6.14,6.15,6.23
40.54,8.78,2.62,8.78,2.62,-2.64,-2.72,-2.74,6.14,6.13,6.16
40.94,8.85,2.75,8.84,2.75,-2.72,-2.72,-2.72,6.13,6.13,6.09
41.35,8.90,2.87,8.90,2.85,-2.78,-2.72,-2.71,6.12,6.12,6.03
41.76,8.94,2.91,8.94,2.92,-2.81,-2.72,-2.69,6.13,6.13,6.03
42.18,8.95,2.92,8.96,2.92,-2.81,-2.72,-2.68,6.14,6.15,6.03
42.60,8.95,2.88,8.95,2.85,-2.76,-2.72,-2.67,6.19,6.18,6.07
43.03,8.92,2.71,8.92,2.73,-2.68,-2.73,-2.66,6.24,6.23,6.21
43.46,8.86,2.57,8.86,2.57,-2.58,-2.73,-2.65,6.28,6.28,6.29
43.90,8.79,2.43,8.79,2.41,-2.48,-2.73,-2.65,6.30,6.30,6.36
44.33,8.70,2.28,8.70,2.31,-2.40,-2.73,-2.64,6.30,6.30,6.42
44.78,8.62,2.25,8.62,2.25,-2.34,-2.72,-2.64,6.28,6.28,6.37
45.23,8.55,2.25,8.56,2.24,-2.31,-2.72,-2.65,6.24,6.24,6.30
45.68,8.52,2.28,8.52,2.29,-2.31,-2.72,-2.65,6.21,6.22,6.24
46.13,8.51,2.35,8.51,2.36,-2.32,-2.72,-2.65,6.19,6.19,6.16
46.60,8.51,2.42,8.51,2.41,-2.34,-2.72,-2.66,6.17,6.17,6.09
47.06,8.50,2.47,8.50,2.45,-2.37,-2.72,-2.67,6.14,6.13,6.03
47.53,8.47,2.44,8.46,2.45,-2.39,-2.72,-2.68,6.09,6.08,6.03
48.01,8.40,2.41,8.40,2.42,-2.41,-2.72,-2.69,6.00,6.00,5.99
48.49,8.33,2.40,8.34,2.38,-2.43,-2.72,-2.71,5.90,5.91,5.93
48.97,8.29,2.36,8.29,2.38,-2.45,-2.72,-2.72,5.84,5.84,5.93
49.46,8.28,2.40,8.30,2.41,-2.48,-2.71,-2.74,5.80,5.81,5.88
49.96,8.33,2.50,8.34,2.48,-2.51,-2.71,-2.76,5.82,5.83,5.83
50.46,8.40,2.57,8.40,2.59,-2.55,-2.71,-2.78,5.86,5.85,5.83
50.96,8.46,2.69,8.45,2.67,-2.59,-2.71,-2.80,5.87,5.86,5.78
51.47,8.48,2.75,8.47,2.72,-2.65,-2.71,-2.82,5.83,5.82,5.73
51.99,8.45,2.72,8.45,2.74,-2.72,-2.71,-2.85,5.73,5.73,5.73
52.51,8.42,2.75,8.42,2.75,-2.80,-2.71,-2.87,5.62,5.62,5.67
53.03,8.39,2.79,8.40,2.79,-2.89,-2.71,-2.89,5.50,5.52,5.60
53.56,8.41,2.89,8.41,2.88,-2.98,-2.71,-2.92,5.43,5.44,5.53
54.10,8.45,2.99,8.45,3.01,-3.07,-2.71,-2.94,5.38,5.38,5.46
54.64,8.50,3.15,8.50,3.16,-3.15,-2.71,-2.96,5.35,5.35,5.35
55.18,8.54,3.32,8.53,3.29,-3.22,-2.71,-2.99,5.32,5.31,5.22
55.74,8.53,3.38,8.53,3.37,-3.26,-2.71,-3.01,5.27,5.27,5.15
56.29,8.51,3.37,8.51,3.37,-3.27,-2.71,-3.03,5.24,5.24,5.13
56.86,8.45,3.30,8.45,3.29,-3.23,-2.71,-3.05,5.23,5.22,5.15
57.42,8.37,3.15,8.37,3.18,-3.15,-2.72,-3.06,5.23,5.23,5.22
58.00,8.28,3.05,8.28,3.04,-3.04,-2.72,-3.08,5.24,5.24,5.23
58.58,8.18,2.92,8.18,2.90,-2.93,-2.72,-3.09,5.25,5.25,5.26
59.16,8.08,2.75,8.08,2.77,-2.83,-2.73,-3.10,5.25,5.25,5.33
59.76,7.99,2.65,7.99,2.66,-2.75,-2.73,-3.11,5.24,5.24,5.33
60.35,7.92,2.61,7.92,2.62,-2.71,-2.73,-3.11,5.21,5.21,5.31
60.96,7.87,2.64,7.88,2.64,-2.70,-2.74,-3.12,5.17,5.18,5.24
61.57,7.86,2.70,7.86,2.70,-2.71,-2.74,-3.11,5.15,5.15,5.16
62.18,7.87,2.78,7.87,2.77,-2.74,-2.75,-3.11,5.13,5.12,5.09
62.80,7.88,2.85,7.88,2.83,-2.78,-2.76,-3.10,5.11,5.10,5.03
63.43,7.89,2.86,7.89,2.87,-2.81,-2.76,-3.09,5.09,5.08,5.03
64.07,7.89,2.86,7.89,2.86,-2.82,-2.77,-3.08,5.07,5.07,5.03
64.71,7.88,2.84,7.89,2.82,-2.81,-2.78,-3.06,5.08,5.08,5.05
65.35,7.87,2.75,7.87,2.78,-2.76,-2.78,-3.04,5.10,5.11,5.12
66.01,7.85,2.72,7.85,2.71,-2.70,-2.79,-3.02,5.15,5.15,5.13
66.67,7.82,2.66,7.81,2.64,-2.63,-2.80,-2.99,5.19,5.19,5.15
67.33,7.77,2.55,7.77,2.57,-2.55,-2.81,-2.96,5.22,5.22,5.23
68.01,7.73,2.49,7.73,2.48,-2.49,-2.82,-2.93,5.24,5.24,5.23
68.69,7.68,2.42,7.69,2.40,-2.44,-2.82,-2.90,5.25,5.25,5.26
69.37,7.66,2.32,7.66,2.37,-2.41,-2.83,-2.86,5.24,5.25,5.33
70.07,7.64,2.37,7.64,2.37,-2.41,-2.84,-2.83,5.22,5.23,5.27
70.77,7.63,2.43,7.63,2.41,-2.45,-2.85,-2.79,5.18,5.18,5.20
71.48,7.62,2.48,7.61,2.47,-2.50,-2.85,-2.75,5.11,5.11,5.14
72.19,7.60,2.53,7.59,2.56,-2.58,-2.86,-2.71,5.02,5.01,5.06
72.91,7.57,2.66,7.57,2.67,-2.66,-2.87,-2.67,4.91,4.91,4.91
73.64,7.54,2.82,7.54,2.78,-2.74,-2.87,-2.63,4.80,4.80,4.72
74.38,7.52,2.86,7.52,2.87,-2.80,-2.88,-2.59,4.71,4.72,4.65
75.12,7.50,2.91,7.50,2.92,-2.85,-2.88,-2.54,4.65,4.65,4.59
75.87,7.47,2.94,7.47,2.92,-2.89,-2.88,-2.50,4.59,4.59,4.53
76.63,7.45,2.91,7.45,2.91,-2.91,-2.88,-2.46,4.54,4.54,4.53
77.40,7.42,2.89,7.42,2.89,-2.93,-2.88,-2.42,4.49,4.49,4.53
78.17,7.38,2.87,7.38,2.88,-2.95,-2.88,-2.38,4.43,4.44,4.51
78.95,7.34,2.89,7.34,2.91,-2.97,-2.87,-2.34,4.37,4.37,4.45
79.74,7.28,2.97,7.28,2.97,-3.00,-2.87,-2.30,4.29,4.28,4.32
80.54,7.22,3.04,7.22,3.03,-3.03,-2.86,-2.27,4.18,4.18,4.18
81.35,7.14,3.10,7.14,3.08,-3.06,-2.85,-2.23,4.08,4.09,4.04
82.16,7.07,3.10,7.07,3.11,-3.07,-2.84,-2.19,4.00,4.00,3.97
82.98,7.01,3.10,7.01,3.12,-3.06,-2.83,-2.16,3.94,3.94,3.90
83.81,6.95,3.11,6.95,3.10,-3.04,-2.81,-2.13,3.91,3.91,3.83
84.65,6.90,3.07,6.91,3.04,-3.00,-2.80,-2.10,3.90,3.90,3.83
85.50,6.87,2.95,6.87,2.94,-2.96,-2.78,-2.07,3.91,3.91,3.92
86.35,6.84,2.80,6.84,2.84,-2.92,-2.76,-2.04,3.92,3.92,4.03
87.22,6.80,2.77,6.80,2.77,-2.88,-2.74,-2.01,3.92,3.92,4.03
88.09,6.75,2.76,6.74,2.77,-2.83,-2.71,-1.99,3.92,3.92,3.98
88.97,6.68,2.79,6.68,2.80,-2.78,-2.69,-1.96,3.90,3.90,3.89
89.86,6.60,2.85,6.60,2.81,-2.73,-2.66,-1.94,3.88,3.88,3.76
90.76,6.53,2.79,6.53,2.78,-2.68,-2.63,-1.92,3.84,3.84,3.73
91.66,6.46,2.70,6.46,2.69,-2.65,-2.60,-1.90,3.81,3.81,3.76
92.58,6.39,2.57,6.40,2.57,-2.61,-2.57,-1.88,3.78,3.79,3.83
93.51,6.35,2.45,6.35,2.47,-2.56,-2.54,-1.87,3.78,3.78,3.90
94.44,6.31,2.41,6.31,2.44,-2.51,-2.50,-1.85,3.81,3.81,3.90
95.39,6.28,2.44,6.28,2.44,-2.44,-2.47,-1.84,3.84,3.84,3.83
96.34,6.24,2.48,6.24,2.44,-2.38,-2.44,-1.83,3.86,3.86,3.77
97.30,6.20,2.43,6.19,2.40,-2.34,-2.40,-1.81,3.86,3.86,3.77
98.28,6.13,2.29,6.13,2.32,-2.30,-2.37,-1.81,3.83,3.83,3.83
99.26,6.05,2.22,6.05,2.23,-2.27,-2.33,-1.80,3.78,3.78,3.83
100.25,5.97,2.18,5.97,2.18,-2.23,-2.29,-1.79,3.73,3.74,3.79
101.25,5.88,2.16,5.88,2.15,-2.18,-2.26,-1.78,3.70,3.70,3.72
102.27,5.80,2.13,5.80,2.14,-2.12,-2.22,-1.78,3.67,3.67,3.67
103.29,5.71,2.11,5.71,2.11,-2.06,-2.19,-1.77,3.65,3.65,3.60
104.32,5.63,2.09,5.62,2.07,-2.01,-2.15,-1.77,3.62,3.62,3.53
105.37,5.53,2.00,5.53,2.00,-1.96,-2.12,-1.77,3.57,3.57,3.53
106.42,5.43,1.90,5.43,1.90,-1.93,-2.08,-1.76,3.51,3.51,3.53
107.48,5.33,1.82,5.33,1.83,-1.89,-2.05,-1.76,3.44,3.44,3.51
108.56,5.23,1.77,5.23,1.81,-1.87,-2.02,-1.76,3.36,3.36,3.46
109.64,5.13,1.83,5.13,1.80,-1.85,-1.98,-1.76,3.28,3.28,3.30
110.74,5.04,1.85,5.04,1.84,-1.84,-1.95,-1.76,3.21,3.21,3.20
111.85,4.96,1.82,4.96,1.88,-1.83,-1.92,-1.76,3.13,3.13,3.14
112.97,4.88,1.94,4.88,1.88,-1.82,-1.89,-1.75,3.06,3.05,2.94
114.10,4.80,1.86,4.80,1.85,-1.81,-1.86,-1.75,2.99,2.99,2.93
115.24,4.72,1.78,4.72,1.80,-1.78,-1.83,-1.75,2.94,2.94,2.93
116.39,4.64,1.71,4.64,1.73,-1.74,-1.80,-1.75,2.90,2.90,2.93
117.55,4.56,1.68,4.56,1.68,-1.68,-1.78,-1.75,2.88,2.88,2.88
118.73,4.48,1.65,4.49,1.63,-1.62,-1.75,-1.75,2.87,2.87,2.83
119.92,4.41,1.58,4.41,1.57,-1.57,-1.73,-1.74,2.84,2.84,2.83
121.12,4.33,1.50,4.33,1.49,-1.52,-1.70,-1.74,2.81,2.81,2.83
122.33,4.25,1.44,4.25,1.45,-1.50,-1.68,-1.73,2.75,2.75,2.82
123.55,4.17,1.41,4.17,1.45,-1.49,-1.65,-1.73,2.67,2.67,2.76
124.79,4.08,1.50,4.08,1.47,-1.50,-1.63,-1.72,2.58,2.58,2.58
126.03,4.00,1.52,4.00,1.51,-1.51,-1.61,-1.71,2.49,2.49,2.48
127.29,3.92,1.51,3.92,1.54,-1.52,-1.59,-1.71,2.40,2.40,2.40
128.57,3.84,1.57,3.84,1.56,-1.52,-1.57,-1.70,2.32,2.32,2.28
129.85,3.77,1.58,3.77,1.57,-1.52,-1.55,-1.69,2.25,2.25,2.19
131.15,3.70,1.56,3.70,1.55,-1.50,-1.53,-1.68,2.20,2.20,2.13
132.46,3.62,1.49,3.62,1.49,-1.47,-1.52,-1.67,2.16,2.15,2.13
133.79,3.55,1.41,3.55,1.41,-1.43,-1.50,-1.65,2.12,2.12,2.13
135.12,3.47,1.34,3.47,1.33,-1.38,-1.49,-1.64,2.09,2.09,2.13
136.48,3.40,1.26,3.40,1.30,-1.33,-1.47,-1.63,2.06,2.06,2.13
137.84,3.32,1.27,3.32,1.28,-1.30,-1.46,-1.61,2.03,2.03,2.05
139.22,3.26,1.32,3.26,1.27,-1.28,-1.44,-1.60,1.98,1.98,1.93
140.61,3.19,1.25,3.19,1.27,-1.27,-1.43,-1.59,1.92,1.92,1.93
142.02,3.12,1.24,3.12,1.25,-1.28,-1.42,-1.57,1.85,1.85,1.88
143.44,3.06,1.25,3.06,1.25,-1.28,-1.41,-1.56,1.79,1.79,1.81
144.87,3.01,1.27,3.01,1.30,-1.27,-1.40,-1.55,1.73,1.73,1.74
146.32,2.95,1.35,2.95,1.32,-1.26,-1.39,-1.53,1.70,1.69,1.60
147.78,2.90,1.33,2.90,1.30,-1.24,-1.38,-1.52,1.66,1.66,1.57
149.26,2.86,1.22,2.86,1.26,-1.22,-1.37,-1.50,1.64,1.64,1.63
150.75,2.81,1.18,2.81,1.17,-1.20,-1.36,-1.49,1.61,1.61,1.63
152.26,2.77,1.13,2.77,1.13,-1.18,-1.36,-1.48,1.58,1.58,1.63
153.78,2.72,1.09,2.72,1.13,-1.16,-1.35,-1.47,1.56,1.56,1.63
155.32,2.67,1.17,2.67,1.14,-1.15,-1.35,-1.46,1.52,1.52,1.50
156.88,2.63,1.19,2.63,1.17,-1.16,-1.34,-1.44,1.47,1.47,1.43
158.44,2.59,1.18,2.59,1.20,-1.18,-1.34,-1.43,1.41,1.41,1.41
160.03,2.55,1.22,2.55,1.20,-1.21,-1.33,-1.42,1.34,1.34,1.33
161.63,2.52,1.24,2.52,1.24,-1.26,-1.33,-1.42,1.25,1.25,1.28
163.24,2.49,1.28,2.49,1.31,-1.32,-1.33,-1.41,1.16,1.16,1.21
164.88,2.46,1.41,2.46,1.38,-1.39,-1.33,-1.40,1.07,1.07,1.05
166.53,2.44,1.46,2.44,1.45,-1.46,-1.32,-1.40,0.98,0.98,0.98
168.19,2.43,1.50,2.43,1.53,-1.53,-1.32,-1.39,0.89,0.89,0.92
169.87,2.42,1.58,2.42,1.61,-1.60,-1.32,-1.39,0.82,0.82,0.84
171.57,2.41,1.73,2.41,1.69,-1.66,-1.32,-1.39,0.75,0.75,0.68
173.29,2.40,1.77,2.40,1.75,-1.71,-1.33,-1.38,0.69,0.69,0.63
175.02,2.39,1.76,2.39,1.77,-1.75,-1.33,-1.38,0.65,0.65,0.63
176.77,2.38,1.75,2.38,1.75,-1.77,-1.33,-1.38,0.62,0.62,0.63
178.54,2.37,1.74,2.37,1.75,-1.77,-1.33,-1.38,0.60,0.60,0.63
180.32,2.36,1.74,2.36,1.76,-1.76,-1.34,-1.39,0.60,0.60,0.62
182.13,2.34,1.78,2.34,1.75,-1.73,-1.34,-1.39,0.61,0.61,0.56
183.95,2.32,1.74,2.32,1.73,-1.70,-1.34,-1.39,0.62,0.62,0.58
185.79,2.30,1.66,2.30,1.69,-1.67,-1.35,-1.40,0.62,0.62,0.63
187.65,2.27,1.64,2.27,1.64,-1.65,-1.35,-1.41,0.62,0.62,0.63
189.52,2.24,1.61,2.25,1.60,-1.64,-1.36,-1.41,0.61,0.61,0.63
191.42,2.23,1.59,2.23,1.59,-1.62,-1.37,-1.42,0.60,0.60,0.63
193.33,2.21,1.58,2.21,1.60,-1.62,-1.37,-1.43,0.60,0.60,0.63
195.27,2.21,1.64,2.21,1.63,-1.63,-1.38,-1.44,0.58,0.58,0.57
197.22,2.21,1.68,2.21,1.66,-1.66,-1.39,-1.45,0.56,0.56,0.53
199.19,2.22,1.68,2.22,1.68,-1.69,-1.40,-1.46,0.53,0.52,0.53
201.18,2.22,1.69,2.22,1.70,-1.72,-1.41,-1.47,0.50,0.50,0.53
203.19,2.23,1.73,2.23,1.75,-1.75,-1.41,-1.49,0.48,0.48,0.49
205.23,2.23,1.81,2.23,1.81,-1.76,-1.42,-1.50,0.47,0.47,0.43
207.28,2.23,1.88,2.23,1.85,-1.78,-1.43,-1.51,0.46,0.46,0.36
209.35,2.23,1.85,2.23,1.83,-1.80,-1.45,-1.53,0.43,0.43,0.38
211.44,2.23,1.78,2.23,1.77,-1.82,-1.46,-1.54,0.41,0.41,0.45
213.56,2.21,1.69,2.21,1.74,-1.84,-1.47,-1.56,0.37,0.37,0.52
215.69,2.18,1.76,2.19,1.78,-1.85,-1.48,-1.57,0.33,0.34,0.42
217.85,2.15,1.88,2.15,1.86,-1.85,-1.49,-1.59,0.30,0.30,0.28
220.03,2.11,1.98,2.11,1.93,-1.85,-1.51,-1.60,0.26,0.26,0.13
222.23,2.06,1.92,2.06,1.93,-1.85,-1.52,-1.62,0.21,0.21,0.13
224.45,2.00,1.87,2.00,1.88,-1.85,-1.53,-1.63,0.15,0.15,0.13
226.70,1.94,1.81,1.94,1.83,-1.86,-1.55,-1.65,0.08,0.09,0.13
228.96,1.89,1.82,1.89,1.81,-1.86,-1.56,-1.66,0.03,0.03,0.07
231.25,1.84,1.81,1.84,1.79,-1.85,-1.58,-1.67,-0.01,-0.01,0.03
233.57,1.80,1.77,1.80,1.80,-1.83,-1.59,-1.69,-0.03,-0.03,0.03
235.90,1.77,1.80,1.77,1.82,-1.81,-1.61,-1.70,-0.03,-0.03,-0.03
238.26,1.74,1.85,1.74,1.84,-1.78,-1.63,-1.71,-0.03,-0.03,-0.11
240.64,1.72,1.87,1.72,1.83,-1.75,-1.64,-1.72,-0.03,-0.03,-0.15
243.05,1.69,1.78,1.69,1.77,-1.72,-1.66,-1.73,-0.03,-0.03,-0.09
245.48,1.65,1.67,1.65,1.68,-1.69,-1.68,-1.74,-0.04,-0.04,-0.02
247.93,1.62,1.59,1.62,1.60,-1.67,-1.70,-1.75,-0.05,-0.05,0.03
250.41,1.59,1.55,1.59,1.55,-1.66,-1.72,-1.75,-0.07,-0.07,0.03
252.92,1.55,1.57,1.55,1.58,-1.64,-1.73,-1.76,-0.09,-0.09,-0.01
255.45,1.52,1.61,1.52,1.64,-1.63,-1.75,-1.76,-0.12,-0.12,-0.10
258.00,1.48,1.75,1.48,1.69,-1.63,-1.77,-1.77,-0.15,-0.15,-0.27
260.58,1.45,1.72,1.45,1.72,-1.64,-1.79,-1.77,-0.19,-0.19,-0.27
263.19,1.42,1.69,1.42,1.70,-1.66,-1.81,-1.77,-0.23,-0.23,-0.27
265.82,1.40,1.66,1.40,1.66,-1.66,-1.83,-1.78,-0.27,-0.27,-0.27
268.48,1.37,1.63,1.37,1.65,-1.67,-1.85,-1.78,-0.30,-0.30,-0.27
271.16,1.34,1.63,1.34,1.64,-1.67,-1.87,-1.78,-0.33,-0.33,-0.30
273.87,1.31,1.67,1.31,1.64,-1.67,-1.90,-1.78,-0.36,-0.36,-0.36
276.61,1.28,1.65,1.28,1.66,-1.68,-1.92,-1.78,-0.39,-0.39,-0.37
279.38,1.26,1.66,1.26,1.67,-1.69,-1.94,-1.78,-0.43,-0.43,-0.40
282.17,1.24,1.71,1.24,1.71,-1.71,-1.96,-1.78,-0.47,-0.47,-0.47
284.99,1.22,1.76,1.22,1.77,-1.73,-1.98,-1.77,-0.52,-0.52,-0.54
287.84,1.20,1.81,1.20,1.80,-1.76,-2.00,-1.77,-0.56,-0.56,-0.61
290.72,1.18,1.83,1.18,1.80,-1.78,-2.03,-1.77,-0.60,-0.60,-0.65
293.63,1.17,1.74,1.17,1.79,-1.81,-2.05,-1.77,-0.64,-0.64,-0.58
296.57,1.15,1.78,1.15,1.79,-1.83,-2.07,-1.77,-0.68,-0.68,-0.63
299.53,1.14,1.83,1.14,1.82,-1.84,-2.09,-1.78,-0.70,-0.70,-0.70
302.53,1.13,1.88,1.13,1.87,-1.85,-2.11,-1.78,-0.72,-0.72,-0.76
305.55,1.12,1.89,1.12,1.89,-1.85,-2.14,-1.78,-0.73,-0.73,-0.77
308.61,1.12,1.88,1.12,1.89,-1.86,-2.16,-1.78,-0.75,-0.75,-0.77
311.69,1.11,1.88,1.11,1.88,-1.88,-2.18,-1.79,-0.76,-0.76,-0.77
314.81,1.12,1.88,1.12,1.87,-1.89,-2.20,-1.79,-0.77,-0.77,-0.77
317.96,1.12,1.89,1.12,1.89,-1.90,-2.22,-1.80,-0.78,-0.78,-0.77
321.14,1.13,1.90,1.13,1.92,-1.93,-2.25,-1.81,-0.80,-0.80,-0.77
324.35,1.14,1.99,1.14,1.96,-1.97,-2.27,-1.82,-0.84,-0.84,-0.85
327.59,1.15,2.01,1.15,2.00,-2.04,-2.29,-1.83,-0.89,-0.89,-0.87
330.87,1.16,2.04,1.16,2.06,-2.11,-2.31,-1.84,-0.95,-0.95,-0.88
334.18,1.17,2.12,1.17,2.14,-2.19,-2.33,-1.86,-1.01,-1.01,-0.95
337.52,1.19,2.26,1.19,2.26,-2.26,-2.35,-1.87,-1.07,-1.07,-1.07
340.90,1.20,2.39,1.20,2.38,-2.32,-2.37,-1.89,-1.11,-1.11,-1.18
344.30,1.22,2.47,1.22,2.45,-2.36,-2.39,-1.91,-1.14,-1.14,-1.25
347.75,1.24,2.45,1.24,2.45,-2.38,-2.41,-1.93,-1.14,-1.14,-1.21
351.23,1.26,2.40,1.26,2.42,-2.39,-2.43,-1.95,-1.13,-1.13,-1.14
354.74,1.28,2.36,1.28,2.38,-2.39,-2.45,-1.97,-1.10,-1.10,-1.07
358.28,1.31,2.37,1.31,2.33,-2.37,-2.46,-1.99,-1.06,-1.06,-1.07
361.87,1.33,2.32,1.33,2.30,-2.35,-2.48,-2.02,-1.02,-1.02,-0.99
365.49,1.35,2.23,1.35,2.29,-2.33,-2.49,-2.05,-0.98,-0.98,-0.87
369.14,1.37,2.31,1.37,2.30,-2.33,-2.51,-2.08,-0.95,-0.95,-0.94
372.83,1.40,2.37,1.40,2.34,-2.34,-2.52,-2.11,-0.95,-0.95,-0.97
376.56,1.42,2.39,1.42,2.39,-2.37,-2.54,-2.14,-0.95,-0.95,-0.97
380.33,1.45,2.41,1.45,2.41,-2.41,-2.55,-2.17,-0.96,-0.96,-0.97
384.13,1.47,2.44,1.47,2.45,-2.45,-2.56,-2.21,-0.98,-0.98,-0.97
387.97,1.50,2.48,1.50,2.50,-2.49,-2.57,-2.24,-1.00,-1.00,-0.98
391.85,1.52,2.57,1.52,2.56,-2.54,-2.58,-2.28,-1.01,-1.01,-1.05
395.77,1.55,2.61,1.55,2.59,-2.57,-2.59,-2.31,-1.03,-1.03,-1.07
399.73,1.57,2.61,1.57,2.60,-2.61,-2.60,-2.35,-1.04,-1.04,-1.04
403.72,1.59,2.56,1.59,2.61,-2.63,-2.61,-2.39,-1.03,-1.03,-0.97
407.76,1.62,2.64,1.62,2.64,-2.64,-2.61,-2.43,-1.03,-1.03,-1.03
411.84,1.64,2.70,1.64,2.68,-2.65,-2.62,-2.47,-1.02,-1.02,-1.07
415.96,1.66,2.73,1.66,2.70,-2.66,-2.62,-2.51,-1.01,-1.01,-1.07
420.12,1.68,2.68,1.68,2.69,-2.69,-2.62,-2.55,-1.01,-1.01,-1.00
424.32,1.70,2.66,1.70,2.67,-2.72,-2.62,-2.58,-1.02,-1.02,-0.97
428.56,1.71,2.68,1.71,2.67,-2.75,-2.62,-2.62,-1.04,-1.04,-0.97
432.85,1.73,2.69,1.73,2.73,-2.78,-2.62,-2.66,-1.05,-1.05,-0.97
437.18,1.74,2.80,1.74,2.81,-2.80,-2.62,-2.69,-1.06,-1.06,-1.06
441.55,1.75,2.92,1.75,2.88,-2.82,-2.61,-2.72,-1.07,-1.07,-1.17
445.96,1.76,2.93,1.76,2.92,-2.83,-2.60,-2.76,-1.07,-1.07,-1.17
450.42,1.77,2.89,1.77,2.89,-2.84,-2.60,-2.78,-1.06,-1.06,-1.12
454.93,1.78,2.83,1.78,2.83,-2.84,-2.59,-2.81,-1.06,-1.06,-1.05
459.48,1.79,2.76,1.79,2.78,-2.83,-2.58,-2.83,-1.05,-1.05,-0.97
464.07,1.79,2.76,1.79,2.76,-2.82,-2.57,-2.85,-1.03,-1.03,-0.97
468.71,1.80,2.76,1.80,2.76,-2.80,-2.55,-2.87,-1.00,-1.00,-0.97
473.40,1.80,2.77,1.80,2.77,-2.78,-2.54,-2.88,-0.98,-0.98,-0.97
478.13,1.81,2.77,1.81,2.78,-2.77,-2.52,-2.88,-0.96,-0.96,-0.97
482.91,1.81,2.77,1.81,2.78,-2.75,-2.50,-2.89,-0.94,-0.94,-0.97
487.74,1.81,2.77,1.81,2.76,-2.71,-2.48,-2.88,-0.90,-0.90,-0.97
492.62,1.81,2.71,1.81,2.71,-2.66,-2.46,-2.88,-0.86,-0.86,-0.90
497.55,1.80,2.63,1.80,2.64,-2.60,-2.44,-2.86,-0.80,-0.80,-0.83
502.52,1.80,2.56,1.80,2.56,-2.54,-2.42,-2.85,-0.74,-0.74,-0.76
507.55,1.79,2.48,1.79,2.45,-2.48,-2.39,-2.82,-0.69,-0.69,-0.69
512.62,1.78,2.36,1.78,2.36,-2.43,-2.37,-2.80,-0.64,-0.64,-0.58
517.75,1.77,2.25,1.77,2.30,-2.38,-2.34,-2.76,-0.61,-0.61,-0.48
522.93,1.76,2.31,1.76,2.31,-2.36,-2.31,-2.73,-0.60,-0.60,-0.55
