frequency,raw,error,smoothed,error_smoothed,equalization,parametric_eq,fixed_band_eq,equalized_raw,equalized_smoothed,target
20.00,18.04,6.01,18.04,6.01,-6.00,-5.34,-2.24,12.03,12.03,12.03
20.20,18.01,5.98,18.01,5.98,-5.98,-5.41,-2.30,12.03,12.03,12.03
20.40,17.99,5.95,17.99,5.95,-5.95,-5.48,-2.37,12.03,12.03,12.03
20.61,17.96,5.93,17.96,5.93,-5.93,-5.55,-2.44,12.03,12.03,12.03
20.81,17.93,5.91,17.93,5.91,-5.91,-5.63,-2.51,12.03,12.03,12.03
21.02,17.91,5.88,17.91,5.88,-5.88,-5.70,-2.58,12.03,12.03,12.03
21.23,17.88,5.86,17.88,5.86,-5.86,-5.78,-2.66,12.02,12.02,12.02
21.44,17.86,5.84,17.86,5.84,-5.84,-5.85,-2.73,12.02,12.02,12.02
21.66,17.83,5.82,17.83,5.82,-5.82,-5.92,-2.81,12.01,12.01,12.01
21.87,17.81,5.80,17.81,5.80,-5.80,-5.97,-2.90,12.01,12.01,12.01
22.09,17.78,5.78,17.78,5.78,-5.78,-6.02,-2.98,12.00,12.00,12.00
22.31,17.76,5.76,17.76,5.76,-5.76,-6.04,-3.06,11.99,11.99,12.00
22.54,17.73,5.74,17.73,5.74,-5.74,-6.06,-3.15,11.99,11.99,11.99
22.76,17.70,5.73,17.71,5.73,-5.73,-6.05,-3.24,11.98,11.98,11.98
22.99,17.68,5.71,17.68,5.71,-5.71,-6.04,-3.34,11.97,11.97,11.97
23.22,17.65,5.69,17.65,5.69,-5.69,-6.00,-3.43,11.97,11.97,11.96
23.45,17.63,5.67,17.63,5.67,-5.67,-5.96,-3.53,11.96,11.96,11.96
23.69,17.60,5.65,17.60,5.65,-5.65,-5.89,-3.63,11.95,11.95,11.95
23.92,17.57,5.62,17.57,5.62,-5.62,-5.83,-3.73,11.95,11.95,11.94
24.16,17.53,5.60,17.53,5.60,-5.60,-5.75,-3.83,11.94,11.94,11.94
24.40,17.50,5.57,17.50,5.57,-5.57,-5.68,-3.93,11.93,11.93,11.93
24.65,17.46,5.54,17.46,5.54,-5.55,-5.60,-4.04,11.92,11.92,11.92
24.89,17.43,5.52,17.43,5.52,-5.52,-5.52,-4.15,11.91,11.91,11.91
25.14,17.39,5.49,17.39,5.49,-5.49,-5.45,-4.26,11.90,11.90,11.90
25.39,17.36,5.47,17.36,5.47,-5.47,-5.38,-4.37,11.89,11.89,11.89
25.65,17.32,5.44,17.32,5.44,-5.44,-5.31,-4.47,11.88,11.88,11.88
25.91,17.29,5.42,17.29,5.42,-5.42,-5.24,-4.58,11.87,11.87,11.87
26.16,17.26,5.40,17.26,5.40,-5.40,-5.19,-4.69,11.86,11.86,11.86
26.43,17.22,5.37,17.22,5.37,-5.37,-5.13,-4.80,11.85,11.85,11.85
26.69,17.19,5.35,17.19,5.35,-5.35,-5.08,-4.91,11.84,11.84,11.84
26.96,17.15,5.32,17.15,5.32,-5.32,-5.03,-5.02,11.83,11.83,11.83
27.23,17.12,5.30,17.12,5.30,-5.30,-4.99,-5.12,11.82,11.82,11.82
27.50,17.08,5.27,17.08,5.27,-5.28,-4.95,-5.22,11.81,11.81,11.81
27.77,17.05,5.25,17.05,5.25,-5.25,-4.91,-5.32,11.79,11.79,11.80
28.05,17.01,5.23,17.01,5.23,-5.23,-4.87,-5.41,11.78,11.78,11.78
28.33,16.97,5.21,16.98,5.21,-5.21,-4.84,-5.50,11.77,11.77,11.77
28.62,16.94,5.19,16.94,5.19,-5.19,-4.81,-5.59,11.75,11.75,11.75
28.90,16.90,5.17,16.90,5.17,-5.16,-4.78,-5.66,11.74,11.74,11.73
29.19,16.86,5.14,16.86,5.14,-5.14,-4.75,-5.74,11.72,11.72,11.72
29.48,16.82,5.12,16.82,5.12,-5.12,-4.73,-5.80,11.71,11.71,11.70
29.78,16.78,5.09,16.78,5.09,-5.09,-4.71,-5.86,11.69,11.69,11.69
30.08,16.74,5.06,16.74,5.06,-5.06,-4.68,-5.91,11.67,11.67,11.67
30.38,16.70,5.04,16.70,5.04,-5.04,-4.66,-5.95,11.66,11.66,11.66
30.68,16.65,5.01,16.65,5.01,-5.01,-4.64,-5.98,11.64,11.64,11.64
30.99,16.61,4.99,16.61,4.99,-4.99,-4.62,-6.01,11.62,11.62,11.62
31.30,16.57,4.96,16.57,4.96,-4.96,-4.61,-6.02,11.61,11.61,11.61
31.61,16.53,4.94,16.53,4.94,-4.94,-4.59,-6.03,11.59,11.59,11.59
31.93,16.48,4.92,16.48,4.92,-4.92,-4.57,-6.02,11.57,11.57,11.57
32.24,16.44,4.90,16.44,4.90,-4.90,-4.56,-6.01,11.54,11.54,11.54
32.57,16.40,4.88,16.40,4.88,-4.88,-4.54,-5.99,11.52,11.52,11.52
32.89,16.35,4.85,16.35,4.85,-4.85,-4.52,-5.96,11.50,11.50,11.50
33.22,16.31,4.83,16.31,4.83,-4.83,-4.51,-5.92,11.47,11.47,11.47
33.55,16.26,4.81,16.26,4.81,-4.81,-4.50,-5.88,11.45,11.45,11.45
33.89,16.21,4.79,16.21,4.79,-4.78,-4.48,-5.82,11.43,11.43,11.42
34.23,16.16,4.76,16.16,4.76,-4.76,-4.47,-5.77,11.40,11.40,11.40
34.57,16.11,4.73,16.11,4.73,-4.73,-4.46,-5.70,11.38,11.38,11.38
34.92,16.06,4.70,16.06,4.70,-4.70,-4.44,-5.64,11.36,11.36,11.36
35.27,16.01,4.67,16.01,4.67,-4.67,-4.43,-5.56,11.33,11.33,11.34
35.62,15.96,4.64,15.96,4.64,-4.65,-4.42,-5.49,11.31,11.31,11.31
35.97,15.91,4.62,15.91,4.62,-4.62,-4.41,-5.41,11.29,11.29,11.29
36.33,15.86,4.59,15.86,4.59,-4.60,-4.39,-5.33,11.26,11.26,11.26
36.70,15.81,4.57,15.81,4.57,-4.57,-4.38,-5.25,11.23,11.23,11.23
37.06,15.75,4.55,15.75,4.55,-4.55,-4.37,-5.17,11.21,11.21,11.20
37.43,15.70,4.53,15.70,4.53,-4.53,-4.36,-5.08,11.18,11.18,11.18
37.81,15.65,4.50,15.65,4.50,-4.50,-4.35,-5.00,11.15,11.15,11.15
38.19,15.60,4.48,15.60,4.48,-4.48,-4.33,-4.92,11.12,11.12,11.12
38.57,15.55,4.46,15.55,4.46,-4.46,-4.32,-4.84,11.09,11.09,11.09
38.95,15.49,4.43,15.49,4.43,-4.43,-4.31,-4.76,11.06,11.06,11.06
39.34,15.44,4.41,15.44,4.41,-4.41,-4.30,-4.68,11.04,11.04,11.04
39.74,15.39,4.38,15.39,4.38,-4.38,-4.29,-4.60,11.01,11.01,11.01
40.14,15.34,4.36,15.34,4.36,-4.36,-4.28,-4.52,10.98,10.98,10.98
40.54,15.28,4.33,15.28,4.33,-4.33,-4.26,-4.45,10.95,10.95,10.96
40.94,15.23,4.30,15.23,4.30,-4.30,-4.25,-4.38,10.93,10.93,10.93
41.35,15.18,4.28,15.18,4.28,-4.28,-4.24,-4.31,10.90,10.90,10.90
41.76,15.12,4.25,15.12,4.25,-4.25,-4.23,-4.24,10.87,10.87,10.87
42.18,15.07,4.22,15.07,4.22,-4.22,-4.22,-4.18,10.85,10.85,10.84
42.60,15.01,4.19,15.01,4.19,-4.19,-4.20,-4.12,10.82,10.82,10.82
43.03,14.95,4.16,14.95,4.16,-4.16,-4.19,-4.06,10.79,10.79,10.79
43.46,14.90,4.13,14.90,4.13,-4.13,-4.18,-4.00,10.76,10.76,10.76
43.90,14.84,4.10,14.84,4.10,-4.10,-4.17,-3.95,10.73,10.73,10.74
44.33,14.78,4.07,14.78,4.07,-4.08,-4.15,-3.90,10.70,10.70,10.71
44.78,14.72,4.05,14.72,4.05,-4.05,-4.14,-3.86,10.67,10.67,10.67
45.23,14.66,4.03,14.66,4.03,-4.03,-4.13,-3.81,10.63,10.63,10.64
45.68,14.61,4.01,14.61,4.01,-4.01,-4.12,-3.77,10.60,10.60,10.60
46.13,14.55,3.99,14.55,3.99,-3.99,-4.10,-3.73,10.57,10.57,10.56
46.60,14.50,3.97,14.50,3.97,-3.96,-4.09,-3.70,10.53,10.53,10.53
47.06,14.44,3.95,14.44,3.95,-3.94,-4.08,-3.67,10.50,10.50,10.49
47.53,14.38,3.92,14.38,3.92,-3.92,-4.06,-3.64,10.46,10.46,10.46
48.01,14.32,3.90,14.32,3.90,-3.90,-4.05,-3.61,10.42,10.42,10.42
48.49,14.26,3.87,14.26,3.87,-3.88,-4.04,-3.59,10.39,10.39,10.39
48.97,14.21,3.85,14.21,3.85,-3.85,-4.02,-3.57,10.35,10.35,10.36
49.46,14.15,3.83,14.15,3.83,-3.83,-4.01,-3.55,10.32,10.32,10.32
49.96,14.08,3.80,14.08,3.80,-3.80,-4.00,-3.53,10.28,10.28,10.28
50.46,14.02,3.78,14.02,3.78,-3.78,-3.98,-3.52,10.24,10.24,10.24
50.96,13.96,3.76,13.96,3.75,-3.75,-3.97,-3.51,10.21,10.21,10.20
51.47,13.90,3.73,13.90,3.73,-3.73,-3.95,-3.50,10.17,10.17,10.17
51.99,13.83,3.70,13.83,3.70,-3.70,-3.94,-3.49,10.13,10.13,10.13
52.51,13.77,3.68,13.77,3.68,-3.68,-3.92,-3.48,10.10,10.10,10.10
53.03,13.71,3.65,13.71,3.65,-3.65,-3.91,-3.47,10.06,10.06,10.06
53.56,13.65,3.62,13.65,3.62,-3.62,-3.89,-3.47,10.02,10.02,10.02
54.10,13.58,3.60,13.58,3.60,-3.60,-3.88,-3.46,9.99,9.99,9.99
54.64,13.52,3.57,13.52,3.57,-3.57,-3.86,-3.46,9.95,9.95,9.95
55.18,13.46,3.54,13.46,3.54,-3.55,-3.85,-3.45,9.91,9.91,9.91
55.74,13.39,3.52,13.39,3.52,-3.52,-3.83,-3.45,9.87,9.87,9.87
56.29,13.33,3.50,13.33,3.50,-3.50,-3.82,-3.44,9.83,9.83,9.83
56.86,13.27,3.47,13.27,3.47,-3.48,-3.80,-3.44,9.79,9.79,9.79
57.42,13.20,3.45,13.20,3.45,-3.45,-3.79,-3.43,9.75,9.75,9.75
58.00,13.14,3.43,13.14,3.43,-3.43,-3.77,-3.43,9.71,9.71,9.71
58.58,13.07,3.41,13.07,3.41,-3.41,-3.75,-3.42,9.66,9.66,9.66
59.16,13.01,3.39,13.01,3.39,-3.39,-3.74,-3.41,9.62,9.62,9.62
59.76,12.95,3.37,12.95,3.37,-3.37,-3.72,-3.40,9.58,9.58,9.58
60.35,12.88,3.35,12.88,3.35,-3.34,-3.70,-3.39,9.54,9.54,9.54
60.96,12.82,3.32,12.82,3.32,-3.32,-3.68,-3.38,9.50,9.50,9.50
61.57,12.75,3.29,12.75,3.29,-3.29,-3.67,-3.36,9.46,9.46,9.46
62.18,12.69,3.27,12.69,3.27,-3.27,-3.65,-3.35,9.42,9.42,9.42
62.80,12.62,3.24,12.62,3.24,-3.24,-3.63,-3.33,9.38,9.38,9.38
63.43,12.56,3.22,12.56,3.22,-3.22,-3.61,-3.31,9.34,9.34,9.34
64.07,12.49,3.20,12.49,3.20,-3.20,-3.60,-3.28,9.29,9.29,9.30
64.71,12.43,3.18,12.43,3.18,-3.18,-3.58,-3.26,9.25,9.25,9.25
65.35,12.36,3.16,12.36,3.16,-3.16,-3.56,-3.23,9.20,9.20,9.20
66.01,12.29,3.14,12.29,3.14,-3.14,-3.54,-3.20,9.16,9.16,9.15
66.67,12.23,3.12,12.23,3.12,-3.12,-3.52,-3.17,9.11,9.11,9.11
67.33,12.16,3.11,12.16,3.10,-3.10,-3.50,-3.14,9.06,9.06,9.06
68.01,12.09,3.09,12.09,3.09,-3.08,-3.49,-3.11,9.01,9.01,9.01
68.69,12.03,3.07,12.03,3.07,-3.07,-3.47,-3.08,8.96,8.96,8.96
69.37,11.96,3.05,11.96,3.05,-3.05,-3.45,-3.04,8.91,8.91,8.91
70.07,11.89,3.03,11.89,3.03,-3.03,-3.43,-3.00,8.86,8.86,8.86
70.77,11.82,3.01,11.82,3.01,-3.01,-3.41,-2.97,8.81,8.81,8.81
71.48,11.76,2.99,11.76,2.99,-2.99,-3.39,-2.93,8.76,8.76,8.76
72.19,11.69,2.97,11.69,2.97,-2.97,-3.37,-2.89,8.72,8.72,8.72
72.91,11.62,2.95,11.62,2.95,-2.95,-3.35,-2.86,8.67,8.67,8.67
73.64,11.56,2.93,11.56,2.93,-2.93,-3.33,-2.82,8.63,8.63,8.63
74.38,11.49,2.91,11.49,2.91,-2.91,-3.31,-2.78,8.58,8.58,8.58
75.12,11.42,2.88,11.42,2.88,-2.88,-3.29,-2.75,8.54,8.54,8.53
75.87,11.35,2.86,11.35,2.86,-2.86,-3.27,-2.71,8.49,8.49,8.49
76.63,11.28,2.84,11.28,2.84,-2.84,-3.24,-2.68,8.44,8.44,8.44
77.40,11.21,2.81,11.21,2.81,-2.82,-3.22,-2.64,8.40,8.40,8.40
78.17,11.14,2.79,11.14,2.79,-2.79,-3.20,-2.61,8.35,8.35,8.35
78.95,11.08,2.77,11.08,2.77,-2.78,-3.18,-2.58,8.30,8.30,8.30
79.74,11.01,2.76,11.01,2.76,-2.76,-3.16,-2.55,8.25,8.25,8.25
80.54,10.94,2.74,10.94,2.74,-2.74,-3.14,-2.52,8.20,8.20,8.20
81.35,10.88,2.73,10.87,2.73,-2.73,-3.12,-2.49,8.15,8.15,8.15
82.16,10.81,2.71,10.81,2.71,-2.72,-3.09,-2.47,8.09,8.09,8.09
82.98,10.74,2.70,10.74,2.70,-2.71,-3.07,-2.44,8.03,8.03,8.03
83.81,10.67,2.69,10.67,2.69,-2.70,-3.05,-2.42,7.97,7.97,7.97
84.65,10.59,2.69,10.60,2.69,-2.69,-3.03,-2.40,7.91,7.91,7.91
85.50,10.52,2.68,10.52,2.68,-2.67,-3.01,-2.38,7.85,7.85,7.85
86.35,10.45,2.66,10.45,2.66,-2.65,-2.98,-2.36,7.80,7.80,7.79
87.22,10.38,2.65,10.38,2.64,-2.63,-2.96,-2.35,7.75,7.75,7.73
88.09,10.31,2.62,10.31,2.62,-2.61,-2.94,-2.33,7.69,7.69,7.69
88.97,10.23,2.59,10.23,2.59,-2.59,-2.92,-2.32,7.64,7.64,7.64
89.86,10.16,2.56,10.16,2.56,-2.57,-2.89,-2.31,7.59,7.59,7.60
90.76,10.09,2.53,10.09,2.54,-2.55,-2.87,-2.30,7.54,7.54,7.56
91.66,10.03,2.52,10.03,2.52,-2.53,-2.85,-2.29,7.50,7.50,7.50
92.58,9.96,2.52,9.96,2.51,-2.51,-2.82,-2.29,7.45,7.45,7.45
93.51,9.90,2.51,9.90,2.51,-2.50,-2.80,-2.28,7.40,7.40,7.39
94.44,9.83,2.49,9.83,2.49,-2.49,-2.78,-2.28,7.35,7.35,7.34
95.39,9.77,2.48,9.77,2.48,-2.48,-2.75,-2.28,7.29,7.29,7.29
96.34,9.70,2.46,9.70,2.46,-2.46,-2.73,-2.28,7.23,7.23,7.23
97.30,9.63,2.45,9.63,2.45,-2.45,-2.71,-2.28,7.18,7.18,7.18
98.28,9.56,2.44,9.56,2.44,-2.44,-2.68,-2.29,7.12,7.12,7.13
99.26,9.50,2.43,9.50,2.43,-2.43,-2.66,-2.29,7.07,7.07,7.07
100.25,9.43,2.42,9.43,2.42,-2.42,-2.64,-2.30,7.01,7.01,7.02
101.25,9.36,2.41,9.36,2.41,-2.41,-2.61,-2.30,6.96,6.96,6.96
102.27,9.30,2.40,9.30,2.40,-2.40,-2.59,-2.31,6.90,6.90,6.90
103.29,9.23,2.39,9.23,2.39,-2.39,-2.56,-2.32,6.84,6.84,6.84
104.32,9.16,2.38,9.16,2.38,-2.38,-2.54,-2.33,6.78,6.78,6.78
105.37,9.09,2.37,9.09,2.37,-2.36,-2.52,-2.34,6.72,6.72,6.72
106.42,9.02,2.36,9.02,2.35,-2.35,-2.49,-2.35,6.67,6.67,6.66
107.48,8.95,2.34,8.95,2.34,-2.34,-2.47,-2.36,6.61,6.61,6.61
108.56,8.88,2.32,8.88,2.32,-2.32,-2.44,-2.37,6.56,6.56,6.56
109.64,8.81,2.30,8.81,2.30,-2.30,-2.42,-2.38,6.51,6.51,6.51
110.74,8.74,2.28,8.74,2.28,-2.28,-2.39,-2.39,6.46,6.46,6.46
111.85,8.67,2.26,8.67,2.26,-2.26,-2.37,-2.40,6.40,6.40,6.40
112.97,8.60,2.24,8.60,2.24,-2.25,-2.35,-2.40,6.35,6.35,6.36
114.10,8.53,2.23,8.53,2.23,-2.24,-2.32,-2.41,6.29,6.29,6.30
115.24,8.46,2.21,8.46,2.21,-2.23,-2.30,-2.42,6.24,6.24,6.25
116.39,8.39,2.21,8.39,2.21,-2.21,-2.27,-2.42,6.18,6.18,6.19
117.55,8.32,2.21,8.32,2.21,-2.20,-2.25,-2.42,6.12,6.12,6.11
118.73,8.25,2.21,8.25,2.20,-2.19,-2.22,-2.43,6.06,6.06,6.04
119.92,8.18,2.19,8.18,2.19,-2.18,-2.20,-2.43,6.00,6.00,5.99
121.12,8.11,2.16,8.11,2.17,-2.17,-2.17,-2.42,5.94,5.94,5.95
122.33,8.04,2.14,8.04,2.15,-2.15,-2.15,-2.42,5.89,5.89,5.90
123.55,7.97,2.13,7.97,2.13,-2.13,-2.13,-2.41,5.84,5.84,5.84
124.79,7.90,2.12,7.90,2.11,-2.11,-2.10,-2.40,5.79,5.79,5.79
126.03,7.84,2.10,7.84,2.10,-2.09,-2.08,-2.39,5.74,5.74,5.74
127.29,7.77,2.07,7.77,2.07,-2.07,-2.05,-2.38,5.70,5.70,5.70
128.57,7.70,2.05,7.70,2.05,-2.05,-2.03,-2.37,5.65,5.65,5.65
129.85,7.63,2.03,7.63,2.03,-2.03,-2.00,-2.35,5.60,5.60,5.60
131.15,7.56,2.01,7.56,2.01,-2.01,-1.98,-2.33,5.56,5.55,5.55
132.46,7.49,1.99,7.49,1.99,-1.99,-1.96,-2.31,5.51,5.51,5.50
133.79,7.42,1.97,7.42,1.97,-1.97,-1.93,-2.29,5.45,5.45,5.45
135.12,7.35,1.95,7.35,1.95,-1.96,-1.91,-2.26,5.40,5.40,5.41
136.48,7.28,1.93,7.28,1.93,-1.95,-1.88,-2.24,5.34,5.34,5.36
137.84,7.22,1.93,7.22,1.93,-1.94,-1.86,-2.21,5.28,5.28,5.29
139.22,7.15,1.93,7.15,1.93,-1.93,-1.84,-2.18,5.22,5.22,5.22
140.61,7.08,1.93,7.08,1.93,-1.92,-1.81,-2.15,5.16,5.16,5.15
142.02,7.01,1.92,7.01,1.92,-1.91,-1.79,-2.12,5.10,5.10,5.09
143.44,6.94,1.91,6.94,1.91,-1.90,-1.76,-2.09,5.04,5.04,5.03
144.87,6.87,1.89,6.87,1.89,-1.88,-1.74,-2.06,4.99,4.99,4.98
146.32,6.80,1.86,6.80,1.86,-1.86,-1.72,-2.03,4.94,4.94,4.94
147.78,6.73,1.83,6.73,1.83,-1.84,-1.69,-1.99,4.89,4.89,4.90
149.26,6.66,1.80,6.66,1.81,-1.81,-1.67,-1.96,4.85,4.85,4.86
150.75,6.59,1.78,6.59,1.78,-1.79,-1.65,-1.93,4.80,4.80,4.81
152.26,6.52,1.76,6.52,1.76,-1.76,-1.62,-1.90,4.76,4.76,4.76
153.78,6.45,1.73,6.45,1.73,-1.73,-1.60,-1.87,4.72,4.72,4.72
155.32,6.38,1.70,6.38,1.70,-1.70,-1.58,-1.84,4.68,4.68,4.68
156.88,6.31,1.67,6.31,1.67,-1.67,-1.55,-1.81,4.64,4.64,4.65
158.44,6.24,1.63,6.24,1.63,-1.63,-1.53,-1.78,4.61,4.61,4.61
160.03,6.17,1.60,6.17,1.60,-1.59,-1.51,-1.75,4.58,4.58,4.57
161.63,6.10,1.56,6.10,1.56,-1.55,-1.49,-1.72,4.55,4.55,4.54
163.24,6.03,1.51,6.03,1.51,-1.50,-1.46,-1.69,4.52,4.52,4.51
164.88,5.95,1.47,5.95,1.47,-1.46,-1.44,-1.67,4.50,4.50,4.49
166.53,5.88,1.41,5.88,1.41,-1.41,-1.42,-1.64,4.47,4.47,4.47
168.19,5.81,1.37,5.81,1.37,-1.37,-1.40,-1.62,4.44,4.44,4.44
169.87,5.74,1.32,5.74,1.33,-1.34,-1.37,-1.60,4.40,4.40,4.41
171.57,5.67,1.30,5.66,1.30,-1.31,-1.35,-1.58,4.35,4.35,4.37
173.29,5.59,1.28,5.59,1.28,-1.30,-1.33,-1.56,4.29,4.29,4.31
175.02,5.52,1.28,5.52,1.28,-1.29,-1.31,-1.54,4.23,4.23,4.24
176.77,5.44,1.29,5.44,1.29,-1.29,-1.29,-1.52,4.15,4.15,4.16
178.54,5.37,1.30,5.37,1.30,-1.29,-1.26,-1.50,4.08,4.08,4.07
180.32,5.30,1.31,5.30,1.31,-1.30,-1.24,-1.49,4.00,4.00,3.99
182.13,5.23,1.32,5.23,1.31,-1.30,-1.22,-1.47,3.93,3.93,3.91
183.95,5.15,1.31,5.15,1.31,-1.30,-1.20,-1.46,3.85,3.85,3.84
185.79,5.07,1.29,5.07,1.29,-1.29,-1.18,-1.45,3.79,3.79,3.78
187.65,4.99,1.27,4.99,1.27,-1.27,-1.16,-1.43,3.73,3.73,3.72
189.52,4.91,1.25,4.91,1.25,-1.24,-1.14,-1.42,3.68,3.68,3.67
191.42,4.83,1.22,4.83,1.22,-1.20,-1.11,-1.41,3.63,3.63,3.61
193.33,4.74,1.18,4.74,1.18,-1.17,-1.09,-1.41,3.58,3.57,3.56
195.27,4.65,1.15,4.65,1.14,-1.14,-1.07,-1.40,3.51,3.51,3.51
197.22,4.56,1.11,4.56,1.11,-1.12,-1.05,-1.39,3.44,3.44,3.45
199.19,4.48,1.08,4.49,1.09,-1.11,-1.03,-1.39,3.37,3.38,3.40
201.18,4.44,1.09,4.44,1.09,-1.12,-1.01,-1.38,3.32,3.32,3.35
203.19,4.41,1.12,4.42,1.12,-1.15,-0.99,-1.38,3.26,3.27,3.30
205.23,4.43,1.18,4.43,1.18,-1.20,-0.97,-1.37,3.23,3.23,3.25
207.28,4.46,1.26,4.46,1.25,-1.27,-0.95,-1.37,3.20,3.19,3.21
209.35,4.51,1.34,4.51,1.34,-1.35,-0.93,-1.37,3.16,3.16,3.16
211.44,4.56,1.44,4.56,1.44,-1.43,-0.91,-1.36,3.13,3.13,3.12
213.56,4.61,1.53,4.60,1.52,-1.51,-0.89,-1.36,3.10,3.09,3.08
215.69,4.64,1.60,4.64,1.60,-1.58,-0.87,-1.36,3.06,3.06,3.04
217.85,4.66,1.67,4.66,1.66,-1.64,-0.85,-1.36,3.02,3.02,3.00
220.03,4.66,1.71,4.66,1.70,-1.68,-0.83,-1.35,2.98,2.97,2.96
222.23,4.63,1.71,4.63,1.72,-1.71,-0.81,-1.35,2.92,2.92,2.91
224.45,4.59,1.72,4.59,1.72,-1.72,-0.79,-1.34,2.88,2.87,2.87
226.70,4.54,1.71,4.53,1.71,-1.71,-0.77,-1.34,2.83,2.82,2.83
228.96,4.47,1.69,4.47,1.69,-1.69,-0.75,-1.33,2.78,2.78,2.78
231.25,4.40,1.66,4.40,1.66,-1.66,-0.73,-1.33,2.74,2.74,2.74
233.57,4.33,1.62,4.33,1.62,-1.63,-0.72,-1.32,2.70,2.70,2.70
235.90,4.25,1.58,4.25,1.58,-1.59,-0.70,-1.31,2.67,2.67,2.67
238.26,4.18,1.54,4.18,1.54,-1.54,-0.68,-1.30,2.63,2.63,2.64
240.64,4.10,1.50,4.10,1.50,-1.50,-0.66,-1.29,2.60,2.60,2.61
243.05,4.03,1.46,4.03,1.46,-1.46,-0.64,-1.28,2.57,2.57,2.57
245.48,3.96,1.42,3.96,1.42,-1.42,-0.62,-1.26,2.54,2.54,2.54
247.93,3.89,1.38,3.89,1.38,-1.38,-0.60,-1.25,2.51,2.51,2.51
250.41,3.82,1.34,3.82,1.34,-1.34,-0.58,-1.23,2.48,2.48,2.48
252.92,3.75,1.30,3.75,1.30,-1.30,-0.57,-1.21,2.45,2.45,2.45
255.45,3.69,1.26,3.69,1.26,-1.27,-0.55,-1.19,2.42,2.42,2.42
258.00,3.62,1.23,3.62,1.23,-1.23,-0.53,-1.17,2.39,2.39,2.39
260.58,3.56,1.20,3.56,1.20,-1.20,-0.51,-1.15,2.36,2.36,2.36
263.19,3.49,1.17,3.49,1.17,-1.17,-0.49,-1.12,2.33,2.33,2.33
265.82,3.43,1.14,3.43,1.14,-1.14,-0.48,-1.09,2.29,2.29,2.29
268.48,3.37,1.11,3.37,1.11,-1.11,-0.46,-1.07,2.26,2.26,2.26
271.16,3.31,1.08,3.31,1.08,-1.08,-0.44,-1.04,2.23,2.23,2.23
273.87,3.25,1.05,3.25,1.05,-1.05,-0.42,-1.01,2.20,2.20,2.20
276.61,3.20,1.02,3.20,1.02,-1.02,-0.40,-0.97,2.17,2.17,2.18
279.38,3.14,0.99,3.14,0.99,-0.99,-0.39,-0.94,2.15,2.15,2.15
282.17,3.08,0.96,3.08,0.96,-0.96,-0.37,-0.91,2.12,2.12,2.12
284.99,3.02,0.93,3.02,0.93,-0.93,-0.35,-0.87,2.09,2.09,2.09
287.84,2.96,0.90,2.96,0.90,-0.90,-0.33,-0.84,2.06,2.06,2.06
290.72,2.91,0.87,2.91,0.87,-0.87,-0.31,-0.80,2.04,2.04,2.04
293.63,2.85,0.84,2.85,0.84,-0.84,-0.30,-0.76,2.01,2.01,2.01
296.57,2.79,0.80,2.79,0.80,-0.80,-0.28,-0.72,1.99,1.99,1.99
299.53,2.73,0.77,2.73,0.77,-0.77,-0.26,-0.69,1.96,1.96,1.97
302.53,2.68,0.74,2.68,0.74,-0.74,-0.24,-0.65,1.94,1.94,1.94
305.55,2.63,0.71,2.63,0.71,-0.71,-0.23,-0.61,1.92,1.92,1.92
308.61,2.58,0.68,2.58,0.68,-0.68,-0.21,-0.57,1.89,1.89,1.90
311.69,2.53,0.65,2.53,0.65,-0.65,-0.19,-0.53,1.88,1.88,1.88
314.81,2.49,0.63,2.49,0.63,-0.63,-0.17,-0.49,1.86,1.86,1.86
317.96,2.44,0.60,2.44,0.60,-0.60,-0.15,-0.45,1.84,1.84,1.84
321.14,2.40,0.57,2.40,0.57,-0.57,-0.14,-0.41,1.83,1.83,1.82
324.35,2.35,0.54,2.35,0.54,-0.54,-0.12,-0.37,1.81,1.81,1.80
327.59,2.30,0.51,2.30,0.51,-0.50,-0.10,-0.33,1.79,1.79,1.79
330.87,2.24,0.47,2.24,0.47,-0.47,-0.08,-0.29,1.78,1.78,1.78
334.18,2.19,0.43,2.19,0.43,-0.43,-0.06,-0.25,1.76,1.76,1.76
337.52,2.14,0.39,2.14,0.39,-0.40,-0.05,-0.21,1.74,1.74,1.75
340.90,2.09,0.36,2.09,0.36,-0.36,-0.03,-0.17,1.73,1.73,1.73
344.30,2.04,0.32,2.04,0.32,-0.32,-0.01,-0.13,1.72,1.72,1.72
347.75,1.99,0.29,1.99,0.29,-0.29,0.01,-0.09,1.70,1.70,1.70
351.23,1.94,0.26,1.94,0.26,-0.25,0.03,-0.05,1.69,1.69,1.68
354.74,1.89,0.22,1.89,0.22,-0.22,0.05,-0.01,1.67,1.67,1.67
358.28,1.84,0.19,1.84,0.19,-0.19,0.06,0.03,1.66,1.66,1.66
361.87,1.80,0.15,1.80,0.15,-0.15,0.08,0.07,1.64,1.64,1.64
365.49,1.75,0.12,1.75,0.12,-0.12,0.10,0.11,1.63,1.63,1.63
369.14,1.70,0.09,1.70,0.09,-0.09,0.12,0.15,1.62,1.62,1.62
372.83,1.66,0.05,1.66,0.05,-0.05,0.14,0.18,1.60,1.60,1.61
376.56,1.61,0.02,1.61,0.02,-0.02,0.16,0.22,1.59,1.59,1.59
380.33,1.57,-0.01,1.57,-0.01,0.01,0.18,0.26,1.58,1.58,1.58
384.13,1.53,-0.04,1.53,-0.04,0.04,0.20,0.30,1.57,1.57,1.57
387.97,1.48,-0.08,1.48,-0.08,0.08,0.22,0.34,1.56,1.56,1.56
391.85,1.44,-0.11,1.44,-0.11,0.11,0.24,0.38,1.55,1.55,1.55
395.77,1.39,-0.14,1.39,-0.14,0.14,0.26,0.42,1.54,1.54,1.54
399.73,1.35,-0.17,1.35,-0.17,0.18,0.28,0.46,1.53,1.53,1.53
403.72,1.31,-0.21,1.31,-0.21,0.21,0.30,0.50,1.52,1.52,1.52
407.76,1.26,-0.25,1.26,-0.25,0.25,0.32,0.54,1.51,1.51,1.51
411.84,1.22,-0.28,1.22,-0.28,0.28,0.34,0.58,1.50,1.50,1.50
415.96,1.18,-0.32,1.18,-0.32,0.32,0.36,0.62,1.50,1.50,1.50
420.12,1.14,-0.36,1.14,-0.36,0.36,0.38,0.66,1.49,1.49,1.50
424.32,1.10,-0.39,1.10,-0.39,0.39,0.40,0.69,1.49,1.49,1.49
428.56,1.06,-0.43,1.06,-0.43,0.43,0.42,0.73,1.49,1.49,1.49
432.85,1.02,-0.47,1.02,-0.47,0.47,0.44,0.77,1.49,1.49,1.49
437.18,0.99,-0.50,0.99,-0.50,0.51,0.46,0.81,1.49,1.49,1.49
441.55,0.95,-0.54,0.95,-0.54,0.54,0.48,0.84,1.49,1.49,1.49
445.96,0.91,-0.58,0.91,-0.58,0.58,0.51,0.88,1.49,1.49,1.49
450.42,0.88,-0.62,0.88,-0.62,0.62,0.53,0.91,1.50,1.50,1.50
454.93,0.84,-0.66,0.84,-0.66,0.66,0.55,0.95,1.50,1.50,1.50
459.48,0.80,-0.70,0.80,-0.70,0.70,0.57,0.98,1.51,1.51,1.51
464.07,0.77,-0.74,0.77,-0.74,0.74,0.60,1.02,1.51,1.51,1.51
468.71,0.73,-0.79,0.73,-0.79,0.79,0.62,1.05,1.52,1.52,1.52
473.40,0.70,-0.83,0.70,-0.83,0.83,0.64,1.08,1.53,1.53,1.53
478.13,0.66,-0.87,0.66,-0.87,0.87,0.67,1.11,1.53,1.53,1.53
482.91,0.63,-0.91,0.63,-0.91,0.91,0.69,1.14,1.54,1.54,1.54
487.74,0.59,-0.95,0.59,-0.95,0.95,0.72,1.17,1.55,1.55,1.55
492.62,0.56,-0.99,0.56,-0.99,0.99,0.74,1.19,1.55,1.55,1.55
497.55,0.53,-1.03,0.53,-1.03,1.03,0.77,1.22,1.56,1.56,1.56
