frequency,raw,error,smoothed,error_smoothed,equalization,parametric_eq,fixed_band_eq,equalized_raw,equalized_smoothed,target
20.00,-3.86,-16.95,-3.85,-16.95,6.00,7.37,2.75,2.14,2.15,13.09
20.20,-3.83,-16.92,-3.84,-16.92,6.00,7.32,2.83,2.17,2.16,13.09
20.40,-3.80,-16.88,-3.81,-16.88,6.00,7.27,2.91,2.20,2.19,13.08
20.61,-3.77,-16.83,-3.77,-16.83,6.00,7.11,2.99,2.23,2.23,13.06
20.81,-3.72,-16.76,-3.72,-16.76,6.00,6.94,3.07,2.28,2.28,13.04
21.02,-3.66,-16.68,-3.66,-16.68,6.00,6.75,3.16,2.34,2.34,13.02
21.23,-3.59,-16.58,-3.59,-16.58,6.00,6.55,3.25,2.41,2.41,12.99
21.44,-3.51,-16.48,-3.51,-16.48,6.00,6.38,3.34,2.49,2.49,12.97
21.66,-3.44,-16.38,-3.44,-16.38,6.00,6.21,3.44,2.56,2.56,12.94
21.87,-3.36,-16.28,-3.37,-16.28,6.00,6.08,3.53,2.64,2.63,12.91
22.09,-3.30,-16.19,-3.30,-16.19,6.00,5.95,3.63,2.70,2.70,12.89
22.31,-3.24,-16.10,-3.24,-16.10,6.00,5.86,3.74,2.76,2.76,12.86
22.54,-3.19,-16.02,-3.19,-16.03,6.00,5.76,3.84,2.81,2.81,12.83
22.76,-3.14,-15.95,-3.14,-15.95,6.00,5.70,3.95,2.86,2.86,12.81
22.99,-3.10,-15.88,-3.10,-15.88,6.00,5.64,4.06,2.90,2.90,12.78
23.22,-3.05,-15.80,-3.05,-15.80,6.00,5.60,4.18,2.95,2.95,12.75
23.45,-2.99,-15.72,-2.99,-15.72,6.00,5.56,4.29,3.01,3.01,12.72
23.69,-2.93,-15.63,-2.93,-15.63,6.00,5.54,4.41,3.07,3.07,12.70
23.92,-2.86,-15.53,-2.86,-15.53,6.00,5.52,4.53,3.14,3.14,12.67
24.16,-2.79,-15.43,-2.79,-15.43,6.00,5.51,4.65,3.21,3.21,12.64
24.40,-2.72,-15.32,-2.72,-15.32,6.00,5.50,4.78,3.28,3.28,12.61
24.65,-2.64,-15.22,-2.64,-15.22,6.00,5.49,4.91,3.36,3.36,12.58
24.89,-2.57,-15.12,-2.57,-15.12,6.00,5.49,5.04,3.43,3.43,12.55
25.14,-2.50,-15.02,-2.50,-15.02,6.00,5.50,5.17,3.50,3.50,12.52
25.39,-2.44,-14.93,-2.44,-14.93,6.00,5.50,5.30,3.56,3.56,12.49
25.65,-2.39,-14.85,-2.39,-14.84,6.00,5.51,5.43,3.61,3.61,12.46
25.91,-2.34,-14.77,-2.34,-14.77,6.00,5.52,5.56,3.66,3.66,12.43
26.16,-2.29,-14.69,-2.29,-14.69,6.00,5.53,5.70,3.71,3.71,12.40
26.43,-2.25,-14.62,-2.25,-14.62,6.00,5.55,5.83,3.75,3.75,12.37
26.69,-2.21,-14.54,-2.21,-14.54,6.00,5.56,5.96,3.79,3.79,12.33
26.96,-2.17,-14.47,-2.17,-14.47,6.00,5.58,6.09,3.83,3.83,12.30
27.23,-2.13,-14.40,-2.13,-14.40,6.00,5.59,6.22,3.87,3.87,12.27
27.50,-2.09,-14.33,-2.09,-14.33,6.00,5.61,6.35,3.91,3.91,12.24
27.77,-2.05,-14.26,-2.05,-14.26,6.00,5.63,6.47,3.95,3.95,12.21
28.05,-2.02,-14.19,-2.02,-14.19,6.00,5.64,6.59,3.98,3.98,12.17
28.33,-1.99,-14.13,-1.99,-14.13,6.00,5.66,6.70,4.01,4.01,12.14
28.62,-1.96,-14.07,-1.96,-14.07,6.00,5.68,6.81,4.04,4.04,12.11
28.90,-1.93,-14.00,-1.93,-14.00,6.00,5.70,6.91,4.07,4.07,12.07
29.19,-1.90,-13.94,-1.90,-13.94,6.00,5.72,7.01,4.10,4.10,12.04
29.48,-1.87,-13.88,-1.87,-13.88,6.00,5.74,7.09,4.13,4.13,12.00
29.78,-1.84,-13.81,-1.84,-13.81,6.00,5.75,7.18,4.16,4.16,11.97
30.08,-1.80,-13.74,-1.80,-13.74,6.00,5.77,7.24,4.20,4.20,11.94
30.38,-1.77,-13.67,-1.77,-13.67,6.00,5.79,7.31,4.23,4.23,11.90
30.68,-1.72,-13.59,-1.72,-13.59,6.00,5.81,7.35,4.28,4.28,11.87
30.99,-1.68,-13.51,-1.68,-13.51,6.00,5.83,7.40,4.32,4.32,11.83
31.30,-1.63,-13.43,-1.63,-13.43,6.00,5.85,7.42,4.37,4.37,11.80
31.61,-1.58,-13.35,-1.58,-13.35,6.00,5.86,7.45,4.42,4.42,11.76
31.93,-1.53,-13.26,-1.53,-13.26,6.00,5.88,7.45,4.47,4.47,11.73
32.24,-1.49,-13.18,-1.49,-13.18,6.00,5.90,7.46,4.51,4.51,11.69
32.57,-1.44,-13.10,-1.44,-13.10,6.00,5.92,7.44,4.56,4.56,11.66
32.89,-1.40,-13.02,-1.40,-13.02,6.00,5.93,7.43,4.60,4.60,11.62
33.22,-1.36,-12.95,-1.36,-12.95,6.00,5.95,7.40,4.64,4.64,11.59
33.55,-1.32,-12.87,-1.32,-12.87,6.00,5.96,7.37,4.68,4.68,11.55
33.89,-1.29,-12.80,-1.29,-12.80,6.00,5.98,7.32,4.71,4.71,11.51
34.23,-1.25,-12.73,-1.25,-12.73,6.00,5.99,7.28,4.75,4.75,11.48
34.57,-1.22,-12.66,-1.22,-12.66,6.00,6.01,7.22,4.78,4.78,11.44
34.92,-1.19,-12.59,-1.19,-12.59,6.00,6.02,7.16,4.81,4.81,11.40
35.27,-1.16,-12.53,-1.16,-12.53,6.00,6.03,7.10,4.84,4.84,11.36
35.62,-1.14,-12.47,-1.14,-12.47,6.00,6.05,7.03,4.86,4.86,11.33
35.97,-1.12,-12.41,-1.12,-12.41,6.00,6.06,6.97,4.88,4.88,11.29
36.33,-1.11,-12.35,-1.11,-12.35,6.00,6.07,6.90,4.89,4.89,11.25
36.70,-1.09,-12.30,-1.09,-12.30,6.00,6.08,6.82,4.91,4.91,11.21
37.06,-1.07,-12.24,-1.07,-12.24,6.00,6.09,6.75,4.93,4.93,11.17
37.43,-1.05,-12.18,-1.05,-12.18,6.00,6.10,6.68,4.95,4.95,11.13
37.81,-1.03,-12.12,-1.03,-12.12,6.00,6.11,6.61,4.97,4.97,11.09
38.19,-1.01,-12.06,-1.01,-12.06,6.00,6.12,6.54,4.99,4.99,11.04
38.57,-0.99,-11.99,-0.99,-11.99,6.00,6.13,6.48,5.01,5.01,11.00
38.95,-0.97,-11.93,-0.97,-11.93,6.00,6.14,6.41,5.03,5.03,10.96
39.34,-0.94,-11.85,-0.94,-11.85,6.00,6.14,6.35,5.06,5.06,10.91
39.74,-0.91,-11.78,-0.90,-11.77,6.00,6.15,6.29,5.09,5.10,10.87
40.14,-0.87,-11.69,-0.87,-11.69,6.00,6.15,6.23,5.13,5.13,10.83
40.54,-0.83,-11.61,-0.83,-11.61,6.00,6.16,6.18,5.17,5.17,10.78
40.94,-0.79,-11.52,-0.79,-11.52,6.00,6.16,6.13,5.21,5.21,10.73
41.35,-0.75,-11.44,-0.75,-11.44,6.00,6.17,6.09,5.25,5.25,10.68
41.76,-0.72,-11.35,-0.72,-11.35,6.00,6.17,6.05,5.28,5.28,10.64
42.18,-0.68,-11.27,-0.68,-11.27,6.00,6.18,6.01,5.32,5.32,10.59
42.60,-0.64,-11.18,-0.64,-11.18,6.00,6.18,5.98,5.36,5.36,10.54
43.03,-0.61,-11.09,-0.61,-11.09,6.00,6.18,5.95,5.39,5.39,10.49
43.46,-0.58,-11.01,-0.58,-11.01,6.00,6.18,5.92,5.42,5.42,10.43
43.90,-0.55,-10.94,-0.55,-10.94,6.00,6.18,5.90,5.45,5.45,10.38
44.33,-0.54,-10.87,-0.54,-10.87,6.00,6.18,5.89,5.46,5.46,10.33
44.78,-0.52,-10.80,-0.52,-10.80,6.00,6.18,5.88,5.48,5.48,10.28
45.23,-0.50,-10.73,-0.50,-10.73,6.00,6.18,5.87,5.50,5.50,10.22
45.68,-0.49,-10.65,-0.49,-10.65,6.00,6.18,5.87,5.51,5.51,10.17
46.13,-0.47,-10.58,-0.47,-10.58,6.00,6.18,5.87,5.53,5.53,10.11
46.60,-0.45,-10.50,-0.45,-10.50,6.00,6.17,5.88,5.55,5.55,10.06
47.06,-0.43,-10.43,-0.43,-10.43,6.00,6.17,5.89,5.57,5.57,10.00
47.53,-0.41,-10.36,-0.41,-10.36,6.00,6.17,5.91,5.59,5.59,9.94
48.01,-0.40,-10.29,-0.40,-10.29,6.00,6.16,5.93,5.60,5.60,9.89
48.49,-0.40,-10.22,-0.40,-10.22,6.00,6.16,5.95,5.60,5.60,9.83
48.97,-0.39,-10.16,-0.39,-10.16,6.00,6.15,5.98,5.61,5.61,9.77
49.46,-0.39,-10.10,-0.39,-10.10,6.00,6.15,6.01,5.61,5.61,9.71
49.96,-0.38,-10.03,-0.38,-10.03,6.00,6.14,6.04,5.62,5.62,9.65
50.46,-0.36,-9.95,-0.36,-9.95,6.00,6.14,6.07,5.64,5.64,9.59
50.96,-0.33,-9.86,-0.33,-9.86,6.00,6.13,6.11,5.67,5.67,9.53
51.47,-0.29,-9.76,-0.29,-9.76,6.00,6.12,6.15,5.71,5.71,9.46
51.99,-0.25,-9.65,-0.25,-9.65,6.00,6.12,6.19,5.75,5.75,9.40
52.51,-0.20,-9.53,-0.20,-9.53,6.00,6.11,6.24,5.80,5.80,9.33
53.03,-0.15,-9.42,-0.15,-9.42,6.00,6.10,6.28,5.85,5.85,9.27
53.56,-0.10,-9.30,-0.10,-9.31,6.00,6.10,6.33,5.90,5.90,9.21
54.10,-0.06,-9.20,-0.07,-9.21,6.00,6.09,6.37,5.94,5.93,9.14
54.64,-0.05,-9.12,-0.05,-9.13,6.00,6.08,6.42,5.95,5.95,9.07
55.18,-0.05,-9.06,-0.05,-9.06,6.00,6.07,6.46,5.95,5.95,9.01
55.74,-0.06,-9.00,-0.06,-9.00,6.00,6.07,6.50,5.94,5.94,8.94
56.29,-0.06,-8.94,-0.06,-8.93,6.00,6.06,6.54,5.94,5.94,8.88
56.86,-0.05,-8.86,-0.05,-8.86,6.00,6.05,6.57,5.95,5.95,8.81
57.42,-0.03,-8.77,-0.03,-8.77,6.00,6.04,6.61,5.97,5.97,8.74
58.00,-0.01,-8.68,-0.01,-8.68,6.00,6.04,6.63,5.99,5.99,8.68
58.58,0.01,-8.60,0.01,-8.60,6.00,6.03,6.66,6.01,6.01,8.61
59.16,0.02,-8.52,0.02,-8.52,6.00,6.02,6.67,6.02,6.02,8.54
59.76,0.03,-8.45,0.02,-8.45,6.00,6.02,6.69,6.03,6.02,8.48
60.35,0.03,-8.38,0.03,-8.38,6.00,6.01,6.69,6.03,6.03,8.41
60.96,0.03,-8.32,0.03,-8.32,6.00,6.01,6.69,6.03,6.03,8.35
61.57,0.03,-8.25,0.03,-8.25,6.00,6.00,6.68,6.03,6.03,8.28
62.18,0.03,-8.19,0.03,-8.19,6.00,6.00,6.67,6.03,6.03,8.22
62.80,0.04,-8.11,0.04,-8.11,6.00,6.00,6.65,6.04,6.04,8.15
63.43,0.06,-8.03,0.06,-8.03,6.00,6.00,6.62,6.06,6.06,8.09
64.07,0.07,-7.95,0.07,-7.95,6.00,6.00,6.58,6.07,6.07,8.02
64.71,0.09,-7.87,0.09,-7.87,6.00,6.00,6.54,6.09,6.09,7.95
65.35,0.10,-7.79,0.10,-7.79,6.00,6.00,6.49,6.10,6.10,7.89
66.01,0.11,-7.71,0.11,-7.71,6.00,6.00,6.43,6.11,6.11,7.82
66.67,0.11,-7.64,0.11,-7.64,6.00,6.01,6.37,6.11,6.11,7.75
67.33,0.12,-7.57,0.12,-7.57,6.00,6.01,6.30,6.12,6.12,7.69
68.01,0.12,-7.49,0.12,-7.49,6.00,6.02,6.23,6.12,6.12,7.62
68.69,0.13,-7.42,0.13,-7.42,6.00,6.03,6.15,6.13,6.13,7.55
69.37,0.14,-7.33,0.15,-7.33,6.00,6.04,6.07,6.14,6.15,7.48
70.07,0.16,-7.25,0.16,-7.25,6.00,6.05,5.98,6.16,6.16,7.41
70.77,0.18,-7.17,0.18,-7.17,6.00,6.06,5.89,6.18,6.18,7.34
71.48,0.19,-7.08,0.19,-7.08,6.00,6.07,5.80,6.19,6.19,7.27
72.19,0.20,-7.00,0.20,-7.00,6.00,6.08,5.71,6.20,6.20,7.20
72.91,0.21,-6.92,0.21,-6.92,6.00,6.09,5.62,6.21,6.21,7.13
73.64,0.22,-6.84,0.22,-6.84,6.00,6.10,5.52,6.22,6.22,7.06
74.38,0.22,-6.76,0.22,-6.76,6.00,6.11,5.43,6.22,6.22,6.99
75.12,0.23,-6.69,0.23,-6.69,6.00,6.12,5.34,6.23,6.23,6.91
75.87,0.23,-6.61,0.23,-6.61,6.00,6.12,5.24,6.23,6.23,6.84
76.63,0.24,-6.53,0.24,-6.53,6.00,6.12,5.15,6.24,6.24,6.77
77.40,0.25,-6.45,0.25,-6.45,6.01,6.11,5.06,6.26,6.26,6.69
78.17,0.26,-6.36,0.26,-6.36,6.02,6.10,4.97,6.27,6.27,6.62
78.95,0.26,-6.28,0.26,-6.28,6.02,6.08,4.88,6.28,6.28,6.54
79.74,0.27,-6.20,0.27,-6.20,6.01,6.05,4.79,6.27,6.27,6.47
80.54,0.28,-6.11,0.28,-6.11,5.98,6.02,4.71,6.26,6.26,6.39
81.35,0.28,-6.03,0.28,-6.03,5.95,5.98,4.63,6.23,6.23,6.31
82.16,0.29,-5.94,0.29,-5.94,5.90,5.92,4.55,6.19,6.19,6.23
82.98,0.30,-5.85,0.30,-5.85,5.84,5.87,4.47,6.14,6.14,6.15
83.81,0.31,-5.76,0.31,-5.76,5.77,5.80,4.40,6.08,6.08,6.07
84.65,0.32,-5.67,0.32,-5.67,5.69,5.73,4.33,6.01,6.01,5.99
85.50,0.32,-5.58,0.32,-5.58,5.60,5.65,4.26,5.93,5.93,5.91
86.35,0.32,-5.50,0.32,-5.50,5.51,5.57,4.20,5.84,5.84,5.83
87.22,0.32,-5.42,0.32,-5.42,5.42,5.49,4.14,5.75,5.75,5.74
88.09,0.32,-5.34,0.32,-5.34,5.34,5.40,4.08,5.66,5.66,5.66
88.97,0.32,-5.26,0.32,-5.26,5.26,5.30,4.02,5.58,5.58,5.58
89.86,0.32,-5.18,0.32,-5.18,5.18,5.21,3.97,5.50,5.50,5.50
90.76,0.32,-5.09,0.32,-5.09,5.10,5.12,3.92,5.42,5.42,5.42
91.66,0.33,-5.01,0.32,-5.01,5.01,5.02,3.88,5.34,5.34,5.34
92.58,0.33,-4.93,0.33,-4.93,4.93,4.93,3.83,5.26,5.26,5.26
93.51,0.33,-4.85,0.33,-4.85,4.84,4.83,3.79,5.17,5.17,5.18
94.44,0.33,-4.76,0.33,-4.76,4.76,4.74,3.76,5.09,5.09,5.10
95.39,0.34,-4.68,0.34,-4.68,4.67,4.65,3.72,5.01,5.01,5.02
96.34,0.35,-4.59,0.35,-4.59,4.59,4.55,3.69,4.94,4.94,4.94
97.30,0.37,-4.50,0.37,-4.50,4.51,4.46,3.66,4.87,4.87,4.86
98.28,0.38,-4.41,0.37,-4.41,4.42,4.38,3.63,4.80,4.80,4.79
99.26,0.38,-4.33,0.38,-4.34,4.35,4.29,3.61,4.72,4.72,4.71
100.25,0.37,-4.27,0.37,-4.27,4.27,4.20,3.58,4.64,4.64,4.64
101.25,0.36,-4.20,0.37,-4.20,4.19,4.12,3.56,4.55,4.56,4.57
102.27,0.37,-4.13,0.37,-4.13,4.12,4.04,3.54,4.48,4.48,4.49
103.29,0.37,-4.05,0.37,-4.05,4.04,3.96,3.52,4.42,4.42,4.42
104.32,0.39,-3.97,0.38,-3.97,3.97,3.88,3.51,4.35,4.35,4.35
105.37,0.39,-3.89,0.39,-3.89,3.89,3.80,3.49,4.29,4.29,4.28
106.42,0.40,-3.81,0.40,-3.81,3.82,3.72,3.48,4.22,4.22,4.21
107.48,0.40,-3.74,0.40,-3.74,3.74,3.64,3.46,4.14,4.14,4.14
108.56,0.40,-3.67,0.40,-3.67,3.67,3.57,3.45,4.07,4.07,4.07
109.64,0.40,-3.60,0.40,-3.60,3.60,3.50,3.43,4.00,4.00,4.00
110.74,0.40,-3.52,0.40,-3.52,3.52,3.42,3.42,3.92,3.92,3.93
111.85,0.40,-3.45,0.40,-3.45,3.45,3.35,3.40,3.85,3.85,3.85
112.97,0.40,-3.38,0.40,-3.38,3.38,3.28,3.39,3.78,3.78,3.78
114.10,0.40,-3.30,0.41,-3.30,3.30,3.21,3.37,3.71,3.71,3.71
115.24,0.41,-3.23,0.41,-3.23,3.23,3.14,3.35,3.63,3.63,3.64
116.39,0.41,-3.15,0.41,-3.15,3.15,3.06,3.33,3.56,3.56,3.56
117.55,0.41,-3.08,0.41,-3.08,3.08,3.00,3.31,3.49,3.49,3.49
118.73,0.41,-3.00,0.41,-3.00,3.00,2.93,3.28,3.42,3.42,3.42
119.92,0.41,-2.93,0.41,-2.93,2.93,2.86,3.25,3.34,3.34,3.34
121.12,0.41,-2.85,0.41,-2.85,2.86,2.79,3.23,3.27,3.27,3.27
122.33,0.41,-2.78,0.41,-2.78,2.78,2.72,3.19,3.20,3.20,3.19
123.55,0.41,-2.71,0.41,-2.71,2.71,2.65,3.16,3.12,3.12,3.12
124.79,0.40,-2.64,0.40,-2.64,2.64,2.58,3.12,3.04,3.04,3.04
126.03,0.40,-2.57,0.40,-2.57,2.57,2.52,3.08,2.97,2.97,2.97
127.29,0.40,-2.50,0.40,-2.49,2.49,2.45,3.03,2.89,2.89,2.89
128.57,0.40,-2.42,0.40,-2.42,2.41,2.38,2.98,2.82,2.82,2.82
129.85,0.41,-2.34,0.41,-2.34,2.34,2.31,2.93,2.74,2.74,2.74
131.15,0.41,-2.26,0.41,-2.26,2.26,2.24,2.88,2.67,2.67,2.67
132.46,0.42,-2.18,0.42,-2.18,2.18,2.18,2.82,2.59,2.59,2.59
133.79,0.42,-2.10,0.42,-2.09,2.10,2.11,2.76,2.52,2.52,2.52
135.12,0.43,-2.01,0.43,-2.01,2.02,2.04,2.69,2.45,2.45,2.44
136.48,0.43,-1.94,0.43,-1.94,1.94,1.97,2.63,2.37,2.37,2.37
137.84,0.43,-1.86,0.43,-1.86,1.87,1.91,2.56,2.30,2.30,2.29
139.22,0.42,-1.79,0.42,-1.79,1.80,1.84,2.49,2.22,2.22,2.22
140.61,0.41,-1.73,0.41,-1.73,1.73,1.77,2.42,2.14,2.14,2.14
142.02,0.40,-1.66,0.40,-1.66,1.66,1.70,2.35,2.06,2.06,2.06
143.44,0.40,-1.59,0.40,-1.59,1.59,1.63,2.27,1.98,1.98,1.99
144.87,0.39,-1.52,0.39,-1.52,1.52,1.57,2.19,1.91,1.91,1.91
146.32,0.39,-1.45,0.39,-1.45,1.44,1.50,2.12,1.83,1.83,1.84
147.78,0.39,-1.37,0.39,-1.37,1.36,1.43,2.04,1.75,1.75,1.76
149.26,0.39,-1.29,0.39,-1.29,1.29,1.36,1.96,1.68,1.68,1.68
150.75,0.40,-1.21,0.40,-1.21,1.20,1.29,1.88,1.60,1.60,1.61
152.26,0.40,-1.12,0.40,-1.12,1.12,1.22,1.80,1.53,1.53,1.53
153.78,0.41,-1.04,0.41,-1.04,1.05,1.15,1.72,1.45,1.45,1.45
155.32,0.41,-0.96,0.41,-0.96,0.97,1.08,1.64,1.38,1.38,1.37
156.88,0.40,-0.89,0.40,-0.89,0.90,1.02,1.56,1.31,1.31,1.29
158.44,0.39,-0.83,0.39,-0.83,0.84,0.95,1.47,1.23,1.23,1.22
160.03,0.37,-0.77,0.37,-0.77,0.78,0.88,1.39,1.14,1.14,1.14
161.63,0.34,-0.72,0.34,-0.72,0.71,0.81,1.31,1.05,1.06,1.06
163.24,0.32,-0.66,0.32,-0.66,0.65,0.74,1.23,0.97,0.97,0.98
164.88,0.30,-0.61,0.30,-0.60,0.59,0.67,1.15,0.89,0.90,0.91
166.53,0.30,-0.53,0.30,-0.53,0.53,0.60,1.07,0.82,0.82,0.83
168.19,0.29,-0.46,0.29,-0.46,0.46,0.53,0.99,0.75,0.75,0.76
169.87,0.29,-0.39,0.29,-0.39,0.39,0.46,0.91,0.68,0.68,0.68
171.57,0.29,-0.32,0.29,-0.32,0.32,0.40,0.83,0.61,0.61,0.61
173.29,0.29,-0.24,0.29,-0.24,0.25,0.33,0.75,0.54,0.54,0.54
175.02,0.29,-0.17,0.29,-0.17,0.17,0.26,0.68,0.47,0.47,0.46
176.77,0.29,-0.10,0.29,-0.10,0.10,0.19,0.60,0.40,0.40,0.39
178.54,0.29,-0.04,0.29,-0.04,0.04,0.13,0.52,0.33,0.33,0.33
180.32,0.29,0.03,0.29,0.03,-0.03,0.06,0.44,0.26,0.26,0.26
182.13,0.28,0.09,0.28,0.09,-0.09,-0.00,0.36,0.19,0.19,0.19
183.95,0.28,0.15,0.28,0.15,-0.15,-0.07,0.29,0.13,0.13,0.13
185.79,0.27,0.21,0.27,0.21,-0.21,-0.13,0.21,0.06,0.06,0.06
187.65,0.27,0.27,0.27,0.27,-0.26,-0.19,0.14,0.00,0.00,0.00
189.52,0.26,0.32,0.26,0.32,-0.32,-0.25,0.06,-0.05,-0.06,-0.06
191.42,0.25,0.37,0.25,0.37,-0.36,-0.31,-0.01,-0.11,-0.11,-0.11
193.33,0.24,0.41,0.24,0.41,-0.41,-0.37,-0.09,-0.17,-0.17,-0.17
195.27,0.23,0.45,0.23,0.45,-0.45,-0.43,-0.16,-0.22,-0.22,-0.22
197.22,0.22,0.49,0.22,0.49,-0.49,-0.48,-0.24,-0.27,-0.27,-0.27
199.19,0.21,0.53,0.21,0.53,-0.53,-0.54,-0.31,-0.32,-0.32,-0.32
201.18,0.20,0.56,0.20,0.56,-0.56,-0.59,-0.38,-0.36,-0.36,-0.36
203.19,0.19,0.59,0.19,0.59,-0.60,-0.64,-0.45,-0.41,-0.41,-0.40
205.23,0.18,0.63,0.18,0.63,-0.63,-0.69,-0.52,-0.44,-0.44,-0.44
207.28,0.18,0.66,0.18,0.66,-0.66,-0.73,-0.59,-0.48,-0.48,-0.48
209.35,0.17,0.69,0.17,0.69,-0.68,-0.78,-0.66,-0.51,-0.51,-0.52
211.44,0.16,0.71,0.16,0.71,-0.71,-0.82,-0.73,-0.55,-0.55,-0.55
213.56,0.15,0.74,0.15,0.74,-0.74,-0.86,-0.79,-0.58,-0.58,-0.59
215.69,0.14,0.76,0.14,0.76,-0.76,-0.89,-0.86,-0.62,-0.62,-0.62
217.85,0.13,0.78,0.13,0.78,-0.78,-0.93,-0.92,-0.65,-0.65,-0.65
220.03,0.12,0.80,0.12,0.80,-0.80,-0.96,-0.98,-0.68,-0.68,-0.68
222.23,0.11,0.82,0.11,0.82,-0.82,-0.99,-1.03,-0.72,-0.72,-0.71
224.45,0.09,0.84,0.09,0.84,-0.84,-1.02,-1.09,-0.75,-0.75,-0.75
226.70,0.08,0.86,0.08,0.86,-0.86,-1.04,-1.14,-0.78,-0.78,-0.78
228.96,0.07,0.88,0.07,0.88,-0.88,-1.06,-1.19,-0.81,-0.81,-0.81
231.25,0.06,0.90,0.06,0.90,-0.90,-1.08,-1.24,-0.83,-0.84,-0.83
233.57,0.05,0.92,0.05,0.92,-0.92,-1.10,-1.28,-0.86,-0.86,-0.86
235.90,0.04,0.93,0.04,0.93,-0.93,-1.12,-1.32,-0.89,-0.89,-0.89
238.26,0.03,0.95,0.03,0.95,-0.95,-1.13,-1.36,-0.92,-0.92,-0.92
240.64,0.02,0.97,0.02,0.97,-0.97,-1.14,-1.39,-0.94,-0.94,-0.95
243.05,0.01,0.98,0.01,0.98,-0.98,-1.15,-1.42,-0.97,-0.97,-0.97
245.48,-0.00,0.99,-0.00,0.99,-0.99,-1.15,-1.44,-1.00,-1.00,-1.00
247.93,-0.02,1.01,-0.02,1.01,-1.01,-1.15,-1.46,-1.02,-1.02,-1.02
250.41,-0.03,1.02,-0.03,1.02,-1.02,-1.15,-1.48,-1.05,-1.05,-1.05
252.92,-0.04,1.03,-0.04,1.03,-1.03,-1.15,-1.49,-1.07,-1.07,-1.07
255.45,-0.06,1.04,-0.06,1.04,-1.04,-1.15,-1.50,-1.09,-1.09,-1.09
258.00,-0.07,1.04,-0.07,1.04,-1.04,-1.15,-1.51,-1.11,-1.11,-1.11
260.58,-0.08,1.05,-0.08,1.05,-1.05,-1.14,-1.51,-1.14,-1.14,-1.13
263.19,-0.10,1.06,-0.10,1.06,-1.06,-1.13,-1.51,-1.16,-1.16,-1.16
265.82,-0.11,1.07,-0.11,1.07,-1.07,-1.12,-1.50,-1.18,-1.18,-1.18
268.48,-0.12,1.08,-0.12,1.08,-1.08,-1.11,-1.49,-1.19,-1.19,-1.19
271.16,-0.13,1.08,-0.13,1.08,-1.08,-1.10,-1.48,-1.21,-1.21,-1.21
273.87,-0.14,1.09,-0.14,1.09,-1.09,-1.09,-1.47,-1.23,-1.23,-1.23
276.61,-0.15,1.09,-0.15,1.09,-1.09,-1.07,-1.45,-1.25,-1.25,-1.25
279.38,-0.17,1.10,-0.17,1.10,-1.09,-1.06,-1.43,-1.26,-1.26,-1.26
282.17,-0.18,1.10,-0.18,1.10,-1.09,-1.04,-1.41,-1.28,-1.28,-1.28
284.99,-0.20,1.10,-0.20,1.09,-1.09,-1.03,-1.38,-1.29,-1.29,-1.29
287.84,-0.22,1.09,-0.22,1.09,-1.09,-1.01,-1.36,-1.30,-1.30,-1.31
290.72,-0.23,1.09,-0.23,1.08,-1.08,-0.99,-1.33,-1.32,-1.32,-1.32
293.63,-0.25,1.08,-0.25,1.08,-1.08,-0.98,-1.30,-1.33,-1.33,-1.33
296.57,-0.27,1.07,-0.27,1.07,-1.07,-0.96,-1.27,-1.35,-1.35,-1.34
299.53,-0.29,1.06,-0.29,1.06,-1.07,-0.94,-1.24,-1.36,-1.36,-1.35
302.53,-0.30,1.06,-0.30,1.06,-1.06,-0.92,-1.21,-1.37,-1.37,-1.36
305.55,-0.32,1.05,-0.32,1.05,-1.06,-0.90,-1.18,-1.38,-1.38,-1.37
308.61,-0.33,1.05,-0.33,1.05,-1.05,-0.88,-1.14,-1.38,-1.38,-1.38
311.69,-0.34,1.05,-0.34,1.05,-1.05,-0.86,-1.11,-1.39,-1.39,-1.39
314.81,-0.35,1.04,-0.35,1.04,-1.04,-0.84,-1.08,-1.39,-1.39,-1.39
317.96,-0.36,1.03,-0.36,1.03,-1.03,-0.83,-1.04,-1.39,-1.39,-1.40
321.14,-0.38,1.02,-0.38,1.02,-1.02,-0.81,-1.01,-1.40,-1.40,-1.40
324.35,-0.40,1.00,-0.41,1.00,-1.00,-0.79,-0.98,-1.40,-1.40,-1.41
327.59,-0.43,0.98,-0.43,0.98,-0.98,-0.77,-0.95,-1.41,-1.41,-1.41
330.87,-0.46,0.96,-0.46,0.96,-0.96,-0.75,-0.91,-1.42,-1.42,-1.41
334.18,-0.48,0.94,-0.48,0.94,-0.94,-0.73,-0.88,-1.42,-1.42,-1.42
337.52,-0.50,0.92,-0.50,0.91,-0.92,-0.72,-0.85,-1.42,-1.42,-1.42
340.90,-0.52,0.90,-0.52,0.90,-0.90,-0.70,-0.82,-1.42,-1.42,-1.42
344.30,-0.54,0.88,-0.54,0.88,-0.88,-0.68,-0.79,-1.42,-1.42,-1.42
347.75,-0.56,0.86,-0.56,0.86,-0.86,-0.67,-0.76,-1.42,-1.42,-1.42
351.23,-0.57,0.85,-0.57,0.85,-0.85,-0.65,-0.73,-1.42,-1.42,-1.42
354.74,-0.58,0.83,-0.58,0.83,-0.83,-0.63,-0.70,-1.41,-1.41,-1.42
358.28,-0.60,0.82,-0.60,0.82,-0.82,-0.62,-0.67,-1.41,-1.41,-1.41
361.87,-0.61,0.80,-0.61,0.80,-0.80,-0.60,-0.65,-1.41,-1.41,-1.41
365.49,-0.62,0.78,-0.62,0.78,-0.79,-0.59,-0.62,-1.41,-1.41,-1.41
369.14,-0.63,0.77,-0.63,0.77,-0.77,-0.57,-0.59,-1.40,-1.40,-1.40
372.83,-0.64,0.76,-0.64,0.76,-0.76,-0.56,-0.57,-1.40,-1.40,-1.40
376.56,-0.65,0.74,-0.65,0.74,-0.74,-0.55,-0.54,-1.39,-1.39,-1.39
380.33,-0.66,0.73,-0.66,0.73,-0.73,-0.53,-0.52,-1.39,-1.39,-1.39
384.13,-0.67,0.71,-0.67,0.71,-0.71,-0.52,-0.50,-1.38,-1.38,-1.38
387.97,-0.69,0.69,-0.69,0.69,-0.69,-0.51,-0.47,-1.38,-1.38,-1.38
391.85,-0.70,0.67,-0.70,0.67,-0.67,-0.50,-0.45,-1.37,-1.37,-1.37
395.77,-0.72,0.65,-0.72,0.65,-0.66,-0.48,-0.43,-1.37,-1.37,-1.37
399.73,-0.73,0.63,-0.73,0.63,-0.64,-0.47,-0.41,-1.37,-1.37,-1.37
403.72,-0.75,0.62,-0.75,0.62,-0.62,-0.46,-0.39,-1.37,-1.37,-1.36
407.76,-0.76,0.60,-0.76,0.60,-0.60,-0.45,-0.37,-1.36,-1.36,-1.36
411.84,-0.78,0.58,-0.78,0.58,-0.58,-0.44,-0.35,-1.36,-1.36,-1.36
415.96,-0.79,0.56,-0.79,0.57,-0.56,-0.43,-0.33,-1.36,-1.36,-1.36
420.12,-0.81,0.55,-0.81,0.55,-0.55,-0.42,-0.31,-1.36,-1.36,-1.36
424.32,-0.83,0.53,-0.83,0.53,-0.53,-0.41,-0.29,-1.36,-1.36,-1.36
428.56,-0.84,0.52,-0.84,0.52,-0.52,-0.40,-0.28,-1.36,-1.36,-1.36
432.85,-0.86,0.50,-0.86,0.50,-0.50,-0.40,-0.26,-1.36,-1.36,-1.36
437.18,-0.87,0.49,-0.87,0.49,-0.49,-0.39,-0.25,-1.36,-1.36,-1.36
441.55,-0.89,0.47,-0.89,0.47,-0.47,-0.38,-0.23,-1.36,-1.36,-1.36
445.96,-0.90,0.45,-0.90,0.45,-0.46,-0.37,-0.22,-1.36,-1.36,-1.36
450.42,-0.92,0.44,-0.92,0.44,-0.44,-0.37,-0.21,-1.36,-1.36,-1.36
454.93,-0.93,0.43,-0.93,0.43,-0.42,-0.36,-0.19,-1.36,-1.36,-1.36
459.48,-0.95,0.41,-0.95,0.41,-0.41,-0.35,-0.18,-1.36,-1.36,-1.36
464.07,-0.97,0.39,-0.97,0.39,-0.39,-0.35,-0.17,-1.36,-1.36,-1.36
468.71,-0.98,0.38,-0.98,0.38,-0.38,-0.34,-0.16,-1.36,-1.36,-1.36
473.40,-1.00,0.36,-1.00,0.36,-0.36,-0.34,-0.16,-1.36,-1.36,-1.36
478.13,-1.02,0.34,-1.02,0.34,-0.34,-0.33,-0.15,-1.36,-1.36,-1.36
482.91,-1.03,0.33,-1.03,0.33,-0.33,-0.33,-0.14,-1.36,-1.36,-1.36
487.74,-1.04,0.31,-1.05,0.31,-0.31,-0.32,-0.14,-1.36,-1.36,-1.36
