frequency,raw,error,smoothed,error_smoothed,equalization,parametric_eq,fixed_band_eq,equalized_raw,equalized_smoothed,target
20.00,3.57,-2.42,3.57,-2.41,2.41,1.71,0.93,5.98,5.99,5.99
20.20,3.62,-2.37,3.62,-2.37,2.38,1.72,0.96,6.00,6.00,5.99
20.40,3.66,-2.32,3.66,-2.33,2.34,1.73,0.99,6.00,6.00,5.99
20.61,3.70,-2.29,3.69,-2.29,2.30,1.74,1.02,6.00,6.00,5.99
20.81,3.72,-2.27,3.72,-2.27,2.26,1.76,1.05,5.98,5.98,5.99
21.02,3.75,-2.24,3.75,-2.24,2.22,1.77,1.08,5.97,5.97,5.99
21.23,3.78,-2.21,3.78,-2.21,2.18,1.79,1.11,5.96,5.96,5.99
21.44,3.82,-2.17,3.82,-2.16,2.14,1.81,1.14,5.96,5.96,5.99
21.66,3.88,-2.11,3.88,-2.11,2.09,1.83,1.17,5.96,5.96,5.99
21.87,3.94,-2.05,3.94,-2.05,2.03,1.86,1.21,5.96,5.97,5.99
22.09,4.00,-1.99,4.00,-1.99,1.98,1.88,1.24,5.97,5.97,5.99
22.31,4.06,-1.93,4.05,-1.93,1.93,1.91,1.28,5.99,5.99,5.99
22.54,4.10,-1.89,4.10,-1.89,1.91,1.94,1.32,6.01,6.01,5.99
22.76,4.12,-1.87,4.11,-1.87,1.92,1.98,1.35,6.04,6.03,5.99
22.99,4.11,-1.88,4.10,-1.88,1.95,2.02,1.39,6.06,6.05,5.99
23.22,4.06,-1.93,4.06,-1.95,2.01,2.06,1.43,6.08,6.08,5.99
23.45,4.01,-2.06,4.01,-2.06,2.09,2.11,1.47,6.10,6.10,6.07
23.69,3.96,-2.19,3.95,-2.18,2.16,2.16,1.51,6.12,6.12,6.15
23.92,3.91,-2.31,3.92,-2.30,2.24,2.21,1.56,6.15,6.16,6.22
24.16,3.90,-2.38,3.91,-2.38,2.30,2.25,1.60,6.20,6.21,6.28
24.40,3.94,-2.42,3.94,-2.41,2.34,2.30,1.64,6.28,6.28,6.35
24.65,4.01,-2.42,4.01,-2.41,2.37,2.33,1.69,6.37,6.38,6.42
24.89,4.11,-2.38,4.11,-2.37,2.37,2.35,1.73,6.48,6.48,6.49
25.14,4.22,-2.33,4.22,-2.33,2.36,2.35,1.78,6.58,6.58,6.55
25.39,4.33,-2.28,4.33,-2.30,2.35,2.35,1.82,6.68,6.67,6.62
25.65,4.40,-2.30,4.40,-2.29,2.34,2.33,1.87,6.75,6.75,6.70
25.91,4.45,-2.32,4.44,-2.30,2.35,2.30,1.91,6.80,6.80,6.76
26.16,4.45,-2.33,4.45,-2.34,2.37,2.26,1.96,6.83,6.82,6.79
26.43,4.43,-2.36,4.43,-2.39,2.40,2.22,2.00,6.83,6.83,6.79
26.69,4.39,-2.47,4.39,-2.44,2.42,2.18,2.05,6.81,6.81,6.86
26.96,4.35,-2.50,4.35,-2.48,2.43,2.14,2.09,6.79,6.79,6.85
27.23,4.33,-2.46,4.33,-2.48,2.43,2.11,2.13,6.76,6.76,6.79
27.50,4.33,-2.46,4.33,-2.45,2.41,2.08,2.18,6.73,6.73,6.79
27.77,4.35,-2.39,4.34,-2.38,2.36,2.05,2.22,6.71,6.71,6.73
28.05,4.38,-2.30,4.38,-2.29,2.30,2.02,2.26,6.67,6.67,6.67
28.33,4.42,-2.18,4.42,-2.20,2.22,2.00,2.29,6.64,6.64,6.60
28.62,4.48,-2.11,4.48,-2.11,2.13,1.98,2.33,6.60,6.60,6.59
28.90,4.54,-2.05,4.54,-2.03,2.04,1.97,2.36,6.58,6.58,6.59
29.19,4.63,-1.96,4.63,-1.96,1.95,1.95,2.39,6.58,6.58,6.59
29.48,4.72,-1.87,4.72,-1.88,1.88,1.94,2.42,6.60,6.60,6.59
29.78,4.83,-1.80,4.83,-1.81,1.82,1.93,2.44,6.65,6.65,6.63
30.08,4.94,-1.76,4.94,-1.76,1.78,1.93,2.46,6.72,6.72,6.70
30.38,5.03,-1.73,5.03,-1.74,1.76,1.92,2.49,6.80,6.79,6.76
30.68,5.10,-1.73,5.10,-1.73,1.76,1.92,2.50,6.86,6.86,6.83
30.99,5.13,-1.76,5.13,-1.74,1.77,1.91,2.51,6.90,6.90,6.89
31.30,5.13,-1.75,5.13,-1.78,1.79,1.91,2.52,6.92,6.92,6.89
31.61,5.12,-1.81,5.12,-1.82,1.80,1.91,2.53,6.92,6.92,6.94
31.93,5.11,-1.87,5.12,-1.85,1.80,1.91,2.53,6.92,6.92,6.99
32.24,5.13,-1.85,5.14,-1.85,1.79,1.91,2.53,6.93,6.93,6.99
32.57,5.17,-1.82,5.17,-1.82,1.77,1.91,2.53,6.93,6.94,6.99
32.89,5.24,-1.75,5.24,-1.75,1.73,1.91,2.53,6.96,6.96,6.99
33.22,5.31,-1.68,5.31,-1.68,1.68,1.91,2.52,6.99,6.99,6.99
33.55,5.38,-1.61,5.38,-1.61,1.64,1.91,2.51,7.02,7.01,6.99
33.89,5.43,-1.56,5.43,-1.56,1.60,1.92,2.49,7.03,7.03,6.99
34.23,5.46,-1.53,5.46,-1.53,1.58,1.92,2.48,7.03,7.03,6.99
34.57,5.47,-1.52,5.46,-1.54,1.57,1.92,2.46,7.04,7.03,6.99
34.92,5.46,-1.57,5.46,-1.57,1.58,1.93,2.44,7.04,7.04,7.03
35.27,5.45,-1.64,5.45,-1.62,1.61,1.93,2.42,7.06,7.06,7.09
35.62,5.43,-1.65,5.43,-1.67,1.65,1.94,2.40,7.08,7.08,7.09
35.97,5.42,-1.72,5.42,-1.71,1.70,1.94,2.37,7.12,7.12,7.14
36.33,5.42,-1.77,5.42,-1.75,1.75,1.94,2.35,7.16,7.16,7.19
36.70,5.41,-1.77,5.41,-1.80,1.80,1.95,2.32,7.21,7.21,7.19
37.06,5.41,-1.83,5.41,-1.83,1.84,1.96,2.30,7.25,7.25,7.24
37.43,5.41,-1.88,5.41,-1.86,1.87,1.96,2.27,7.28,7.28,7.29
37.81,5.41,-1.87,5.41,-1.90,1.90,1.97,2.25,7.31,7.31,7.29
38.19,5.42,-1.92,5.42,-1.92,1.91,1.97,2.22,7.33,7.33,7.34
38.57,5.44,-1.94,5.44,-1.93,1.91,1.98,2.20,7.35,7.35,7.39
38.95,5.47,-1.92,5.47,-1.93,1.89,1.99,2.17,7.36,7.36,7.39
39.34,5.49,-1.89,5.49,-1.88,1.87,1.99,2.15,7.36,7.36,7.39
39.74,5.52,-1.83,5.51,-1.83,1.83,2.00,2.13,7.34,7.34,7.35
40.14,5.53,-1.76,5.53,-1.78,1.78,2.01,2.10,7.31,7.31,7.29
40.54,5.54,-1.75,5.54,-1.73,1.72,2.01,2.08,7.26,7.26,7.29
40.94,5.54,-1.70,5.55,-1.69,1.68,2.02,2.06,7.22,7.22,7.25
41.35,5.55,-1.64,5.55,-1.65,1.65,2.03,2.04,7.20,7.20,7.19
41.76,5.56,-1.63,5.56,-1.61,1.66,2.04,2.03,7.22,7.22,7.19
42.18,5.57,-1.62,5.57,-1.61,1.69,2.05,2.01,7.27,7.27,7.19
42.60,5.58,-1.64,5.58,-1.67,1.75,2.05,2.00,7.34,7.34,7.22
43.03,5.60,-1.77,5.60,-1.79,1.83,2.06,1.98,7.42,7.42,7.36
43.46,5.60,-1.96,5.60,-1.94,1.91,2.07,1.97,7.52,7.52,7.57
43.90,5.61,-2.10,5.61,-2.08,2.01,2.08,1.96,7.62,7.62,7.71
44.33,5.62,-2.16,5.62,-2.18,2.10,2.09,1.95,7.71,7.71,7.78
44.78,5.62,-2.23,5.62,-2.22,2.18,2.10,1.94,7.80,7.81,7.85
45.23,5.63,-2.25,5.63,-2.24,2.25,2.11,1.94,7.88,7.88,7.89
45.68,5.64,-2.24,5.64,-2.27,2.29,2.12,1.93,7.94,7.94,7.89
46.13,5.65,-2.31,5.65,-2.30,2.32,2.13,1.93,7.97,7.97,7.96
46.60,5.66,-2.33,5.66,-2.32,2.33,2.14,1.93,7.98,7.98,7.99
47.06,5.66,-2.33,5.66,-2.34,2.32,2.15,1.93,7.98,7.98,7.99
47.53,5.66,-2.33,5.66,-2.34,2.31,2.16,1.93,7.97,7.97,7.99
48.01,5.65,-2.34,5.65,-2.33,2.31,2.17,1.93,7.96,7.96,7.99
48.49,5.64,-2.33,5.65,-2.31,2.30,2.18,1.93,7.95,7.95,7.97
48.97,5.64,-2.26,5.64,-2.28,2.30,2.19,1.94,7.94,7.94,7.90
49.46,5.64,-2.25,5.64,-2.27,2.31,2.20,1.94,7.95,7.95,7.89
49.96,5.64,-2.27,5.64,-2.28,2.32,2.21,1.95,7.96,7.96,7.91
50.46,5.64,-2.34,5.64,-2.31,2.35,2.22,1.96,7.99,7.98,7.98
50.96,5.64,-2.35,5.64,-2.36,2.37,2.23,1.97,8.01,8.01,7.99
51.47,5.63,-2.38,5.63,-2.41,2.39,2.24,1.98,8.03,8.03,8.01
51.99,5.63,-2.46,5.63,-2.44,2.41,2.26,1.99,8.03,8.03,8.08
52.51,5.63,-2.46,5.63,-2.45,2.40,2.27,2.00,8.02,8.02,8.09
53.03,5.63,-2.43,5.63,-2.43,2.37,2.28,2.01,7.99,7.99,8.05
53.56,5.63,-2.35,5.63,-2.36,2.31,2.29,2.03,7.94,7.94,7.98
54.10,5.63,-2.28,5.63,-2.27,2.24,2.31,2.04,7.87,7.87,7.91
54.64,5.62,-2.18,5.63,-2.17,2.17,2.32,2.06,7.79,7.79,7.80
55.18,5.62,-2.05,5.62,-2.07,2.11,2.33,2.07,7.73,7.73,7.68
55.74,5.62,-1.99,5.62,-2.00,2.07,2.35,2.09,7.69,7.69,7.61
56.29,5.61,-1.97,5.61,-1.97,2.06,2.36,2.10,7.67,7.67,7.59
56.86,5.61,-2.00,5.61,-2.00,2.08,2.37,2.12,7.69,7.69,7.61
57.42,5.60,-2.07,5.60,-2.08,2.12,2.39,2.13,7.73,7.73,7.68
58.00,5.60,-2.20,5.60,-2.20,2.19,2.40,2.15,7.79,7.78,7.80
58.58,5.59,-2.32,5.59,-2.31,2.26,2.42,2.16,7.85,7.85,7.91
59.16,5.58,-2.40,5.58,-2.38,2.32,2.43,2.18,7.90,7.90,7.98
59.76,5.57,-2.42,5.57,-2.43,2.37,2.44,2.19,7.94,7.94,7.99
60.35,5.56,-2.43,5.56,-2.44,2.40,2.46,2.20,7.96,7.96,7.99
60.96,5.54,-2.44,5.54,-2.42,2.40,2.48,2.22,7.94,7.94,7.99
61.57,5.53,-2.39,5.53,-2.39,2.38,2.49,2.23,7.90,7.90,7.92
62.18,5.51,-2.33,5.51,-2.34,2.34,2.51,2.24,7.85,7.85,7.84
62.80,5.49,-2.29,5.49,-2.28,2.30,2.52,2.25,7.79,7.79,7.78
63.43,5.47,-2.24,5.47,-2.25,2.28,2.54,2.26,7.75,7.75,7.71
64.07,5.45,-2.23,5.45,-2.24,2.27,2.56,2.27,7.72,7.72,7.69
64.71,5.43,-2.25,5.43,-2.24,2.28,2.57,2.28,7.71,7.71,7.69
65.35,5.41,-2.27,5.41,-2.28,2.31,2.59,2.29,7.73,7.73,7.69
66.01,5.39,-2.34,5.39,-2.35,2.37,2.61,2.30,7.76,7.76,7.74
66.67,5.37,-2.43,5.37,-2.43,2.44,2.62,2.31,7.81,7.81,7.81
67.33,5.35,-2.53,5.35,-2.53,2.52,2.64,2.31,7.87,7.87,7.88
68.01,5.33,-2.62,5.33,-2.63,2.61,2.66,2.32,7.93,7.93,7.95
68.69,5.31,-2.71,5.31,-2.71,2.69,2.68,2.33,7.99,7.99,8.02
69.37,5.29,-2.80,5.29,-2.78,2.75,2.70,2.34,8.04,8.04,8.08
70.07,5.27,-2.82,5.27,-2.82,2.80,2.71,2.35,8.07,8.07,8.09
70.77,5.25,-2.84,5.25,-2.85,2.83,2.73,2.35,8.08,8.08,8.09
71.48,5.23,-2.86,5.23,-2.86,2.84,2.75,2.36,8.07,8.07,8.09
72.19,5.21,-2.88,5.21,-2.86,2.84,2.77,2.37,8.05,8.05,8.09
72.91,5.19,-2.85,5.19,-2.84,2.83,2.79,2.38,8.02,8.02,8.05
73.64,5.17,-2.80,5.17,-2.80,2.82,2.81,2.39,7.99,7.99,7.97
74.38,5.15,-2.75,5.15,-2.77,2.81,2.83,2.41,7.96,7.96,7.91
75.12,5.13,-2.76,5.13,-2.76,2.81,2.85,2.42,7.94,7.94,7.89
75.87,5.10,-2.78,5.10,-2.78,2.82,2.87,2.43,7.92,7.92,7.89
76.63,5.07,-2.81,5.07,-2.81,2.82,2.89,2.45,7.89,7.89,7.89
77.40,5.04,-2.84,5.04,-2.85,2.83,2.91,2.47,7.87,7.87,7.89
78.17,5.01,-2.88,5.01,-2.88,2.83,2.94,2.48,7.84,7.84,7.89
78.95,4.97,-2.91,4.97,-2.90,2.84,2.96,2.50,7.81,7.81,7.89
79.74,4.94,-2.89,4.94,-2.88,2.85,2.98,2.53,7.79,7.79,7.83
80.54,4.91,-2.84,4.91,-2.85,2.86,3.00,2.55,7.77,7.77,7.76
81.35,4.89,-2.80,4.89,-2.82,2.87,3.02,2.57,7.75,7.76,7.69
82.16,4.87,-2.82,4.86,-2.83,2.88,3.05,2.60,7.75,7.75,7.69
82.98,4.84,-2.88,4.84,-2.88,2.91,3.07,2.63,7.75,7.75,7.72
83.81,4.82,-2.97,4.82,-2.94,2.95,3.09,2.66,7.77,7.77,7.79
84.65,4.79,-2.99,4.79,-3.01,3.00,3.12,2.69,7.80,7.79,7.79
85.50,4.76,-3.06,4.76,-3.08,3.06,3.14,2.73,7.82,7.82,7.83
86.35,4.73,-3.15,4.73,-3.13,3.11,3.16,2.77,7.84,7.84,7.89
87.22,4.70,-3.19,4.70,-3.19,3.15,3.19,2.81,7.85,7.85,7.89
88.09,4.67,-3.22,4.67,-3.23,3.19,3.21,2.85,7.86,7.86,7.89
88.97,4.64,-3.25,4.64,-3.25,3.23,3.24,2.89,7.87,7.87,7.89
89.86,4.61,-3.28,4.61,-3.25,3.27,3.26,2.94,7.88,7.88,7.89
90.76,4.58,-3.25,4.58,-3.26,3.31,3.29,2.98,7.89,7.89,7.83
91.66,4.54,-3.27,4.54,-3.30,3.35,3.31,3.03,7.90,7.90,7.81
92.58,4.50,-3.37,4.50,-3.38,3.40,3.34,3.09,7.91,7.90,7.88
93.51,4.45,-3.50,4.45,-3.49,3.46,3.36,3.14,7.91,7.91,7.95
94.44,4.40,-3.59,4.40,-3.57,3.52,3.39,3.20,7.92,7.92,7.99
95.39,4.34,-3.64,4.35,-3.62,3.60,3.42,3.25,7.94,7.95,7.99
96.34,4.29,-3.63,4.29,-3.66,3.68,3.44,3.31,7.97,7.97,7.92
97.30,4.23,-3.69,4.23,-3.72,3.76,3.47,3.38,7.99,7.99,7.92
98.28,4.17,-3.82,4.16,-3.80,3.82,3.50,3.44,7.99,7.98,7.99
99.26,4.09,-3.89,4.09,-3.89,3.87,3.52,3.50,7.96,7.96,7.99
100.25,4.03,-3.96,4.03,-3.96,3.91,3.55,3.57,7.94,7.94,7.99
101.25,3.99,-4.00,4.00,-3.99,3.95,3.58,3.64,7.94,7.95,7.99
102.27,3.98,-4.00,3.98,-4.00,3.99,3.61,3.70,7.97,7.97,7.99
103.29,3.99,-4.00,3.99,-4.00,4.02,3.64,3.77,8.01,8.01,7.99
104.32,4.00,-3.99,3.99,-4.00,4.05,3.66,3.84,8.04,8.04,7.99
105.37,3.98,-4.00,3.98,-4.03,4.06,3.69,3.91,8.04,8.04,7.99
106.42,3.96,-4.07,3.96,-4.07,4.07,3.72,3.98,8.03,8.03,8.03
107.48,3.93,-4.14,3.92,-4.11,4.08,3.75,4.05,8.01,8.01,8.06
108.56,3.89,-4.12,3.89,-4.11,4.08,3.78,4.12,7.97,7.97,8.01
109.64,3.85,-4.07,3.85,-4.11,4.08,3.81,4.18,7.93,7.93,7.92
110.74,3.81,-4.07,3.82,-4.08,4.07,3.84,4.25,7.88,7.88,7.89
111.85,3.79,-4.10,3.79,-4.06,4.04,3.87,4.31,7.83,7.83,7.89
112.97,3.77,-4.02,3.77,-4.04,4.02,3.90,4.37,7.78,7.78,7.79
114.10,3.75,-3.99,3.75,-3.99,4.00,3.92,4.43,7.75,7.74,7.73
115.24,3.72,-3.95,3.72,-3.94,3.99,3.95,4.49,7.72,7.72,7.67
116.39,3.69,-3.92,3.69,-3.95,4.00,3.98,4.54,7.70,7.70,7.62
117.55,3.67,-3.98,3.66,-3.98,4.02,4.01,4.59,7.69,7.69,7.64
118.73,3.63,-4.05,3.63,-4.03,4.05,4.04,4.64,7.68,7.68,7.69
119.92,3.60,-4.08,3.60,-4.11,4.07,4.07,4.67,7.68,7.68,7.69
121.12,3.57,-4.17,3.57,-4.17,4.10,4.10,4.71,7.68,7.68,7.74
122.33,3.54,-4.23,3.54,-4.19,4.14,4.13,4.74,7.68,7.68,7.77
123.55,3.51,-4.20,3.50,-4.19,4.17,4.16,4.77,7.68,7.67,7.71
124.79,3.47,-4.14,3.46,-4.18,4.20,4.20,4.79,7.66,7.66,7.61
126.03,3.42,-4.17,3.42,-4.17,4.22,4.23,4.81,7.65,7.65,7.59
127.29,3.37,-4.21,3.37,-4.20,4.25,4.26,4.82,7.62,7.62,7.59
128.57,3.33,-4.26,3.33,-4.26,4.27,4.29,4.83,7.59,7.59,7.59
129.85,3.27,-4.31,3.28,-4.32,4.29,4.32,4.84,7.57,7.57,7.59
131.15,3.22,-4.36,3.22,-4.37,4.33,4.35,4.84,7.55,7.55,7.59
132.46,3.17,-4.41,3.17,-4.40,4.37,4.38,4.83,7.54,7.54,7.59
133.79,3.12,-4.43,3.12,-4.42,4.42,4.41,4.83,7.54,7.54,7.55
135.12,3.07,-4.42,3.07,-4.44,4.47,4.44,4.81,7.54,7.54,7.49
136.48,3.00,-4.48,3.00,-4.48,4.53,4.47,4.80,7.53,7.53,7.49
137.84,2.93,-4.56,2.93,-4.55,4.58,4.50,4.78,7.51,7.51,7.49
139.22,2.85,-4.64,2.85,-4.64,4.64,4.53,4.76,7.49,7.49,7.49
140.61,2.77,-4.72,2.77,-4.72,4.70,4.56,4.74,7.47,7.47,7.49
142.02,2.70,-4.79,2.70,-4.78,4.76,4.59,4.72,7.46,7.46,7.49
143.44,2.63,-4.83,2.63,-4.82,4.81,4.62,4.70,7.44,7.44,7.46
144.87,2.56,-4.83,2.56,-4.84,4.84,4.65,4.67,7.41,7.40,7.39
146.32,2.48,-4.84,2.48,-4.86,4.86,4.67,4.65,7.34,7.34,7.32
147.78,2.41,-4.88,2.41,-4.88,4.85,4.70,4.62,7.26,7.27,7.29
149.26,2.36,-4.91,2.36,-4.89,4.83,4.73,4.60,7.20,7.20,7.27
150.75,2.35,-4.85,2.35,-4.85,4.81,4.76,4.57,7.15,7.16,7.20
152.26,2.36,-4.78,2.37,-4.78,4.78,4.79,4.55,7.14,7.15,7.14
153.78,2.41,-4.68,2.41,-4.71,4.76,4.82,4.53,7.17,7.17,7.09
155.32,2.47,-4.68,2.47,-4.68,4.75,4.84,4.51,7.22,7.22,7.15
156.88,2.53,-4.70,2.53,-4.70,4.74,4.87,4.50,7.27,7.27,7.23
158.44,2.57,-4.74,2.57,-4.74,4.74,4.90,4.48,7.31,7.31,7.31
160.03,2.59,-4.79,2.59,-4.78,4.76,4.93,4.47,7.35,7.35,7.39
161.63,2.58,-4.81,2.58,-4.81,4.79,4.95,4.46,7.37,7.37,7.39
163.24,2.56,-4.83,2.56,-4.83,4.82,4.98,4.45,7.38,7.38,7.39
164.88,2.53,-4.86,2.53,-4.86,4.86,5.00,4.45,7.38,7.38,7.39
166.53,2.49,-4.90,2.49,-4.90,4.89,5.03,4.45,7.37,7.38,7.39
168.19,2.45,-4.94,2.45,-4.94,4.92,5.05,4.45,7.36,7.36,7.39
169.87,2.40,-4.98,2.40,-4.95,4.95,5.08,4.46,7.35,7.35,7.39
171.57,2.36,-4.95,2.36,-4.96,4.99,5.10,4.47,7.35,7.35,7.31
173.29,2.32,-4.97,2.32,-4.98,5.03,5.12,4.48,7.35,7.35,7.29
175.02,2.28,-5.01,2.28,-5.03,5.07,5.14,4.49,7.35,7.35,7.29
176.77,2.24,-5.14,2.23,-5.12,5.11,5.17,4.51,7.35,7.35,7.38
178.54,2.19,-5.20,2.19,-5.18,5.15,5.19,4.54,7.34,7.34,7.39
180.32,2.14,-5.23,2.14,-5.22,5.18,5.21,4.56,7.33,7.33,7.38
182.13,2.10,-5.22,2.10,-5.23,5.21,5.23,4.59,7.31,7.31,7.32
183.95,2.05,-5.23,2.05,-5.24,5.23,5.25,4.62,7.29,7.29,7.29
185.79,2.01,-5.25,2.01,-5.23,5.24,5.27,4.66,7.25,7.25,7.26
187.65,1.97,-5.23,1.97,-5.22,5.23,5.28,4.70,7.20,7.20,7.20
189.52,1.93,-5.20,1.93,-5.21,5.21,5.30,4.74,7.14,7.14,7.14
191.42,1.90,-5.19,1.90,-5.21,5.18,5.32,4.79,7.08,7.08,7.09
193.33,1.87,-5.22,1.87,-5.19,5.17,5.33,4.84,7.04,7.04,7.09
195.27,1.84,-5.18,1.85,-5.16,5.17,5.35,4.89,7.01,7.01,7.02
197.22,1.82,-5.12,1.82,-5.14,5.18,5.36,4.94,7.01,7.00,6.95
199.19,1.80,-5.10,1.79,-5.14,5.21,5.38,5.00,7.00,7.00,6.89
201.18,1.75,-5.21,1.75,-5.19,5.25,5.39,5.06,7.00,7.00,6.96
203.19,1.70,-5.29,1.70,-5.27,5.28,5.40,5.12,6.98,6.98,6.99
205.23,1.64,-5.35,1.64,-5.36,5.32,5.41,5.18,6.95,6.96,6.99
207.28,1.58,-5.41,1.58,-5.42,5.35,5.42,5.24,6.93,6.93,6.99
209.35,1.53,-5.46,1.53,-5.45,5.37,5.43,5.31,6.90,6.90,6.99
211.44,1.48,-5.47,1.48,-5.44,5.39,5.44,5.37,6.87,6.87,6.96
213.56,1.44,-5.38,1.44,-5.39,5.40,5.45,5.43,6.84,6.84,6.82
215.69,1.40,-5.33,1.40,-5.35,5.40,5.46,5.50,6.80,6.80,6.73
217.85,1.36,-5.33,1.36,-5.34,5.40,5.46,5.56,6.76,6.76,6.69
220.03,1.31,-5.37,1.31,-5.37,5.41,5.47,5.62,6.72,6.72,6.69
222.23,1.27,-5.41,1.27,-5.41,5.43,5.47,5.68,6.70,6.70,6.69
224.45,1.23,-5.45,1.23,-5.45,5.45,5.47,5.74,6.69,6.69,6.69
226.70,1.19,-5.49,1.19,-5.49,5.48,5.48,5.79,6.68,6.68,6.69
228.96,1.15,-5.53,1.15,-5.54,5.51,5.48,5.84,6.67,6.67,6.69
231.25,1.12,-5.57,1.12,-5.58,5.54,5.48,5.89,6.65,6.65,6.69
233.57,1.08,-5.61,1.08,-5.59,5.55,5.48,5.93,6.63,6.63,6.69
235.90,1.05,-5.58,1.05,-5.57,5.56,5.48,5.96,6.61,6.61,6.62
238.26,1.02,-5.52,1.02,-5.53,5.56,5.47,5.99,6.58,6.58,6.54
240.64,0.99,-5.49,0.99,-5.51,5.55,5.47,6.02,6.55,6.55,6.49
243.05,0.97,-5.52,0.97,-5.52,5.54,5.47,6.03,6.51,6.51,6.49
245.48,0.95,-5.54,0.95,-5.53,5.52,5.46,6.04,6.47,6.47,6.49
247.93,0.93,-5.53,0.93,-5.53,5.49,5.46,6.05,6.42,6.42,6.46
250.41,0.91,-5.49,0.91,-5.50,5.47,5.45,6.04,6.37,6.37,6.40
252.92,0.88,-5.46,0.88,-5.46,5.44,5.44,6.03,6.32,6.32,6.34
255.45,0.86,-5.42,0.86,-5.41,5.42,5.43,6.01,6.27,6.27,6.27
258.00,0.83,-5.36,0.83,-5.36,5.39,5.42,5.99,6.22,6.21,6.19
260.58,0.79,-5.33,0.79,-5.34,5.36,5.41,5.95,6.16,6.16,6.12
263.19,0.76,-5.33,0.76,-5.34,5.35,5.40,5.92,6.11,6.11,6.09
265.82,0.72,-5.37,0.72,-5.34,5.35,5.39,5.87,6.07,6.07,6.09
268.48,0.68,-5.34,0.68,-5.35,5.36,5.38,5.82,6.04,6.04,6.02
271.16,0.64,-5.34,0.64,-5.36,5.37,5.36,5.76,6.02,6.02,5.99
273.87,0.61,-5.38,0.61,-5.38,5.40,5.35,5.71,6.01,6.01,5.99
276.61,0.57,-5.42,0.57,-5.42,5.42,5.34,5.64,5.99,5.99,5.99
279.38,0.53,-5.45,0.53,-5.46,5.44,5.32,5.57,5.97,5.97,5.99
282.17,0.50,-5.49,0.50,-5.47,5.44,5.30,5.50,5.93,5.93,5.98
284.99,0.46,-5.45,0.46,-5.46,5.43,5.29,5.43,5.89,5.89,5.91
287.84,0.42,-5.42,0.42,-5.43,5.40,5.27,5.35,5.83,5.83,5.84
290.72,0.39,-5.38,0.39,-5.38,5.37,5.25,5.27,5.75,5.75,5.77
293.63,0.35,-5.34,0.35,-5.32,5.32,5.23,5.20,5.67,5.67,5.70
296.57,0.32,-5.24,0.32,-5.25,5.26,5.22,5.12,5.58,5.58,5.56
299.53,0.29,-5.17,0.29,-5.19,5.20,5.20,5.04,5.48,5.48,5.46
302.53,0.25,-5.14,0.25,-5.13,5.14,5.18,4.96,5.40,5.40,5.40
305.55,0.22,-5.10,0.22,-5.09,5.10,5.16,4.88,5.33,5.33,5.32
308.61,0.19,-5.06,0.19,-5.06,5.08,5.14,4.81,5.28,5.28,5.25
311.69,0.16,-5.03,0.16,-5.04,5.08,5.11,4.73,5.24,5.24,5.19
314.81,0.14,-5.05,0.14,-5.05,5.09,5.09,4.66,5.22,5.22,5.19
317.96,0.11,-5.08,0.11,-5.07,5.10,5.07,4.59,5.21,5.21,5.19
321.14,0.08,-5.11,0.08,-5.11,5.11,5.05,4.52,5.19,5.19,5.19
324.35,0.05,-5.14,0.05,-5.15,5.11,5.03,4.45,5.16,5.16,5.19
327.59,0.02,-5.17,0.02,-5.16,5.09,5.00,4.39,5.11,5.11,5.19
330.87,-0.01,-5.17,-0.01,-5.14,5.06,4.98,4.32,5.05,5.05,5.15
334.18,-0.04,-5.06,-0.04,-5.07,5.02,4.95,4.27,4.98,4.98,5.02
337.52,-0.07,-4.96,-0.07,-4.96,4.98,4.93,4.21,4.90,4.90,4.89
340.90,-0.10,-4.85,-0.10,-4.84,4.92,4.90,4.16,4.82,4.82,4.75
344.30,-0.13,-4.74,-0.13,-4.77,4.86,4.88,4.11,4.73,4.73,4.61
347.75,-0.15,-4.74,-0.15,-4.76,4.79,4.85,4.06,4.64,4.64,4.59
351.23,-0.18,-4.77,-0.18,-4.76,4.72,4.82,4.02,4.54,4.54,4.59
354.74,-0.21,-4.79,-0.21,-4.75,4.67,4.79,3.98,4.47,4.47,4.59
358.28,-0.24,-4.69,-0.24,-4.68,4.64,4.77,3.94,4.40,4.40,4.45
361.87,-0.26,-4.57,-0.26,-4.59,4.61,4.73,3.90,4.35,4.35,4.31
365.49,-0.29,-4.48,-0.29,-4.51,4.59,4.70,3.87,4.30,4.30,4.19
369.14,-0.31,-4.50,-0.31,-4.50,4.56,4.67,3.84,4.24,4.24,4.19
372.83,-0.34,-4.53,-0.34,-4.51,4.52,4.63,3.82,4.19,4.19,4.19
376.56,-0.36,-4.54,-0.36,-4.53,4.49,4.60,3.80,4.12,4.12,4.18
380.33,-0.39,-4.50,-0.39,-4.50,4.45,4.56,3.78,4.06,4.06,4.11
384.13,-0.41,-4.45,-0.41,-4.46,4.41,4.52,3.76,4.00,4.00,4.04
387.97,-0.43,-4.40,-0.43,-4.41,4.38,4.47,3.74,3.95,3.95,3.97
391.85,-0.46,-4.36,-0.46,-4.33,4.35,4.43,3.73,3.89,3.89,3.91
395.77,-0.48,-4.26,-0.48,-4.27,4.31,4.38,3.72,3.83,3.83,3.78
399.73,-0.50,-4.19,-0.50,-4.22,4.28,4.33,3.71,3.78,3.78,3.69
403.72,-0.53,-4.21,-0.53,-4.21,4.25,4.28,3.71,3.72,3.72,3.69
407.76,-0.55,-4.24,-0.55,-4.22,4.22,4.22,3.70,3.67,3.67,3.69
411.84,-0.58,-4.23,-0.58,-4.22,4.19,4.17,3.70,3.61,3.61,3.66
415.96,-0.60,-4.19,-0.60,-4.19,4.15,4.11,3.69,3.56,3.55,3.59
420.12,-0.62,-4.14,-0.62,-4.15,4.12,4.05,3.69,3.50,3.50,3.52
424.32,-0.64,-4.09,-0.64,-4.08,4.07,3.99,3.69,3.43,3.43,3.45
428.56,-0.66,-4.03,-0.66,-4.01,4.02,3.92,3.69,3.36,3.36,3.37
432.85,-0.68,-3.91,-0.68,-3.93,3.95,3.85,3.69,3.27,3.27,3.22
437.18,-0.70,-3.84,-0.70,-3.86,3.87,3.79,3.68,3.17,3.17,3.14
441.55,-0.72,-3.80,-0.72,-3.79,3.79,3.72,3.68,3.06,3.06,3.08
445.96,-0.74,-3.75,-0.74,-3.73,3.70,3.65,3.68,2.96,2.96,3.00
450.42,-0.76,-3.65,-0.76,-3.64,3.62,3.58,3.67,2.86,2.86,2.89
454.93,-0.78,-3.54,-0.78,-3.53,3.54,3.51,3.66,2.76,2.76,2.76
459.48,-0.80,-3.41,-0.80,-3.43,3.47,3.43,3.65,2.67,2.67,2.60
464.07,-0.82,-3.35,-0.82,-3.35,3.39,3.36,3.63,2.57,2.57,2.53
468.71,-0.84,-3.30,-0.84,-3.30,3.32,3.29,3.62,2.47,2.47,2.46
473.40,-0.86,-3.26,-0.86,-3.26,3.23,3.21,3.60,2.37,2.37,2.40
478.13,-0.88,-3.20,-0.88,-3.20,3.15,3.14,3.57,2.27,2.27,2.33
482.91,-0.89,-3.13,-0.89,-3.11,3.08,3.07,3.54,2.18,2.18,2.23
487.74,-0.91,-3.01,-0.91,-3.01,3.00,2.99,3.51,2.09,2.09,2.09
492.62,-0.93,-2.88,-0.93,-2.90,2.92,2.92,3.47,1.99,1.99,1.95
497.55,-0.94,-2.80,-0.94,-2.80,2.84,2.84,3.43,1.90,1.90,1.85
502.52,-0.96,-2.74,-0.96,-2.73,2.76,2.77,3.38,1.80,1.80,1.78
507.55,-0.97,-2.68,-0.97,-2.68,2.67,2.69,3.33,1.70,1.70,1.71
512.62,-0.98,-2.62,-0.98,-2.62,2.59,2.62,3.27,1.61,1.61,1.64
517.75,-0.99,-2.56,-0.99,-2.53,2.51,2.55,3.21,1.52,1.52,1.57
522.93,-1.00,-2.42,-1.01,-2.44,2.44,2.47,3.14,1.44,1.44,1.42
528.16,-1.02,-2.35,-1.02,-2.37,2.37,2.40,3.07,1.35,1.35,1.33
533.44,-1.03,-2.30,-1.03,-2.29,2.30,2.33,2.99,1.27,1.27,1.27
538.77,-1.05,-2.25,-1.05,-2.22,2.23,2.25,2.91,1.18,1.18,1.20
544.16,-1.06,-2.13,-1.06,-2.15,2.16,2.18,2.83,1.10,1.10,1.07
549.60,-1.07,-2.06,-1.07,-2.09,2.10,2.11,2.74,1.02,1.02,0.99
555.10,-1.09,-2.07,-1.09,-2.05,2.04,2.03,2.65,0.95,0.95,0.99
560.65,-1.10,-2.02,-1.10,-1.99,1.99,1.96,2.56,0.89,0.89,0.92
566.25,-1.11,-1.93,-1.11,-1.93,1.93,1.89,2.46,0.82,0.82,0.81
