frequency,raw,error,smoothed,error_smoothed,equalization,parametric_eq,fixed_band_eq,equalized_raw,equalized_smoothed,target
20.00,8.15,-2.08,8.15,-2.08,2.08,2.09,0.52,10.23,10.23,10.23
20.20,8.18,-2.06,8.18,-2.06,2.06,2.09,0.53,10.23,10.23,10.23
20.40,8.20,-2.03,8.20,-2.03,2.03,2.09,0.55,10.24,10.24,10.23
20.61,8.23,-2.01,8.22,-2.01,2.01,2.08,0.56,10.24,10.24,10.23
20.81,8.24,-1.99,8.24,-1.99,1.99,2.07,0.58,10.23,10.23,10.23
21.02,8.26,-1.96,8.26,-1.96,1.96,2.05,0.60,10.23,10.23,10.23
21.23,8.28,-1.94,8.28,-1.94,1.94,2.04,0.61,10.22,10.22,10.22
21.44,8.31,-1.91,8.31,-1.91,1.91,2.01,0.63,10.22,10.22,10.22
21.66,8.33,-1.89,8.33,-1.89,1.88,1.99,0.65,10.21,10.21,10.22
21.87,8.35,-1.86,8.35,-1.86,1.86,1.96,0.67,10.21,10.21,10.21
22.09,8.38,-1.82,8.38,-1.82,1.83,1.93,0.69,10.20,10.20,10.20
22.31,8.40,-1.79,8.40,-1.79,1.79,1.89,0.71,10.20,10.20,10.20
22.54,8.43,-1.76,8.43,-1.76,1.76,1.86,0.73,10.19,10.19,10.19
22.76,8.45,-1.73,8.45,-1.73,1.73,1.82,0.75,10.18,10.18,10.18
22.99,8.47,-1.70,8.47,-1.70,1.70,1.78,0.77,10.16,10.16,10.16
23.22,8.49,-1.67,8.49,-1.67,1.67,1.75,0.79,10.15,10.15,10.15
23.45,8.51,-1.64,8.51,-1.64,1.64,1.71,0.82,10.14,10.14,10.14
23.69,8.52,-1.61,8.52,-1.61,1.61,1.67,0.84,10.13,10.13,10.13
23.92,8.54,-1.58,8.54,-1.58,1.58,1.63,0.86,10.12,10.12,10.12
24.16,8.55,-1.55,8.55,-1.55,1.55,1.59,0.89,10.11,10.11,10.10
24.40,8.57,-1.53,8.57,-1.53,1.53,1.55,0.91,10.09,10.09,10.09
24.65,8.58,-1.50,8.58,-1.50,1.50,1.51,0.94,10.08,10.08,10.08
24.89,8.59,-1.48,8.59,-1.48,1.48,1.48,0.96,10.07,10.07,10.07
25.14,8.60,-1.46,8.60,-1.46,1.46,1.44,0.99,10.06,10.06,10.06
25.39,8.61,-1.44,8.62,-1.44,1.43,1.41,1.01,10.05,10.05,10.05
25.65,8.63,-1.41,8.63,-1.41,1.41,1.37,1.04,10.04,10.04,10.04
25.91,8.65,-1.39,8.65,-1.39,1.39,1.34,1.06,10.04,10.04,10.03
26.16,8.66,-1.36,8.66,-1.36,1.37,1.31,1.09,10.03,10.03,10.03
26.43,8.68,-1.34,8.68,-1.34,1.34,1.28,1.11,10.02,10.02,10.02
26.69,8.69,-1.32,8.69,-1.32,1.32,1.25,1.14,10.01,10.01,10.01
26.96,8.71,-1.30,8.71,-1.29,1.29,1.22,1.16,9.99,10.00,10.00
27.23,8.72,-1.27,8.72,-1.27,1.26,1.19,1.19,9.98,9.98,9.99
27.50,8.74,-1.24,8.74,-1.24,1.23,1.17,1.21,9.97,9.97,9.98
27.77,8.76,-1.20,8.76,-1.20,1.20,1.14,1.23,9.96,9.96,9.97
28.05,8.79,-1.17,8.79,-1.17,1.17,1.12,1.25,9.96,9.96,9.96
28.33,8.81,-1.13,8.81,-1.13,1.14,1.10,1.27,9.95,9.95,9.94
28.62,8.83,-1.10,8.82,-1.10,1.12,1.08,1.29,9.94,9.94,9.93
28.90,8.83,-1.08,8.83,-1.09,1.10,1.06,1.31,9.93,9.93,9.92
29.19,8.83,-1.08,8.83,-1.08,1.08,1.04,1.33,9.91,9.91,9.90
29.48,8.82,-1.07,8.82,-1.07,1.07,1.02,1.35,9.88,9.89,9.89
29.78,8.81,-1.07,8.81,-1.07,1.06,1.01,1.36,9.87,9.87,9.88
30.08,8.80,-1.06,8.81,-1.06,1.05,0.99,1.37,9.85,9.86,9.87
30.38,8.81,-1.05,8.81,-1.05,1.05,0.98,1.39,9.85,9.86,9.86
30.68,8.81,-1.04,8.81,-1.04,1.05,0.97,1.40,9.86,9.86,9.85
30.99,8.81,-1.03,8.81,-1.03,1.05,0.96,1.40,9.86,9.86,9.84
31.30,8.79,-1.04,8.79,-1.04,1.06,0.95,1.41,9.85,9.85,9.83
31.61,8.77,-1.05,8.77,-1.06,1.06,0.94,1.42,9.83,9.83,9.82
31.93,8.73,-1.08,8.74,-1.08,1.07,0.93,1.42,9.80,9.80,9.81
32.24,8.71,-1.09,8.71,-1.09,1.07,0.92,1.42,9.78,9.78,9.80
32.57,8.70,-1.10,8.70,-1.09,1.06,0.92,1.42,9.76,9.77,9.79
32.89,8.71,-1.08,8.71,-1.08,1.06,0.91,1.42,9.77,9.77,9.78
33.22,8.72,-1.05,8.72,-1.05,1.05,0.91,1.42,9.78,9.78,9.77
33.55,8.74,-1.02,8.74,-1.02,1.05,0.91,1.41,9.79,9.78,9.76
33.89,8.74,-1.01,8.74,-1.01,1.04,0.91,1.41,9.78,9.78,9.75
34.23,8.73,-1.01,8.73,-1.01,1.03,0.90,1.40,9.76,9.76,9.74
34.57,8.71,-1.02,8.71,-1.02,1.02,0.91,1.39,9.73,9.73,9.73
34.92,8.68,-1.03,8.68,-1.03,1.01,0.91,1.38,9.69,9.70,9.71
35.27,8.67,-1.03,8.67,-1.03,1.01,0.91,1.38,9.68,9.68,9.70
35.62,8.67,-1.02,8.67,-1.02,1.01,0.91,1.37,9.68,9.68,9.69
35.97,8.67,-1.01,8.67,-1.01,1.02,0.92,1.35,9.69,9.68,9.68
36.33,8.67,-1.00,8.67,-1.00,1.02,0.92,1.34,9.68,9.68,9.67
36.70,8.66,-1.00,8.65,-1.00,1.01,0.93,1.33,9.67,9.67,9.66
37.06,8.64,-1.01,8.64,-1.01,1.01,0.94,1.32,9.65,9.65,9.64
37.43,8.61,-1.02,8.62,-1.01,1.00,0.95,1.31,9.62,9.62,9.63
37.81,8.60,-1.01,8.60,-1.01,1.00,0.96,1.30,9.60,9.60,9.62
38.19,8.60,-1.01,8.60,-1.01,1.00,0.97,1.29,9.59,9.59,9.60
38.57,8.59,-0.99,8.59,-0.99,0.99,0.98,1.28,9.59,9.58,9.59
38.95,8.59,-0.98,8.59,-0.98,0.99,0.99,1.27,9.58,9.57,9.57
39.34,8.58,-0.97,8.58,-0.98,0.99,1.00,1.26,9.56,9.56,9.55
39.74,8.56,-0.97,8.56,-0.97,0.98,1.01,1.25,9.54,9.54,9.53
40.14,8.54,-0.97,8.54,-0.97,0.98,1.02,1.24,9.51,9.51,9.51
40.54,8.51,-0.98,8.51,-0.98,0.98,1.03,1.23,9.49,9.48,9.49
40.94,8.48,-0.98,8.48,-0.98,0.97,1.04,1.23,9.45,9.45,9.46
41.35,8.45,-0.98,8.45,-0.98,0.97,1.05,1.22,9.43,9.43,9.44
41.76,8.43,-0.98,8.43,-0.98,0.97,1.06,1.21,9.40,9.40,9.41
42.18,8.41,-0.97,8.42,-0.97,0.97,1.07,1.21,9.39,9.39,9.39
42.60,8.40,-0.96,8.40,-0.96,0.97,1.08,1.21,9.37,9.37,9.36
43.03,8.38,-0.96,8.38,-0.96,0.97,1.09,1.20,9.35,9.34,9.34
43.46,8.35,-0.96,8.35,-0.96,0.96,1.09,1.20,9.31,9.31,9.31
43.90,8.32,-0.97,8.32,-0.97,0.96,1.09,1.20,9.29,9.29,9.29
44.33,8.29,-0.98,8.30,-0.97,0.97,1.10,1.20,9.26,9.27,9.27
44.78,8.28,-0.97,8.28,-0.97,0.98,1.10,1.20,9.25,9.26,9.25
45.23,8.26,-0.97,8.26,-0.98,0.99,1.10,1.20,9.25,9.24,9.24
45.68,8.24,-0.99,8.23,-0.99,1.00,1.10,1.21,9.23,9.23,9.22
46.13,8.20,-1.01,8.20,-1.01,1.01,1.10,1.21,9.21,9.21,9.21
46.60,8.16,-1.04,8.17,-1.04,1.02,1.10,1.21,9.18,9.19,9.20
47.06,8.14,-1.05,8.15,-1.05,1.05,1.10,1.22,9.19,9.19,9.19
47.53,8.13,-1.06,8.13,-1.06,1.07,1.10,1.22,9.20,9.20,9.19
48.01,8.11,-1.06,8.11,-1.07,1.10,1.10,1.23,9.21,9.20,9.18
48.49,8.07,-1.10,8.06,-1.10,1.12,1.10,1.24,9.19,9.18,9.17
48.97,8.01,-1.15,8.01,-1.15,1.14,1.10,1.25,9.15,9.15,9.16
49.46,7.95,-1.20,7.96,-1.19,1.16,1.10,1.26,9.10,9.12,9.14
49.96,7.92,-1.21,7.93,-1.20,1.18,1.10,1.27,9.09,9.10,9.13
50.46,7.92,-1.19,7.91,-1.20,1.19,1.10,1.28,9.11,9.10,9.11
50.96,7.91,-1.18,7.90,-1.19,1.20,1.10,1.29,9.11,9.10,9.09
51.47,7.88,-1.18,7.87,-1.19,1.20,1.11,1.30,9.08,9.07,9.06
51.99,7.83,-1.21,7.83,-1.20,1.20,1.11,1.31,9.03,9.03,9.04
52.51,7.79,-1.22,7.80,-1.21,1.20,1.12,1.33,8.99,9.00,9.01
53.03,7.77,-1.21,7.78,-1.21,1.20,1.13,1.34,8.97,8.98,8.98
53.56,7.76,-1.19,7.76,-1.19,1.21,1.13,1.35,8.97,8.97,8.95
54.10,7.74,-1.19,7.73,-1.19,1.22,1.14,1.36,8.96,8.95,8.92
54.64,7.69,-1.21,7.68,-1.21,1.23,1.15,1.38,8.92,8.91,8.89
55.18,7.61,-1.25,7.61,-1.25,1.25,1.16,1.39,8.85,8.86,8.86
55.74,7.54,-1.29,7.55,-1.28,1.26,1.17,1.40,8.80,8.81,8.83
56.29,7.50,-1.30,7.50,-1.29,1.28,1.18,1.41,8.78,8.78,8.80
56.86,7.47,-1.29,7.46,-1.30,1.30,1.19,1.42,8.77,8.76,8.76
57.42,7.42,-1.31,7.42,-1.31,1.32,1.20,1.44,8.74,8.74,8.73
58.00,7.37,-1.33,7.38,-1.32,1.33,1.21,1.45,8.71,8.71,8.70
58.58,7.33,-1.34,7.33,-1.34,1.35,1.23,1.46,8.68,8.68,8.67
59.16,7.28,-1.35,7.28,-1.35,1.35,1.24,1.46,8.64,8.63,8.63
59.76,7.23,-1.37,7.23,-1.37,1.36,1.26,1.47,8.59,8.58,8.60
60.35,7.18,-1.39,7.18,-1.39,1.37,1.27,1.48,8.54,8.54,8.57
60.96,7.14,-1.40,7.15,-1.39,1.37,1.29,1.49,8.51,8.52,8.54
61.57,7.13,-1.38,7.13,-1.38,1.38,1.30,1.49,8.51,8.51,8.50
62.18,7.11,-1.36,7.10,-1.37,1.39,1.32,1.49,8.51,8.50,8.47
62.80,7.06,-1.37,7.06,-1.38,1.41,1.33,1.50,8.47,8.47,8.44
63.43,6.99,-1.41,6.99,-1.41,1.42,1.35,1.50,8.41,8.42,8.40
64.07,6.92,-1.45,6.93,-1.44,1.43,1.37,1.50,8.35,8.36,8.37
64.71,6.86,-1.47,6.86,-1.47,1.45,1.39,1.50,8.31,8.31,8.33
65.35,6.81,-1.48,6.81,-1.48,1.46,1.40,1.50,8.28,8.28,8.29
66.01,6.77,-1.49,6.77,-1.49,1.48,1.42,1.50,8.25,8.24,8.26
66.67,6.72,-1.50,6.72,-1.49,1.49,1.44,1.49,8.21,8.21,8.22
67.33,6.68,-1.50,6.68,-1.49,1.50,1.46,1.49,8.17,8.18,8.17
68.01,6.64,-1.49,6.64,-1.49,1.51,1.48,1.49,8.14,8.14,8.13
68.69,6.60,-1.49,6.59,-1.50,1.51,1.50,1.48,8.11,8.11,8.09
69.37,6.54,-1.51,6.53,-1.51,1.53,1.52,1.48,8.06,8.06,8.05
70.07,6.47,-1.53,6.46,-1.54,1.54,1.54,1.47,8.01,8.00,8.00
70.77,6.38,-1.57,6.39,-1.56,1.56,1.56,1.46,7.94,7.95,7.96
71.48,6.32,-1.59,6.33,-1.59,1.58,1.58,1.46,7.90,7.90,7.91
72.19,6.27,-1.60,6.27,-1.60,1.59,1.60,1.45,7.87,7.86,7.87
72.91,6.21,-1.61,6.21,-1.61,1.61,1.62,1.45,7.82,7.82,7.82
73.64,6.15,-1.62,6.15,-1.63,1.63,1.64,1.44,7.78,7.78,7.78
74.38,6.09,-1.64,6.09,-1.64,1.64,1.66,1.43,7.73,7.73,7.73
75.12,6.03,-1.66,6.03,-1.65,1.65,1.68,1.43,7.67,7.68,7.68
75.87,5.98,-1.66,5.98,-1.66,1.65,1.70,1.42,7.63,7.63,7.64
76.63,5.93,-1.66,5.93,-1.66,1.66,1.72,1.42,7.59,7.59,7.59
77.40,5.89,-1.66,5.88,-1.66,1.67,1.74,1.42,7.56,7.55,7.55
78.17,5.83,-1.67,5.83,-1.67,1.68,1.76,1.41,7.51,7.51,7.50
78.95,5.77,-1.68,5.77,-1.68,1.69,1.78,1.41,7.46,7.46,7.45
79.74,5.70,-1.70,5.71,-1.69,1.70,1.80,1.41,7.40,7.40,7.40
80.54,5.64,-1.71,5.64,-1.71,1.71,1.82,1.41,7.35,7.35,7.35
81.35,5.58,-1.72,5.57,-1.73,1.72,1.84,1.41,7.30,7.30,7.30
82.16,5.50,-1.75,5.50,-1.74,1.74,1.86,1.41,7.24,7.24,7.25
82.98,5.43,-1.76,5.44,-1.76,1.75,1.88,1.41,7.18,7.19,7.19
83.81,5.38,-1.77,5.37,-1.77,1.77,1.89,1.42,7.14,7.14,7.14
84.65,5.32,-1.77,5.31,-1.77,1.78,1.91,1.42,7.09,7.09,7.09
85.50,5.25,-1.78,5.25,-1.78,1.79,1.93,1.43,7.04,7.03,7.03
86.35,5.18,-1.80,5.18,-1.80,1.80,1.94,1.44,6.97,6.97,6.98
87.22,5.10,-1.81,5.11,-1.81,1.80,1.96,1.44,6.91,6.92,6.92
88.09,5.05,-1.81,5.05,-1.81,1.81,1.97,1.45,6.86,6.86,6.86
88.97,4.99,-1.82,4.98,-1.82,1.82,1.98,1.47,6.81,6.81,6.80
89.86,4.91,-1.83,4.91,-1.83,1.84,2.00,1.48,6.75,6.75,6.74
90.76,4.83,-1.85,4.83,-1.85,1.85,2.01,1.49,6.68,6.68,6.68
91.66,4.75,-1.87,4.76,-1.86,1.86,2.02,1.50,6.61,6.62,6.62
92.58,4.69,-1.87,4.69,-1.87,1.87,2.03,1.52,6.56,6.56,6.56
93.51,4.62,-1.88,4.62,-1.88,1.88,2.04,1.54,6.50,6.50,6.50
94.44,4.54,-1.90,4.54,-1.89,1.90,2.04,1.55,6.43,6.44,6.44
95.39,4.46,-1.91,4.47,-1.91,1.91,2.05,1.57,6.37,6.37,6.37
96.34,4.40,-1.91,4.39,-1.92,1.92,2.05,1.59,6.31,6.31,6.31
97.30,4.31,-1.93,4.32,-1.93,1.92,2.06,1.61,6.24,6.24,6.24
98.28,4.24,-1.94,4.24,-1.94,1.93,2.06,1.63,6.18,6.18,6.18
99.26,4.17,-1.94,4.17,-1.94,1.94,2.06,1.65,6.11,6.11,6.11
100.25,4.10,-1.95,4.10,-1.95,1.95,2.06,1.67,6.04,6.05,6.05
101.25,4.03,-1.95,4.02,-1.95,1.96,2.06,1.70,5.98,5.98,5.98
102.27,3.95,-1.96,3.95,-1.96,1.96,2.06,1.72,5.91,5.91,5.91
103.29,3.87,-1.97,3.87,-1.97,1.97,2.05,1.74,5.84,5.84,5.84
104.32,3.79,-1.97,3.79,-1.98,1.98,2.04,1.76,5.77,5.77,5.77
105.37,3.71,-1.98,3.71,-1.99,1.98,2.04,1.79,5.70,5.69,5.70
106.42,3.63,-1.99,3.63,-1.99,1.99,2.03,1.81,5.62,5.62,5.62
107.48,3.55,-2.00,3.55,-2.00,2.00,2.02,1.83,5.54,5.55,5.55
108.56,3.48,-2.00,3.47,-2.00,2.00,2.00,1.85,5.48,5.48,5.48
109.64,3.40,-2.00,3.39,-2.01,2.00,1.99,1.87,5.40,5.40,5.40
110.74,3.31,-2.01,3.31,-2.02,2.01,1.97,1.88,5.32,5.32,5.32
111.85,3.22,-2.03,3.23,-2.02,2.02,1.96,1.90,5.24,5.25,5.25
112.97,3.15,-2.02,3.15,-2.02,2.03,1.94,1.92,5.18,5.18,5.17
114.10,3.08,-2.01,3.07,-2.02,2.05,1.92,1.93,5.13,5.12,5.09
115.24,2.98,-2.03,2.97,-2.04,2.06,1.89,1.94,5.04,5.03,5.01
116.39,2.86,-2.07,2.86,-2.07,2.07,1.87,1.95,4.93,4.93,4.93
117.55,2.74,-2.11,2.76,-2.09,2.07,1.85,1.95,4.81,4.83,4.85
118.73,2.67,-2.10,2.68,-2.09,2.07,1.82,1.96,4.74,4.74,4.77
119.92,2.63,-2.05,2.62,-2.07,2.05,1.79,1.95,4.68,4.67,4.68
121.12,2.57,-2.02,2.56,-2.04,2.02,1.76,1.95,4.60,4.58,4.60
122.33,2.51,-2.01,2.53,-1.99,1.98,1.73,1.94,4.49,4.51,4.51
123.55,2.48,-1.95,2.51,-1.92,1.92,1.70,1.93,4.40,4.43,4.43
124.79,2.53,-1.81,2.49,-1.85,1.85,1.66,1.92,4.38,4.34,4.34
126.03,2.48,-1.77,2.48,-1.77,1.77,1.63,1.90,4.25,4.25,4.25
127.29,2.45,-1.71,2.47,-1.70,1.69,1.59,1.88,4.13,4.15,4.16
128.57,2.45,-1.62,2.46,-1.62,1.61,1.55,1.86,4.05,4.06,4.07
129.85,2.46,-1.52,2.46,-1.52,1.53,1.51,1.83,3.99,3.99,3.98
131.15,2.48,-1.41,2.46,-1.43,1.45,1.47,1.80,3.93,3.91,3.89
132.46,2.43,-1.36,2.43,-1.36,1.39,1.43,1.77,3.82,3.82,3.80
133.79,2.37,-1.33,2.39,-1.32,1.33,1.39,1.73,3.70,3.71,3.70
135.12,2.33,-1.27,2.33,-1.27,1.27,1.34,1.69,3.60,3.60,3.61
136.48,2.29,-1.22,2.28,-1.23,1.22,1.30,1.65,3.51,3.51,3.51
137.84,2.23,-1.19,2.23,-1.19,1.18,1.25,1.60,3.41,3.41,3.41
139.22,2.17,-1.15,2.17,-1.15,1.15,1.21,1.55,3.31,3.32,3.32
140.61,2.11,-1.11,2.11,-1.11,1.11,1.16,1.50,3.22,3.22,3.22
142.02,2.05,-1.07,2.05,-1.07,1.07,1.11,1.45,3.12,3.12,3.12
143.44,1.99,-1.04,1.99,-1.04,1.04,1.06,1.40,3.02,3.02,3.02
144.87,1.92,-1.00,1.92,-1.00,1.00,1.01,1.34,2.92,2.92,2.92
146.32,1.86,-0.96,1.86,-0.96,0.96,0.96,1.29,2.82,2.82,2.82
147.78,1.80,-0.92,1.80,-0.92,0.92,0.91,1.23,2.72,2.72,2.72
149.26,1.75,-0.88,1.75,-0.88,0.88,0.86,1.17,2.62,2.62,2.62
150.75,1.69,-0.83,1.69,-0.83,0.83,0.81,1.11,2.52,2.52,2.52
152.26,1.64,-0.78,1.64,-0.79,0.79,0.76,1.05,2.43,2.42,2.42
153.78,1.58,-0.74,1.58,-0.74,0.74,0.70,0.99,2.32,2.32,2.32
155.32,1.52,-0.69,1.53,-0.68,0.69,0.65,0.92,2.21,2.22,2.21
156.88,1.48,-0.63,1.47,-0.64,0.64,0.60,0.86,2.12,2.11,2.11
158.44,1.42,-0.58,1.42,-0.59,0.58,0.54,0.80,2.00,2.00,2.00
160.03,1.35,-0.55,1.37,-0.53,0.52,0.49,0.73,1.87,1.89,1.90
161.63,1.32,-0.47,1.32,-0.47,0.47,0.43,0.67,1.79,1.78,1.79
163.24,1.29,-0.39,1.28,-0.40,0.40,0.38,0.61,1.69,1.68,1.68
164.88,1.24,-0.33,1.24,-0.33,0.34,0.33,0.54,1.58,1.58,1.57
166.53,1.19,-0.27,1.19,-0.27,0.27,0.27,0.48,1.46,1.46,1.46
168.19,1.14,-0.20,1.14,-0.21,0.21,0.22,0.42,1.35,1.35,1.35
169.87,1.09,-0.14,1.09,-0.14,0.14,0.16,0.35,1.23,1.23,1.23
171.57,1.05,-0.07,1.05,-0.07,0.07,0.11,0.29,1.11,1.11,1.12
173.29,1.00,0.00,1.00,0.00,-0.01,0.05,0.22,0.99,0.99,1.00
175.02,0.96,0.07,0.96,0.08,-0.08,-0.00,0.16,0.87,0.88,0.88
176.77,0.92,0.16,0.92,0.15,-0.16,-0.05,0.10,0.76,0.76,0.77
178.54,0.88,0.23,0.88,0.23,-0.23,-0.11,0.03,0.65,0.65,0.65
180.32,0.84,0.31,0.85,0.31,-0.31,-0.16,-0.03,0.53,0.54,0.53
182.13,0.82,0.39,0.81,0.39,-0.39,-0.21,-0.09,0.43,0.42,0.42
183.95,0.77,0.46,0.77,0.46,-0.46,-0.27,-0.16,0.32,0.32,0.31
185.79,0.73,0.53,0.74,0.53,-0.53,-0.32,-0.22,0.20,0.21,0.20
187.65,0.70,0.60,0.69,0.59,-0.59,-0.37,-0.28,0.11,0.10,0.10
189.52,0.66,0.66,0.65,0.65,-0.65,-0.42,-0.35,0.01,0.00,0.00
191.42,0.61,0.70,0.61,0.71,-0.71,-0.47,-0.41,-0.10,-0.09,-0.09
193.33,0.57,0.75,0.58,0.76,-0.76,-0.52,-0.47,-0.19,-0.18,-0.18
195.27,0.56,0.82,0.54,0.80,-0.81,-0.57,-0.53,-0.25,-0.26,-0.26
197.22,0.51,0.84,0.51,0.85,-0.85,-0.62,-0.60,-0.34,-0.34,-0.34
199.19,0.48,0.88,0.48,0.89,-0.88,-0.67,-0.66,-0.41,-0.40,-0.41
201.18,0.45,0.92,0.45,0.92,-0.92,-0.72,-0.72,-0.46,-0.47,-0.47
203.19,0.42,0.95,0.42,0.95,-0.94,-0.76,-0.78,-0.52,-0.52,-0.52
205.23,0.39,0.97,0.40,0.97,-0.96,-0.81,-0.84,-0.57,-0.57,-0.57
207.28,0.37,0.98,0.37,0.98,-0.98,-0.85,-0.90,-0.61,-0.61,-0.61
209.35,0.34,0.99,0.34,0.99,-0.99,-0.89,-0.96,-0.65,-0.65,-0.65
211.44,0.30,0.99,0.31,0.99,-0.99,-0.94,-1.01,-0.69,-0.68,-0.68
213.56,0.28,0.99,0.28,0.99,-0.99,-0.98,-1.07,-0.72,-0.71,-0.71
215.69,0.26,1.00,0.25,0.99,-1.00,-1.02,-1.12,-0.74,-0.74,-0.74
217.85,0.24,1.00,0.23,0.99,-1.00,-1.06,-1.18,-0.76,-0.77,-0.77
220.03,0.19,0.98,0.20,0.99,-1.00,-1.09,-1.23,-0.81,-0.80,-0.79
222.23,0.17,1.00,0.18,1.00,-1.00,-1.13,-1.28,-0.82,-0.82,-0.82
224.45,0.16,1.01,0.15,1.00,-1.00,-1.17,-1.33,-0.85,-0.85,-0.85
226.70,0.13,1.01,0.13,1.01,-1.01,-1.20,-1.37,-0.88,-0.88,-0.88
228.96,0.10,1.02,0.11,1.02,-1.01,-1.23,-1.42,-0.91,-0.91,-0.91
231.25,0.08,1.03,0.08,1.03,-1.02,-1.26,-1.46,-0.95,-0.95,-0.95
233.57,0.05,1.04,0.05,1.04,-1.04,-1.29,-1.50,-0.99,-0.99,-0.99
235.90,0.01,1.04,0.02,1.05,-1.05,-1.32,-1.53,-1.04,-1.03,-1.03
238.26,0.00,1.07,-0.00,1.07,-1.07,-1.35,-1.57,-1.07,-1.07,-1.07
240.64,-0.01,1.10,-0.02,1.10,-1.09,-1.37,-1.60,-1.10,-1.11,-1.11
243.05,-0.03,1.12,-0.03,1.13,-1.12,-1.40,-1.62,-1.15,-1.15,-1.16
245.48,-0.05,1.15,-0.05,1.16,-1.16,-1.42,-1.65,-1.21,-1.21,-1.20
247.93,-0.05,1.19,-0.05,1.19,-1.21,-1.44,-1.67,-1.26,-1.26,-1.24
250.41,-0.05,1.24,-0.05,1.24,-1.26,-1.46,-1.68,-1.31,-1.31,-1.29
252.92,-0.03,1.30,-0.02,1.31,-1.32,-1.48,-1.70,-1.35,-1.34,-1.33
255.45,0.01,1.38,0.02,1.38,-1.38,-1.50,-1.71,-1.37,-1.36,-1.37
258.00,0.07,1.48,0.05,1.45,-1.44,-1.51,-1.72,-1.36,-1.39,-1.41
260.58,0.06,1.50,0.07,1.51,-1.49,-1.53,-1.72,-1.43,-1.42,-1.44
263.19,0.06,1.54,0.08,1.55,-1.54,-1.54,-1.72,-1.47,-1.46,-1.47
265.82,0.08,1.58,0.07,1.58,-1.58,-1.55,-1.72,-1.50,-1.50,-1.51
268.48,0.09,1.62,0.07,1.61,-1.61,-1.56,-1.72,-1.52,-1.53,-1.53
271.16,0.06,1.62,0.07,1.63,-1.63,-1.57,-1.71,-1.57,-1.56,-1.56
273.87,0.05,1.64,0.06,1.64,-1.64,-1.58,-1.70,-1.59,-1.58,-1.58
276.61,0.05,1.66,0.04,1.64,-1.65,-1.58,-1.69,-1.60,-1.61,-1.61
279.38,0.02,1.64,0.02,1.65,-1.65,-1.59,-1.67,-1.63,-1.63,-1.63
282.17,0.00,1.64,0.00,1.65,-1.65,-1.59,-1.66,-1.65,-1.65,-1.64
284.99,-0.01,1.65,-0.02,1.64,-1.65,-1.59,-1.64,-1.66,-1.66,-1.66
287.84,-0.03,1.64,-0.03,1.64,-1.64,-1.59,-1.63,-1.68,-1.68,-1.67
290.72,-0.05,1.64,-0.05,1.64,-1.64,-1.59,-1.61,-1.69,-1.69,-1.68
293.63,-0.06,1.64,-0.06,1.64,-1.64,-1.59,-1.59,-1.70,-1.70,-1.70
296.57,-0.07,1.63,-0.07,1.63,-1.63,-1.59,-1.57,-1.70,-1.70,-1.70
299.53,-0.09,1.62,-0.09,1.62,-1.62,-1.58,-1.55,-1.71,-1.71,-1.71
302.53,-0.10,1.62,-0.10,1.62,-1.62,-1.58,-1.53,-1.72,-1.72,-1.72
305.55,-0.11,1.61,-0.11,1.61,-1.61,-1.58,-1.51,-1.72,-1.72,-1.72
308.61,-0.13,1.60,-0.13,1.60,-1.60,-1.57,-1.48,-1.72,-1.72,-1.73
311.69,-0.14,1.59,-0.14,1.59,-1.59,-1.56,-1.46,-1.73,-1.73,-1.73
314.81,-0.16,1.57,-0.16,1.57,-1.57,-1.56,-1.44,-1.73,-1.73,-1.73
317.96,-0.17,1.56,-0.17,1.56,-1.56,-1.55,-1.42,-1.73,-1.73,-1.73
321.14,-0.18,1.55,-0.18,1.55,-1.55,-1.54,-1.40,-1.73,-1.73,-1.73
324.35,-0.19,1.54,-0.19,1.54,-1.54,-1.53,-1.39,-1.73,-1.73,-1.73
327.59,-0.20,1.53,-0.20,1.53,-1.53,-1.52,-1.37,-1.73,-1.73,-1.73
330.87,-0.21,1.51,-0.21,1.52,-1.51,-1.51,-1.35,-1.73,-1.73,-1.73
334.18,-0.22,1.50,-0.22,1.50,-1.50,-1.50,-1.33,-1.72,-1.72,-1.72
337.52,-0.23,1.49,-0.23,1.49,-1.49,-1.49,-1.32,-1.72,-1.72,-1.72
340.90,-0.24,1.48,-0.24,1.48,-1.48,-1.48,-1.30,-1.72,-1.72,-1.72
344.30,-0.25,1.47,-0.24,1.47,-1.47,-1.47,-1.29,-1.72,-1.71,-1.71
347.75,-0.25,1.46,-0.25,1.46,-1.46,-1.46,-1.27,-1.71,-1.71,-1.71
351.23,-0.25,1.46,-0.26,1.45,-1.45,-1.45,-1.26,-1.70,-1.71,-1.71
354.74,-0.27,1.43,-0.27,1.44,-1.44,-1.43,-1.25,-1.71,-1.70,-1.71
358.28,-0.28,1.42,-0.28,1.42,-1.43,-1.42,-1.24,-1.70,-1.70,-1.70
361.87,-0.29,1.41,-0.29,1.41,-1.41,-1.41,-1.23,-1.70,-1.70,-1.70
365.49,-0.30,1.40,-0.30,1.40,-1.40,-1.40,-1.23,-1.70,-1.70,-1.70
369.14,-0.31,1.39,-0.31,1.39,-1.39,-1.39,-1.22,-1.70,-1.70,-1.70
372.83,-0.32,1.38,-0.32,1.38,-1.38,-1.38,-1.21,-1.70,-1.70,-1.70
376.56,-0.33,1.37,-0.33,1.37,-1.37,-1.36,-1.21,-1.70,-1.70,-1.70
380.33,-0.34,1.36,-0.34,1.36,-1.36,-1.35,-1.20,-1.70,-1.70,-1.70
384.13,-0.35,1.35,-0.35,1.35,-1.35,-1.34,-1.20,-1.70,-1.70,-1.70
387.97,-0.35,1.35,-0.35,1.35,-1.35,-1.33,-1.20,-1.70,-1.70,-1.70
391.85,-0.36,1.34,-0.36,1.34,-1.34,-1.32,-1.20,-1.70,-1.70,-1.70
395.77,-0.37,1.33,-0.37,1.33,-1.33,-1.31,-1.20,-1.70,-1.70,-1.70
399.73,-0.38,1.33,-0.38,1.33,-1.33,-1.30,-1.20,-1.70,-1.70,-1.71
403.72,-0.38,1.32,-0.39,1.32,-1.32,-1.29,-1.20,-1.71,-1.71,-1.71
407.76,-0.40,1.31,-0.40,1.31,-1.32,-1.28,-1.20,-1.71,-1.71,-1.71
411.84,-0.41,1.30,-0.40,1.31,-1.31,-1.27,-1.20,-1.72,-1.71,-1.71
415.96,-0.41,1.31,-0.41,1.31,-1.30,-1.27,-1.20,-1.71,-1.71,-1.72
420.12,-0.41,1.31,-0.42,1.30,-1.30,-1.26,-1.21,-1.71,-1.72,-1.72
424.32,-0.43,1.29,-0.43,1.29,-1.29,-1.25,-1.21,-1.72,-1.72,-1.72
428.56,-0.44,1.28,-0.44,1.28,-1.28,-1.25,-1.21,-1.72,-1.72,-1.72
432.85,-0.45,1.28,-0.45,1.27,-1.28,-1.24,-1.22,-1.73,-1.73,-1.73
437.18,-0.46,1.27,-0.46,1.27,-1.27,-1.23,-1.22,-1.73,-1.73,-1.73
441.55,-0.47,1.26,-0.47,1.26,-1.26,-1.23,-1.22,-1.74,-1.74,-1.73
445.96,-0.48,1.26,-0.48,1.26,-1.26,-1.22,-1.23,-1.74,-1.74,-1.74
450.42,-0.49,1.25,-0.49,1.25,-1.25,-1.22,-1.23,-1.74,-1.74,-1.74
454.93,-0.50,1.25,-0.50,1.25,-1.25,-1.22,-1.23,-1.75,-1.74,-1.74
459.48,-0.50,1.25,-0.50,1.24,-1.24,-1.21,-1.24,-1.75,-1.75,-1.75
464.07,-0.51,1.24,-0.51,1.24,-1.24,-1.21,-1.24,-1.75,-1.75,-1.75
468.71,-0.52,1.23,-0.52,1.24,-1.24,-1.21,-1.24,-1.76,-1.75,-1.76
473.40,-0.53,1.23,-0.53,1.23,-1.23,-1.21,-1.24,-1.76,-1.76,-1.76
478.13,-0.54,1.23,-0.54,1.23,-1.23,-1.21,-1.24,-1.76,-1.77,-1.76
482.91,-0.55,1.22,-0.55,1.22,-1.22,-1.21,-1.24,-1.77,-1.77,-1.77
487.74,-0.55,1.22,-0.55,1.22,-1.22,-1.20,-1.24,-1.77,-1.77,-1.77
492.62,-0.56,1.22,-0.56,1.21,-1.21,-1.20,-1.24,-1.77,-1.77,-1.78
497.55,-0.57,1.21,-0.57,1.21,-1.21,-1.20,-1.23,-1.78,-1.78,-1.78
502.52,-0.58,1.20,-0.58,1.20,-1.20,-1.20,-1.23,-1.78,-1.78,-1.78
507.55,-0.59,1.20,-0.59,1.20,-1.20,-1.20,-1.22,-1.79,-1.79,-1.79
512.62,-0.60,1.19,-0.60,1.19,-1.19,-1.20,-1.21,-1.79,-1.79,-1.79
517.75,-0.61,1.18,-0.61,1.18,-1.18,-1.19,-1.21,-1.80,-1.79,-1.79
