frequency,raw,error,smoothed,error_smoothed,equalization,parametric_eq,fixed_band_eq,equalized_raw,equalized_smoothed,target
20.00,1.82,-6.30,1.82,-6.30,5.99,5.68,2.17,7.81,7.81,8.12
20.20,1.88,-6.24,1.88,-6.24,6.01,5.68,2.23,7.88,7.88,8.12
20.40,1.94,-6.19,1.94,-6.19,6.01,5.68,2.30,7.95,7.95,8.12
20.61,2.00,-6.13,2.00,-6.13,6.01,5.68,2.36,8.01,8.01,8.13
20.81,2.06,-6.08,2.06,-6.08,6.00,5.67,2.43,8.06,8.06,8.14
21.02,2.12,-6.04,2.12,-6.04,5.99,5.67,2.50,8.10,8.10,8.15
21.23,2.17,-5.99,2.17,-5.99,5.97,5.66,2.58,8.14,8.14,8.17
21.44,2.23,-5.95,2.23,-5.95,5.94,5.65,2.65,8.17,8.17,8.18
21.66,2.29,-5.91,2.29,-5.91,5.90,5.65,2.73,8.20,8.20,8.20
21.87,2.35,-5.86,2.35,-5.86,5.86,5.64,2.81,8.21,8.21,8.21
22.09,2.40,-5.81,2.40,-5.81,5.81,5.62,2.89,8.21,8.21,8.21
22.31,2.46,-5.75,2.46,-5.76,5.76,5.61,2.97,8.21,8.21,8.21
22.54,2.51,-5.70,2.51,-5.70,5.70,5.60,3.06,8.21,8.21,8.21
22.76,2.56,-5.64,2.56,-5.64,5.64,5.58,3.15,8.21,8.21,8.20
22.99,2.61,-5.59,2.61,-5.59,5.59,5.56,3.24,8.21,8.21,8.20
23.22,2.66,-5.54,2.66,-5.54,5.55,5.54,3.33,8.21,8.21,8.20
23.45,2.71,-5.50,2.71,-5.50,5.50,5.53,3.42,8.22,8.22,8.21
23.69,2.77,-5.46,2.77,-5.46,5.47,5.50,3.52,8.23,8.23,8.23
23.92,2.82,-5.43,2.82,-5.43,5.43,5.48,3.62,8.25,8.25,8.25
24.16,2.87,-5.40,2.87,-5.40,5.40,5.46,3.72,8.27,8.27,8.27
24.40,2.92,-5.37,2.92,-5.37,5.36,5.43,3.82,8.28,8.28,8.29
24.65,2.97,-5.34,2.97,-5.34,5.33,5.41,3.92,8.30,8.30,8.31
24.89,3.02,-5.30,3.02,-5.30,5.30,5.38,4.02,8.32,8.32,8.32
25.14,3.07,-5.26,3.07,-5.26,5.26,5.35,4.13,8.33,8.33,8.33
25.39,3.12,-5.22,3.12,-5.22,5.22,5.33,4.23,8.34,8.34,8.34
25.65,3.17,-5.18,3.17,-5.18,5.19,5.30,4.34,8.35,8.35,8.35
25.91,3.21,-5.14,3.21,-5.14,5.15,5.27,4.45,8.36,8.36,8.36
26.16,3.26,-5.10,3.26,-5.10,5.11,5.24,4.55,8.37,8.37,8.37
26.43,3.31,-5.07,3.31,-5.07,5.07,5.20,4.66,8.38,8.38,8.38
26.69,3.36,-5.03,3.36,-5.03,5.03,5.17,4.76,8.39,8.39,8.39
26.96,3.41,-5.00,3.41,-5.00,4.99,5.14,4.86,8.40,8.40,8.40
27.23,3.45,-4.96,3.45,-4.96,4.95,5.10,4.96,8.41,8.41,8.41
27.50,3.50,-4.92,3.50,-4.92,4.91,5.07,5.06,8.41,8.41,8.42
27.77,3.55,-4.87,3.55,-4.87,4.87,5.03,5.15,8.42,8.42,8.42
28.05,3.59,-4.83,3.59,-4.83,4.83,5.00,5.24,8.42,8.42,8.42
28.33,3.64,-4.78,3.64,-4.78,4.78,4.96,5.33,8.42,8.42,8.42
28.62,3.68,-4.74,3.68,-4.74,4.73,4.92,5.41,8.41,8.41,8.42
28.90,3.72,-4.69,3.72,-4.69,4.69,4.89,5.48,8.41,8.41,8.41
29.19,3.76,-4.64,3.76,-4.64,4.64,4.85,5.55,8.40,8.40,8.40
29.48,3.80,-4.59,3.80,-4.59,4.59,4.81,5.61,8.39,8.39,8.39
29.78,3.84,-4.54,3.84,-4.54,4.55,4.77,5.67,8.39,8.39,8.38
30.08,3.88,-4.50,3.88,-4.50,4.51,4.73,5.71,8.39,8.39,8.38
30.38,3.92,-4.46,3.92,-4.47,4.48,4.69,5.75,8.40,8.40,8.38
30.68,3.96,-4.44,3.96,-4.44,4.45,4.66,5.78,8.40,8.40,8.39
30.99,3.99,-4.42,3.99,-4.42,4.42,4.62,5.80,8.41,8.41,8.41
31.30,4.03,-4.40,4.03,-4.39,4.39,4.58,5.81,8.42,8.42,8.43
31.61,4.07,-4.37,4.07,-4.37,4.35,4.54,5.81,8.42,8.42,8.44
31.93,4.11,-4.34,4.11,-4.33,4.32,4.50,5.80,8.43,8.43,8.44
32.24,4.15,-4.29,4.15,-4.29,4.28,4.46,5.79,8.43,8.43,8.44
32.57,4.18,-4.24,4.18,-4.24,4.24,4.42,5.76,8.43,8.43,8.43
32.89,4.22,-4.19,4.22,-4.20,4.20,4.38,5.73,8.42,8.42,8.41
33.22,4.25,-4.15,4.25,-4.15,4.16,4.34,5.69,8.42,8.42,8.40
33.55,4.29,-4.11,4.29,-4.11,4.12,4.30,5.64,8.41,8.41,8.40
33.89,4.32,-4.08,4.32,-4.08,4.09,4.26,5.58,8.41,8.41,8.40
34.23,4.36,-4.05,4.36,-4.05,4.05,4.22,5.52,8.41,8.41,8.41
34.57,4.39,-4.03,4.39,-4.03,4.02,4.18,5.46,8.41,8.41,8.42
34.92,4.42,-4.00,4.42,-4.00,3.99,4.14,5.39,8.41,8.41,8.42
35.27,4.45,-3.97,4.45,-3.97,3.96,4.10,5.31,8.41,8.41,8.42
35.62,4.48,-3.93,4.48,-3.93,3.93,4.06,5.23,8.41,8.41,8.42
35.97,4.51,-3.90,4.51,-3.90,3.90,4.03,5.15,8.41,8.41,8.41
36.33,4.54,-3.87,4.54,-3.87,3.87,3.99,5.07,8.41,8.41,8.41
36.70,4.57,-3.84,4.57,-3.84,3.84,3.95,4.98,8.41,8.41,8.41
37.06,4.60,-3.81,4.60,-3.81,3.81,3.91,4.89,8.41,8.41,8.41
37.43,4.63,-3.78,4.63,-3.78,3.78,3.88,4.80,8.41,8.41,8.41
37.81,4.66,-3.76,4.66,-3.76,3.76,3.84,4.71,8.41,8.41,8.41
38.19,4.68,-3.73,4.68,-3.73,3.73,3.80,4.63,8.42,8.42,8.42
38.57,4.71,-3.71,4.71,-3.71,3.71,3.77,4.54,8.42,8.42,8.42
38.95,4.74,-3.68,4.74,-3.68,3.68,3.73,4.45,8.42,8.42,8.42
39.34,4.76,-3.66,4.76,-3.66,3.65,3.70,4.36,8.42,8.42,8.42
39.74,4.79,-3.63,4.79,-3.63,3.63,3.66,4.28,8.41,8.41,8.42
40.14,4.81,-3.60,4.81,-3.60,3.60,3.63,4.20,8.41,8.41,8.41
40.54,4.83,-3.57,4.83,-3.57,3.57,3.59,4.11,8.40,8.40,8.40
40.94,4.85,-3.54,4.85,-3.54,3.54,3.56,4.03,8.40,8.40,8.39
41.35,4.88,-3.51,4.88,-3.51,3.52,3.53,3.96,8.39,8.39,8.39
41.76,4.90,-3.49,4.90,-3.49,3.49,3.49,3.88,8.39,8.39,8.38
42.18,4.92,-3.47,4.92,-3.47,3.47,3.46,3.81,8.39,8.39,8.38
42.60,4.94,-3.45,4.94,-3.45,3.45,3.43,3.74,8.38,8.38,8.38
43.03,4.96,-3.43,4.96,-3.43,3.43,3.40,3.67,8.38,8.38,8.38
43.46,4.98,-3.41,4.98,-3.41,3.40,3.37,3.61,8.38,8.38,8.38
43.90,4.99,-3.39,4.99,-3.39,3.38,3.34,3.54,8.38,8.38,8.38
44.33,5.01,-3.36,5.01,-3.36,3.36,3.31,3.48,8.37,8.37,8.37
44.78,5.03,-3.34,5.03,-3.34,3.34,3.28,3.43,8.37,8.37,8.37
45.23,5.04,-3.32,5.04,-3.32,3.32,3.26,3.37,8.36,8.36,8.36
45.68,5.05,-3.29,5.06,-3.29,3.30,3.23,3.32,8.35,8.35,8.35
46.13,5.07,-3.27,5.07,-3.27,3.28,3.20,3.27,8.34,8.34,8.34
46.60,5.08,-3.25,5.08,-3.25,3.26,3.18,3.22,8.34,8.34,8.33
47.06,5.09,-3.24,5.09,-3.24,3.24,3.15,3.18,8.33,8.33,8.33
47.53,5.10,-3.22,5.10,-3.22,3.22,3.13,3.13,8.32,8.32,8.32
48.01,5.11,-3.20,5.11,-3.20,3.20,3.10,3.09,8.31,8.31,8.31
48.49,5.12,-3.19,5.12,-3.19,3.18,3.08,3.06,8.30,8.30,8.30
48.97,5.12,-3.17,5.12,-3.17,3.17,3.06,3.02,8.29,8.29,8.29
49.46,5.13,-3.15,5.13,-3.15,3.15,3.04,2.99,8.28,8.28,8.28
49.96,5.14,-3.13,5.14,-3.13,3.14,3.01,2.96,8.28,8.28,8.27
50.46,5.15,-3.12,5.15,-3.12,3.12,2.99,2.93,8.27,8.27,8.27
50.96,5.15,-3.11,5.15,-3.11,3.11,2.97,2.90,8.26,8.26,8.26
51.47,5.15,-3.09,5.15,-3.09,3.09,2.95,2.88,8.25,8.25,8.25
51.99,5.16,-3.08,5.16,-3.08,3.08,2.94,2.86,8.24,8.24,8.24
52.51,5.16,-3.06,5.16,-3.06,3.06,2.92,2.84,8.23,8.23,8.23
53.03,5.17,-3.05,5.17,-3.05,3.05,2.90,2.82,8.22,8.22,8.22
53.56,5.17,-3.03,5.17,-3.03,3.03,2.89,2.80,8.20,8.20,8.20
54.10,5.18,-3.01,5.18,-3.01,3.02,2.87,2.78,8.19,8.19,8.19
54.64,5.18,-3.00,5.18,-3.00,3.00,2.86,2.77,8.18,8.18,8.18
55.18,5.18,-2.98,5.18,-2.98,2.99,2.84,2.76,8.17,8.17,8.16
55.74,5.18,-2.97,5.18,-2.97,2.97,2.83,2.74,8.15,8.15,8.15
56.29,5.18,-2.96,5.18,-2.96,2.96,2.82,2.73,8.13,8.13,8.13
56.86,5.17,-2.94,5.17,-2.94,2.94,2.80,2.72,8.11,8.12,8.12
57.42,5.17,-2.93,5.17,-2.93,2.93,2.79,2.71,8.10,8.10,8.10
58.00,5.16,-2.92,5.16,-2.92,2.92,2.78,2.71,8.08,8.08,8.08
58.58,5.16,-2.91,5.16,-2.91,2.91,2.77,2.70,8.07,8.07,8.07
59.16,5.15,-2.90,5.15,-2.90,2.90,2.77,2.69,8.05,8.05,8.05
59.76,5.15,-2.89,5.15,-2.89,2.89,2.76,2.69,8.04,8.04,8.03
60.35,5.14,-2.88,5.14,-2.88,2.88,2.75,2.68,8.02,8.02,8.02
60.96,5.13,-2.87,5.13,-2.87,2.87,2.75,2.67,8.00,8.00,8.00
61.57,5.12,-2.87,5.12,-2.87,2.87,2.74,2.67,7.99,7.99,7.99
62.18,5.11,-2.87,5.11,-2.87,2.87,2.74,2.66,7.97,7.97,7.98
62.80,5.10,-2.86,5.10,-2.86,2.86,2.73,2.66,7.96,7.96,7.96
63.43,5.08,-2.86,5.08,-2.86,2.86,2.73,2.66,7.95,7.95,7.95
64.07,5.07,-2.86,5.07,-2.86,2.86,2.73,2.65,7.93,7.93,7.93
64.71,5.06,-2.86,5.06,-2.86,2.86,2.73,2.65,7.92,7.92,7.92
65.35,5.04,-2.86,5.04,-2.86,2.87,2.73,2.65,7.90,7.90,7.90
66.01,5.02,-2.87,5.02,-2.87,2.87,2.73,2.64,7.89,7.89,7.89
66.67,5.00,-2.87,5.00,-2.87,2.87,2.73,2.64,7.87,7.87,7.87
67.33,4.98,-2.88,4.98,-2.88,2.88,2.73,2.64,7.85,7.85,7.85
68.01,4.96,-2.88,4.96,-2.88,2.88,2.74,2.64,7.84,7.84,7.84
68.69,4.93,-2.88,4.93,-2.88,2.88,2.74,2.64,7.82,7.82,7.82
69.37,4.91,-2.89,4.91,-2.88,2.88,2.74,2.64,7.80,7.80,7.80
70.07,4.89,-2.89,4.89,-2.89,2.89,2.75,2.64,7.78,7.78,7.78
70.77,4.86,-2.89,4.87,-2.89,2.89,2.76,2.65,7.75,7.75,7.75
71.48,4.84,-2.89,4.84,-2.89,2.89,2.77,2.65,7.73,7.73,7.73
72.19,4.81,-2.89,4.81,-2.89,2.89,2.77,2.65,7.70,7.70,7.70
72.91,4.79,-2.89,4.79,-2.89,2.89,2.78,2.66,7.68,7.68,7.68
73.64,4.76,-2.89,4.76,-2.89,2.89,2.79,2.67,7.65,7.65,7.65
74.38,4.73,-2.89,4.73,-2.89,2.89,2.80,2.68,7.62,7.62,7.62
75.12,4.71,-2.89,4.71,-2.89,2.89,2.82,2.69,7.59,7.60,7.60
75.87,4.68,-2.89,4.68,-2.89,2.89,2.83,2.70,7.57,7.57,7.57
76.63,4.65,-2.89,4.65,-2.89,2.89,2.84,2.71,7.54,7.54,7.54
77.40,4.61,-2.89,4.61,-2.89,2.90,2.86,2.73,7.51,7.51,7.51
78.17,4.58,-2.90,4.58,-2.90,2.90,2.87,2.74,7.48,7.48,7.48
78.95,4.55,-2.91,4.55,-2.91,2.91,2.89,2.76,7.46,7.46,7.46
79.74,4.51,-2.92,4.51,-2.92,2.92,2.91,2.78,7.43,7.43,7.43
80.54,4.48,-2.93,4.48,-2.93,2.93,2.93,2.81,7.40,7.40,7.40
81.35,4.44,-2.94,4.44,-2.94,2.94,2.95,2.83,7.38,7.38,7.38
82.16,4.40,-2.95,4.40,-2.95,2.95,2.97,2.86,7.35,7.35,7.35
82.98,4.36,-2.96,4.36,-2.96,2.96,2.99,2.89,7.32,7.32,7.32
83.81,4.32,-2.97,4.31,-2.97,2.97,3.01,2.92,7.29,7.29,7.29
84.65,4.27,-2.98,4.27,-2.98,2.98,3.03,2.95,7.26,7.26,7.26
85.50,4.23,-2.99,4.23,-2.99,3.00,3.06,2.99,7.23,7.23,7.22
86.35,4.19,-3.01,4.19,-3.01,3.01,3.08,3.03,7.20,7.20,7.19
87.22,4.14,-3.02,4.14,-3.02,3.02,3.11,3.07,7.17,7.17,7.17
88.09,4.10,-3.04,4.10,-3.04,3.04,3.13,3.11,7.14,7.14,7.14
88.97,4.05,-3.05,4.05,-3.05,3.05,3.16,3.16,7.10,7.10,7.11
89.86,4.00,-3.07,4.00,-3.07,3.07,3.19,3.20,7.07,7.07,7.07
90.76,3.95,-3.09,3.95,-3.09,3.09,3.22,3.25,7.04,7.04,7.04
91.66,3.90,-3.11,3.90,-3.11,3.11,3.25,3.31,7.00,7.00,7.01
92.58,3.84,-3.13,3.84,-3.13,3.13,3.28,3.36,6.97,6.97,6.97
93.51,3.78,-3.16,3.78,-3.16,3.17,3.31,3.42,6.95,6.95,6.94
94.44,3.73,-3.19,3.73,-3.19,3.20,3.34,3.48,6.93,6.93,6.92
95.39,3.67,-3.23,3.67,-3.23,3.24,3.37,3.54,6.91,6.91,6.90
96.34,3.61,-3.27,3.61,-3.28,3.29,3.40,3.60,6.90,6.90,6.88
97.30,3.55,-3.33,3.55,-3.33,3.33,3.44,3.66,6.88,6.88,6.88
98.28,3.49,-3.39,3.49,-3.39,3.37,3.47,3.73,6.86,6.86,6.88
99.26,3.43,-3.43,3.43,-3.43,3.41,3.50,3.80,6.84,6.84,6.86
100.25,3.36,-3.46,3.36,-3.46,3.44,3.54,3.87,6.81,6.81,6.82
101.25,3.30,-3.48,3.30,-3.48,3.47,3.57,3.93,6.77,6.77,6.77
102.27,3.23,-3.49,3.23,-3.50,3.50,3.61,4.01,6.73,6.73,6.73
103.29,3.16,-3.51,3.16,-3.52,3.52,3.64,4.08,6.69,6.69,6.68
104.32,3.10,-3.54,3.10,-3.54,3.54,3.68,4.15,6.64,6.64,6.64
105.37,3.03,-3.56,3.03,-3.56,3.57,3.71,4.22,6.59,6.59,6.59
106.42,2.95,-3.59,2.95,-3.59,3.59,3.75,4.29,6.55,6.55,6.54
107.48,2.88,-3.62,2.88,-3.62,3.62,3.78,4.36,6.50,6.50,6.50
108.56,2.81,-3.65,2.81,-3.65,3.66,3.81,4.43,6.47,6.47,6.46
109.64,2.73,-3.69,2.73,-3.69,3.70,3.85,4.50,6.44,6.44,6.43
110.74,2.66,-3.74,2.66,-3.74,3.75,3.88,4.57,6.41,6.41,6.40
111.85,2.58,-3.79,2.58,-3.79,3.79,3.91,4.64,6.38,6.38,6.38
112.97,2.50,-3.85,2.50,-3.85,3.84,3.94,4.70,6.35,6.35,6.35
114.10,2.42,-3.90,2.42,-3.90,3.90,3.97,4.76,6.32,6.32,6.33
115.24,2.34,-3.95,2.34,-3.95,3.95,3.99,4.81,6.29,6.29,6.30
116.39,2.26,-4.00,2.26,-4.00,4.00,4.02,4.87,6.26,6.26,6.26
117.55,2.18,-4.05,2.18,-4.05,4.05,4.04,4.91,6.23,6.23,6.23
118.73,2.10,-4.10,2.10,-4.10,4.10,4.07,4.96,6.19,6.19,6.19
119.92,2.01,-4.14,2.01,-4.14,4.15,4.09,5.00,6.16,6.16,6.15
121.12,1.92,-4.19,1.92,-4.19,4.19,4.12,5.03,6.11,6.11,6.11
122.33,1.83,-4.24,1.83,-4.24,4.24,4.14,5.06,6.07,6.07,6.07
123.55,1.74,-4.28,1.74,-4.28,4.28,4.17,5.08,6.02,6.02,6.02
124.79,1.65,-4.32,1.65,-4.32,4.32,4.21,5.10,5.97,5.97,5.97
126.03,1.56,-4.36,1.56,-4.36,4.36,4.24,5.11,5.92,5.92,5.92
127.29,1.47,-4.41,1.47,-4.41,4.40,4.29,5.12,5.87,5.87,5.87
128.57,1.37,-4.45,1.37,-4.44,4.44,4.33,5.12,5.82,5.82,5.82
129.85,1.28,-4.48,1.28,-4.48,4.48,4.39,5.12,5.76,5.76,5.77
131.15,1.19,-4.52,1.19,-4.52,4.52,4.45,5.11,5.71,5.71,5.71
132.46,1.09,-4.56,1.09,-4.56,4.56,4.52,5.09,5.66,5.66,5.66
133.79,1.00,-4.61,1.00,-4.61,4.61,4.59,5.08,5.61,5.61,5.61
135.12,0.90,-4.66,0.90,-4.66,4.66,4.68,5.05,5.56,5.56,5.56
136.48,0.81,-4.71,0.81,-4.71,4.72,4.76,5.03,5.52,5.52,5.52
137.84,0.71,-4.77,0.71,-4.78,4.79,4.84,5.00,5.49,5.49,5.48
139.22,0.61,-4.85,0.61,-4.85,4.86,4.93,4.97,5.47,5.47,5.46
140.61,0.51,-4.94,0.51,-4.94,4.95,5.01,4.93,5.46,5.46,5.45
142.02,0.41,-5.03,0.41,-5.03,5.03,5.10,4.90,5.45,5.45,5.44
143.44,0.31,-5.13,0.31,-5.13,5.12,5.18,4.86,5.44,5.44,5.44
144.87,0.22,-5.22,0.22,-5.22,5.22,5.26,4.82,5.43,5.43,5.44
146.32,0.12,-5.31,0.12,-5.31,5.30,5.34,4.78,5.42,5.42,5.43
147.78,0.02,-5.40,0.02,-5.40,5.39,5.41,4.74,5.41,5.41,5.42
149.26,-0.07,-5.47,-0.07,-5.47,5.46,5.48,4.70,5.39,5.39,5.40
150.75,-0.17,-5.54,-0.17,-5.54,5.53,5.54,4.66,5.36,5.36,5.37
152.26,-0.26,-5.60,-0.26,-5.60,5.59,5.60,4.62,5.33,5.33,5.33
153.78,-0.36,-5.65,-0.36,-5.65,5.65,5.66,4.59,5.29,5.29,5.29
155.32,-0.45,-5.69,-0.45,-5.69,5.69,5.71,4.55,5.24,5.24,5.24
156.88,-0.54,-5.74,-0.54,-5.74,5.74,5.76,4.52,5.19,5.19,5.19
158.44,-0.63,-5.77,-0.63,-5.77,5.77,5.81,4.49,5.14,5.14,5.14
160.03,-0.72,-5.81,-0.72,-5.81,5.81,5.85,4.46,5.09,5.09,5.09
161.63,-0.81,-5.84,-0.81,-5.84,5.84,5.89,4.43,5.03,5.03,5.03
163.24,-0.89,-5.87,-0.89,-5.87,5.87,5.92,4.41,4.98,4.98,4.98
164.88,-0.97,-5.89,-0.97,-5.89,5.89,5.95,4.39,4.92,4.92,4.92
166.53,-1.05,-5.91,-1.05,-5.92,5.92,5.98,4.37,4.87,4.87,4.87
168.19,-1.12,-5.94,-1.12,-5.94,5.94,6.00,4.36,4.82,4.82,4.81
169.87,-1.20,-5.96,-1.20,-5.96,5.96,6.02,4.35,4.76,4.76,4.76
171.57,-1.27,-5.98,-1.27,-5.98,5.97,6.03,4.34,4.71,4.71,4.71
173.29,-1.34,-5.99,-1.34,-5.99,5.98,6.04,4.33,4.65,4.65,4.65
175.02,-1.40,-6.00,-1.40,-6.00,5.99,6.04,4.33,4.59,4.59,4.60
176.77,-1.46,-6.01,-1.46,-6.01,6.00,6.05,4.33,4.54,4.54,4.54
178.54,-1.52,-6.01,-1.52,-6.01,6.00,6.04,4.34,4.48,4.48,4.49
180.32,-1.58,-6.01,-1.58,-6.01,6.01,6.04,4.34,4.43,4.43,4.43
182.13,-1.63,-6.01,-1.63,-6.01,6.01,6.03,4.36,4.37,4.37,4.38
183.95,-1.68,-6.01,-1.68,-6.01,6.00,6.02,4.37,4.32,4.32,4.33
185.79,-1.73,-6.01,-1.73,-6.01,6.00,6.00,4.39,4.27,4.27,4.28
187.65,-1.77,-6.00,-1.77,-6.00,6.00,5.99,4.41,4.23,4.23,4.23
189.52,-1.81,-5.99,-1.81,-5.99,5.99,5.97,4.43,4.18,4.18,4.18
191.42,-1.84,-5.98,-1.84,-5.98,5.98,5.94,4.46,4.13,4.13,4.14
193.33,-1.88,-5.96,-1.88,-5.96,5.96,5.91,4.49,4.09,4.09,4.09
195.27,-1.90,-5.95,-1.90,-5.95,5.94,5.88,4.52,4.04,4.04,4.04
197.22,-1.92,-5.92,-1.92,-5.92,5.92,5.85,4.56,4.00,4.00,4.00
199.19,-1.94,-5.89,-1.94,-5.89,5.89,5.82,4.59,3.95,3.95,3.95
201.18,-1.96,-5.86,-1.96,-5.86,5.86,5.78,4.63,3.90,3.90,3.90
203.19,-1.97,-5.82,-1.97,-5.82,5.82,5.74,4.67,3.85,3.85,3.85
205.23,-1.98,-5.78,-1.98,-5.78,5.78,5.69,4.71,3.80,3.80,3.79
207.28,-1.99,-5.73,-1.99,-5.73,5.73,5.65,4.76,3.74,3.74,3.74
209.35,-2.00,-5.68,-2.00,-5.68,5.69,5.60,4.80,3.69,3.69,3.69
211.44,-2.00,-5.64,-2.00,-5.64,5.64,5.56,4.84,3.64,3.64,3.64
213.56,-2.00,-5.59,-2.00,-5.59,5.59,5.51,4.89,3.58,3.59,3.59
215.69,-2.00,-5.54,-2.00,-5.54,5.54,5.46,4.93,3.53,3.53,3.54
217.85,-2.00,-5.48,-2.00,-5.48,5.48,5.40,4.98,3.48,3.48,3.49
220.03,-1.99,-5.43,-1.99,-5.43,5.43,5.35,5.02,3.43,3.43,3.43
222.23,-1.98,-5.37,-1.98,-5.37,5.37,5.30,5.06,3.38,3.38,3.38
224.45,-1.97,-5.31,-1.97,-5.31,5.31,5.24,5.10,3.33,3.33,3.33
226.70,-1.96,-5.25,-1.96,-5.24,5.25,5.18,5.13,3.28,3.28,3.28
228.96,-1.95,-5.18,-1.95,-5.18,5.18,5.13,5.16,3.23,3.23,3.23
231.25,-1.94,-5.12,-1.94,-5.12,5.12,5.07,5.19,3.18,3.18,3.18
233.57,-1.92,-5.05,-1.92,-5.05,5.05,5.01,5.21,3.13,3.13,3.13
235.90,-1.91,-4.99,-1.91,-4.99,4.99,4.95,5.23,3.08,3.08,3.08
238.26,-1.89,-4.92,-1.89,-4.92,4.92,4.89,5.25,3.03,3.03,3.03
240.64,-1.88,-4.85,-1.88,-4.85,4.86,4.83,5.25,2.98,2.98,2.98
243.05,-1.86,-4.79,-1.86,-4.79,4.79,4.77,5.26,2.93,2.93,2.93
245.48,-1.85,-4.72,-1.85,-4.72,4.72,4.71,5.25,2.87,2.87,2.87
247.93,-1.83,-4.65,-1.83,-4.65,4.65,4.65,5.25,2.82,2.82,2.82
250.41,-1.81,-4.59,-1.81,-4.59,4.59,4.59,5.23,2.77,2.77,2.77
252.92,-1.80,-4.52,-1.80,-4.52,4.52,4.54,5.21,2.72,2.72,2.72
255.45,-1.78,-4.45,-1.78,-4.45,4.45,4.48,5.18,2.67,2.67,2.67
258.00,-1.77,-4.38,-1.77,-4.38,4.38,4.42,5.14,2.62,2.62,2.62
260.58,-1.75,-4.32,-1.75,-4.32,4.32,4.36,5.10,2.57,2.57,2.57
263.19,-1.74,-4.25,-1.74,-4.25,4.25,4.30,5.06,2.51,2.51,2.51
265.82,-1.72,-4.18,-1.72,-4.18,4.18,4.24,5.00,2.46,2.46,2.46
268.48,-1.71,-4.12,-1.71,-4.12,4.12,4.18,4.95,2.41,2.41,2.41
271.16,-1.70,-4.05,-1.70,-4.05,4.05,4.13,4.88,2.36,2.36,2.36
273.87,-1.68,-3.99,-1.68,-3.99,3.99,4.07,4.82,2.30,2.30,2.30
276.61,-1.67,-3.92,-1.67,-3.92,3.92,4.01,4.75,2.25,2.25,2.25
279.38,-1.66,-3.86,-1.66,-3.86,3.86,3.96,4.67,2.20,2.20,2.20
282.17,-1.65,-3.79,-1.65,-3.79,3.79,3.90,4.59,2.14,2.14,2.14
284.99,-1.64,-3.73,-1.64,-3.73,3.73,3.85,4.51,2.09,2.09,2.09
287.84,-1.63,-3.67,-1.63,-3.67,3.67,3.80,4.43,2.04,2.04,2.04
290.72,-1.62,-3.61,-1.62,-3.61,3.60,3.74,4.35,1.98,1.98,1.98
293.63,-1.61,-3.54,-1.61,-3.54,3.54,3.69,4.26,1.93,1.93,1.93
296.57,-1.61,-3.48,-1.61,-3.48,3.48,3.64,4.18,1.87,1.87,1.88
299.53,-1.60,-3.42,-1.60,-3.42,3.42,3.59,4.09,1.82,1.82,1.82
302.53,-1.59,-3.36,-1.59,-3.36,3.36,3.54,4.01,1.77,1.77,1.77
305.55,-1.59,-3.30,-1.59,-3.30,3.30,3.49,3.92,1.72,1.72,1.72
308.61,-1.58,-3.25,-1.58,-3.25,3.25,3.44,3.83,1.67,1.67,1.67
311.69,-1.58,-3.20,-1.58,-3.20,3.21,3.39,3.75,1.63,1.63,1.62
314.81,-1.58,-3.16,-1.58,-3.16,3.17,3.34,3.67,1.59,1.59,1.58
317.96,-1.58,-3.13,-1.58,-3.13,3.13,3.29,3.58,1.56,1.56,1.55
321.14,-1.57,-3.10,-1.57,-3.10,3.11,3.25,3.50,1.53,1.53,1.53
324.35,-1.57,-3.08,-1.57,-3.08,3.09,3.20,3.42,1.51,1.51,1.51
327.59,-1.57,-3.07,-1.57,-3.07,3.07,3.16,3.34,1.50,1.50,1.50
330.87,-1.57,-3.06,-1.57,-3.06,3.06,3.11,3.27,1.48,1.48,1.48
334.18,-1.58,-3.05,-1.58,-3.05,3.04,3.07,3.19,1.46,1.46,1.47
337.52,-1.58,-3.03,-1.58,-3.03,3.02,3.03,3.12,1.44,1.44,1.45
340.90,-1.58,-3.01,-1.58,-3.01,3.00,2.98,3.05,1.42,1.42,1.43
344.30,-1.58,-2.98,-1.58,-2.98,2.97,2.94,2.98,1.39,1.39,1.40
347.75,-1.59,-2.95,-1.59,-2.95,2.94,2.90,2.92,1.36,1.36,1.36
351.23,-1.59,-2.91,-1.59,-2.91,2.91,2.86,2.85,1.32,1.32,1.32
354.74,-1.59,-2.87,-1.59,-2.87,2.87,2.82,2.79,1.28,1.28,1.27
358.28,-1.60,-2.83,-1.60,-2.83,2.83,2.78,2.73,1.23,1.23,1.23
361.87,-1.61,-2.79,-1.61,-2.79,2.79,2.74,2.67,1.18,1.18,1.18
365.49,-1.61,-2.75,-1.61,-2.75,2.75,2.70,2.62,1.14,1.14,1.14
369.14,-1.62,-2.71,-1.62,-2.71,2.71,2.67,2.56,1.09,1.09,1.09
372.83,-1.63,-2.67,-1.63,-2.67,2.67,2.63,2.51,1.04,1.04,1.04
376.56,-1.63,-2.63,-1.63,-2.63,2.63,2.59,2.46,1.00,1.00,1.00
380.33,-1.64,-2.59,-1.64,-2.59,2.59,2.56,2.42,0.95,0.95,0.95
384.13,-1.65,-2.56,-1.65,-2.56,2.56,2.52,2.37,0.91,0.91,0.91
387.97,-1.66,-2.52,-1.66,-2.52,2.52,2.49,2.33,0.86,0.86,0.86
391.85,-1.67,-2.49,-1.67,-2.49,2.49,2.45,2.28,0.82,0.82,0.82
395.77,-1.68,-2.45,-1.68,-2.45,2.45,2.42,2.24,0.77,0.77,0.77
399.73,-1.69,-2.42,-1.69,-2.42,2.42,2.38,2.21,0.73,0.73,0.73
403.72,-1.69,-2.38,-1.69,-2.38,2.38,2.35,2.17,0.69,0.69,0.69
407.76,-1.70,-2.35,-1.70,-2.35,2.35,2.32,2.14,0.64,0.64,0.64
411.84,-1.71,-2.31,-1.71,-2.31,2.31,2.29,2.10,0.60,0.60,0.60
415.96,-1.72,-2.28,-1.72,-2.28,2.28,2.25,2.07,0.56,0.56,0.56
420.12,-1.73,-2.25,-1.73,-2.25,2.25,2.22,2.04,0.52,0.52,0.52
424.32,-1.74,-2.22,-1.74,-2.22,2.22,2.19,2.01,0.48,0.48,0.48
428.56,-1.75,-2.19,-1.75,-2.19,2.19,2.16,1.98,0.44,0.44,0.44
432.85,-1.76,-2.16,-1.76,-2.16,2.16,2.13,1.95,0.40,0.40,0.40
437.18,-1.77,-2.13,-1.77,-2.13,2.13,2.10,1.93,0.36,0.36,0.36
441.55,-1.78,-2.11,-1.78,-2.11,2.11,2.07,1.90,0.32,0.32,0.32
445.96,-1.79,-2.08,-1.79,-2.08,2.08,2.04,1.87,0.29,0.29,0.29
450.42,-1.80,-2.05,-1.80,-2.05,2.05,2.01,1.85,0.25,0.25,0.25
454.93,-1.81,-2.03,-1.81,-2.03,2.03,1.98,1.83,0.21,0.21,0.22
459.48,-1.82,-2.00,-1.82,-2.00,2.00,1.95,1.80,0.18,0.18,0.18
464.07,-1.83,-1.98,-1.83,-1.98,1.98,1.93,1.78,0.14,0.14,0.14
468.71,-1.84,-1.95,-1.84,-1.95,1.95,1.90,1.75,0.11,0.11,0.11
473.40,-1.85,-1.92,-1.85,-1.92,1.92,1.87,1.73,0.07,0.07,0.07
478.13,-1.86,-1.90,-1.86,-1.90,1.90,1.84,1.71,0.04,0.04,0.04
482.91,-1.87,-1.87,-1.87,-1.87,1.87,1.82,1.69,0.00,0.00,0.00
487.74,-1.88,-1.85,-1.88,-1.85,1.85,1.79,1.66,-0.03,-0.03,-0.03
492.62,-1.88,-1.82,-1.89,-1.82,1.82,1.76,1.64,-0.06,-0.06,-0.06
497.55,-1.89,-1.80,-1.89,-1.80,1.80,1.74,1.62,-0.10,-0.10,-0.10
502.52,-1.90,-1.77,-1.90,-1.77,1.77,1.71,1.59,-0.13,-0.13,-0.13
507.55,-1.91,-1.75,-1.91,-1.75,1.75,1.68,1.57,-0.16,-0.16,-0.16
512.62,-1.92,-1.72,-1.92,-1.72,1.72,1.66,1.54,-0.19,-0.19,-0.19
517.75,-1.92,-1.70,-1.92,-1.70,1.70,1.63,1.52,-0.22,-0.22,-0.22
522.93,-1.93,-1.68,-1.93,-1.68,1.68,1.60,1.50,-0.25,-0.25,-0.25
528.16,-1.93,-1.65,-1.93,-1.65,1.65,1.58,1.47,-0.28,-0.28,-0.28
533.44,-1.94,-1.63,-1.94,-1.63,1.63,1.55,1.45,-0.31,-0.31,-0.31
538.77,-1.94,-1.60,-1.94,-1.60,1.60,1.53,1.42,-0.34,-0.34,-0.34
544.16,-1.95,-1.58,-1.95,-1.58,1.58,1.50,1.40,-0.37,-0.37,-0.37
549.60,-1.95,-1.55,-1.95,-1.55,1.55,1.47,1.37,-0.40,-0.40,-0.40
