frequency,raw,error,smoothed,error_smoothed,equalization,parametric_eq,fixed_band_eq,equalized_raw,equalized_smoothed,target
20.00,10.71,-1.57,10.71,-1.57,1.57,-0.10,0.21,12.28,12.28,12.28
20.20,10.69,-1.57,10.70,-1.56,1.56,-0.10,0.21,12.26,12.26,12.26
20.40,10.67,-1.55,10.67,-1.55,1.55,-0.11,0.22,12.23,12.23,12.23
20.61,10.65,-1.53,10.64,-1.53,1.54,-0.11,0.23,12.19,12.19,12.18
20.81,10.61,-1.52,10.61,-1.52,1.52,-0.11,0.24,12.13,12.13,12.12
21.02,10.56,-1.50,10.56,-1.50,1.50,-0.11,0.25,12.06,12.06,12.06
21.23,10.52,-1.48,10.52,-1.48,1.47,-0.12,0.25,11.99,11.99,12.00
21.44,10.49,-1.45,10.49,-1.45,1.44,-0.12,0.26,11.93,11.93,11.94
21.66,10.48,-1.41,10.48,-1.42,1.40,-0.12,0.27,11.89,11.88,11.90
21.87,10.49,-1.37,10.49,-1.37,1.36,-0.12,0.28,11.85,11.85,11.86
22.09,10.52,-1.32,10.52,-1.32,1.31,-0.13,0.29,11.83,11.84,11.84
22.31,10.58,-1.26,10.57,-1.26,1.26,-0.13,0.30,11.84,11.84,11.84
22.54,10.63,-1.21,10.64,-1.21,1.22,-0.13,0.31,11.85,11.85,11.84
22.76,10.69,-1.15,10.69,-1.16,1.18,-0.13,0.32,11.87,11.87,11.85
22.99,10.75,-1.11,10.74,-1.12,1.14,-0.14,0.33,11.89,11.88,11.86
23.22,10.78,-1.09,10.77,-1.09,1.11,-0.14,0.34,11.89,11.89,11.87
23.45,10.79,-1.07,10.79,-1.08,1.09,-0.14,0.35,11.88,11.88,11.87
23.69,10.79,-1.06,10.79,-1.06,1.06,-0.15,0.36,11.86,11.85,11.86
23.92,10.79,-1.05,10.79,-1.05,1.03,-0.15,0.38,11.82,11.82,11.84
24.16,10.79,-1.02,10.79,-1.02,1.00,-0.15,0.39,11.78,11.79,11.81
24.40,10.80,-0.98,10.80,-0.98,0.95,-0.16,0.40,11.75,11.75,11.77
24.65,10.82,-0.92,10.82,-0.92,0.89,-0.16,0.41,11.70,11.71,11.73
24.89,10.85,-0.84,10.86,-0.83,0.81,-0.16,0.42,11.67,11.67,11.69
25.14,10.90,-0.74,10.90,-0.74,0.73,-0.17,0.43,11.64,11.64,11.65
25.39,10.96,-0.64,10.96,-0.64,0.65,-0.17,0.44,11.61,11.61,11.60
25.65,11.01,-0.55,11.01,-0.55,0.56,-0.17,0.46,11.58,11.58,11.56
25.91,11.06,-0.47,11.06,-0.47,0.49,-0.18,0.47,11.55,11.55,11.53
26.16,11.09,-0.40,11.09,-0.41,0.43,-0.18,0.48,11.52,11.52,11.50
26.43,11.11,-0.36,11.10,-0.36,0.39,-0.18,0.49,11.49,11.49,11.47
26.69,11.10,-0.34,11.10,-0.34,0.36,-0.19,0.50,11.46,11.46,11.44
26.96,11.08,-0.34,11.08,-0.34,0.35,-0.19,0.51,11.43,11.43,11.42
27.23,11.04,-0.35,11.04,-0.35,0.35,-0.20,0.52,11.39,11.39,11.39
27.50,11.00,-0.37,11.00,-0.37,0.36,-0.20,0.53,11.36,11.36,11.36
27.77,10.95,-0.38,10.95,-0.38,0.37,-0.20,0.53,11.32,11.32,11.33
28.05,10.91,-0.40,10.91,-0.39,0.38,-0.21,0.54,11.29,11.29,11.30
28.33,10.87,-0.40,10.87,-0.40,0.38,-0.21,0.55,11.25,11.25,11.27
28.62,10.84,-0.39,10.84,-0.39,0.38,-0.22,0.55,11.22,11.22,11.23
28.90,10.82,-0.37,10.82,-0.37,0.37,-0.22,0.56,11.19,11.19,11.20
29.19,10.81,-0.35,10.81,-0.35,0.34,-0.23,0.56,11.16,11.16,11.16
29.48,10.81,-0.32,10.81,-0.32,0.32,-0.23,0.56,11.12,11.12,11.13
29.78,10.81,-0.29,10.80,-0.29,0.29,-0.24,0.56,11.09,11.09,11.09
30.08,10.80,-0.25,10.80,-0.25,0.25,-0.24,0.56,11.06,11.06,11.06
30.38,10.80,-0.22,10.80,-0.22,0.22,-0.25,0.56,11.03,11.03,11.02
30.68,10.80,-0.19,10.80,-0.19,0.19,-0.25,0.55,10.99,10.99,10.99
30.99,10.80,-0.16,10.80,-0.16,0.17,-0.26,0.54,10.96,10.96,10.96
31.30,10.78,-0.14,10.78,-0.14,0.15,-0.26,0.54,10.93,10.93,10.92
31.61,10.77,-0.13,10.77,-0.13,0.14,-0.27,0.53,10.90,10.90,10.90
31.93,10.75,-0.12,10.75,-0.12,0.13,-0.27,0.52,10.87,10.87,10.87
32.24,10.72,-0.12,10.72,-0.12,0.13,-0.28,0.50,10.85,10.85,10.84
32.57,10.69,-0.13,10.69,-0.13,0.12,-0.29,0.49,10.82,10.82,10.82
32.89,10.67,-0.13,10.67,-0.13,0.12,-0.29,0.47,10.79,10.79,10.79
33.22,10.64,-0.13,10.64,-0.13,0.12,-0.30,0.46,10.76,10.76,10.77
33.55,10.62,-0.12,10.62,-0.12,0.11,-0.31,0.44,10.74,10.74,10.75
33.89,10.61,-0.11,10.61,-0.11,0.10,-0.31,0.42,10.71,10.71,10.72
34.23,10.60,-0.09,10.60,-0.09,0.09,-0.32,0.40,10.69,10.69,10.70
34.57,10.60,-0.07,10.61,-0.07,0.07,-0.33,0.37,10.67,10.67,10.68
34.92,10.61,-0.05,10.61,-0.05,0.04,-0.33,0.35,10.66,10.66,10.66
35.27,10.63,-0.02,10.62,-0.02,0.02,-0.34,0.33,10.65,10.65,10.64
35.62,10.64,0.01,10.64,0.01,-0.00,-0.35,0.30,10.63,10.63,10.62
35.97,10.64,0.04,10.64,0.04,-0.03,-0.36,0.27,10.62,10.61,10.61
36.33,10.64,0.06,10.64,0.06,-0.05,-0.36,0.25,10.59,10.59,10.59
36.70,10.64,0.07,10.64,0.07,-0.07,-0.37,0.22,10.57,10.57,10.57
37.06,10.64,0.09,10.64,0.09,-0.09,-0.38,0.19,10.54,10.54,10.55
37.43,10.63,0.11,10.63,0.11,-0.11,-0.39,0.16,10.52,10.52,10.53
37.81,10.63,0.13,10.63,0.13,-0.13,-0.40,0.13,10.50,10.50,10.50
38.19,10.63,0.15,10.63,0.15,-0.15,-0.41,0.10,10.48,10.48,10.48
38.57,10.62,0.17,10.62,0.17,-0.17,-0.41,0.07,10.45,10.45,10.46
38.95,10.62,0.19,10.62,0.19,-0.19,-0.42,0.03,10.43,10.43,10.43
39.34,10.61,0.21,10.61,0.21,-0.21,-0.43,0.00,10.40,10.40,10.40
39.74,10.60,0.23,10.60,0.23,-0.23,-0.44,-0.03,10.37,10.38,10.37
40.14,10.59,0.24,10.59,0.24,-0.24,-0.45,-0.07,10.35,10.35,10.35
40.54,10.58,0.26,10.58,0.26,-0.25,-0.46,-0.10,10.33,10.33,10.32
40.94,10.56,0.27,10.56,0.27,-0.26,-0.47,-0.13,10.30,10.30,10.29
41.35,10.54,0.27,10.54,0.27,-0.27,-0.48,-0.17,10.27,10.27,10.26
41.76,10.51,0.28,10.51,0.28,-0.28,-0.49,-0.20,10.24,10.24,10.24
42.18,10.49,0.28,10.49,0.28,-0.28,-0.51,-0.24,10.21,10.21,10.21
42.60,10.47,0.28,10.47,0.28,-0.29,-0.52,-0.27,10.18,10.18,10.18
43.03,10.45,0.29,10.45,0.29,-0.29,-0.53,-0.31,10.15,10.15,10.16
43.46,10.43,0.30,10.43,0.30,-0.30,-0.54,-0.34,10.13,10.13,10.13
43.90,10.41,0.31,10.41,0.31,-0.32,-0.55,-0.38,10.10,10.09,10.10
44.33,10.40,0.33,10.40,0.33,-0.34,-0.56,-0.42,10.06,10.06,10.06
44.78,10.38,0.35,10.38,0.36,-0.36,-0.58,-0.45,10.02,10.02,10.02
45.23,10.36,0.38,10.36,0.38,-0.39,-0.59,-0.49,9.98,9.98,9.98
45.68,10.35,0.42,10.35,0.42,-0.41,-0.60,-0.53,9.94,9.94,9.93
46.13,10.34,0.45,10.34,0.45,-0.44,-0.62,-0.56,9.90,9.90,9.89
46.60,10.33,0.48,10.33,0.48,-0.47,-0.63,-0.60,9.86,9.86,9.85
47.06,10.32,0.51,10.32,0.51,-0.50,-0.65,-0.64,9.82,9.82,9.81
47.53,10.30,0.53,10.30,0.53,-0.52,-0.66,-0.68,9.78,9.78,9.78
48.01,10.29,0.55,10.29,0.55,-0.55,-0.68,-0.72,9.74,9.74,9.74
48.49,10.27,0.57,10.27,0.57,-0.58,-0.69,-0.76,9.69,9.69,9.70
48.97,10.24,0.60,10.24,0.60,-0.61,-0.71,-0.79,9.63,9.63,9.64
49.46,10.21,0.63,10.21,0.63,-0.64,-0.72,-0.83,9.57,9.57,9.58
49.96,10.18,0.67,10.18,0.67,-0.68,-0.74,-0.87,9.50,9.51,9.51
50.46,10.16,0.72,10.16,0.72,-0.72,-0.76,-0.91,9.44,9.45,9.45
50.96,10.15,0.76,10.15,0.76,-0.76,-0.77,-0.95,9.39,9.39,9.39
51.47,10.14,0.81,10.14,0.81,-0.80,-0.79,-0.99,9.34,9.34,9.33
51.99,10.13,0.85,10.13,0.85,-0.84,-0.81,-1.03,9.29,9.29,9.28
52.51,10.12,0.89,10.12,0.89,-0.88,-0.83,-1.07,9.24,9.24,9.23
53.03,10.10,0.92,10.10,0.92,-0.92,-0.85,-1.10,9.18,9.18,9.17
53.56,10.08,0.95,10.08,0.95,-0.96,-0.87,-1.14,9.12,9.12,9.12
54.10,10.05,0.98,10.05,0.98,-0.99,-0.89,-1.18,9.06,9.06,9.07
54.64,10.03,1.02,10.03,1.02,-1.03,-0.91,-1.22,9.00,9.00,9.01
55.18,10.01,1.06,10.01,1.06,-1.07,-0.93,-1.25,8.94,8.94,8.95
55.74,10.00,1.10,10.00,1.10,-1.11,-0.95,-1.29,8.89,8.89,8.89
56.29,9.98,1.15,9.98,1.15,-1.15,-0.97,-1.32,8.84,8.84,8.83
56.86,9.97,1.19,9.97,1.19,-1.19,-0.99,-1.35,8.78,8.78,8.78
57.42,9.95,1.23,9.95,1.23,-1.23,-1.02,-1.38,8.72,8.72,8.72
58.00,9.92,1.27,9.92,1.27,-1.27,-1.04,-1.41,8.66,8.66,8.65
58.58,9.90,1.31,9.90,1.31,-1.30,-1.06,-1.44,8.59,8.59,8.59
59.16,9.87,1.34,9.87,1.34,-1.34,-1.09,-1.47,8.53,8.53,8.53
59.76,9.84,1.37,9.84,1.37,-1.37,-1.11,-1.49,8.46,8.46,8.46
60.35,9.80,1.40,9.80,1.40,-1.41,-1.14,-1.52,8.39,8.39,8.40
60.96,9.77,1.44,9.77,1.44,-1.45,-1.17,-1.54,8.33,8.33,8.33
61.57,9.75,1.48,9.75,1.48,-1.48,-1.19,-1.56,8.26,8.27,8.27
62.18,9.72,1.52,9.72,1.52,-1.52,-1.22,-1.58,8.20,8.20,8.20
62.80,9.69,1.56,9.69,1.56,-1.55,-1.25,-1.60,8.14,8.14,8.14
63.43,9.67,1.59,9.67,1.59,-1.59,-1.28,-1.61,8.08,8.08,8.07
64.07,9.64,1.63,9.64,1.63,-1.63,-1.31,-1.63,8.01,8.01,8.01
64.71,9.61,1.66,9.61,1.66,-1.66,-1.34,-1.64,7.95,7.95,7.95
65.35,9.58,1.70,9.58,1.70,-1.70,-1.37,-1.65,7.89,7.88,7.89
66.01,9.55,1.73,9.55,1.73,-1.73,-1.40,-1.66,7.82,7.82,7.82
66.67,9.53,1.76,9.53,1.76,-1.77,-1.43,-1.66,7.76,7.76,7.76
67.33,9.50,1.80,9.50,1.80,-1.80,-1.46,-1.67,7.70,7.70,7.70
68.01,9.48,1.84,9.48,1.84,-1.84,-1.49,-1.68,7.64,7.64,7.64
68.69,9.46,1.88,9.46,1.88,-1.88,-1.52,-1.68,7.58,7.58,7.58
69.37,9.43,1.91,9.43,1.91,-1.91,-1.56,-1.68,7.52,7.52,7.51
70.07,9.40,1.95,9.40,1.95,-1.95,-1.59,-1.68,7.45,7.45,7.45
70.77,9.36,1.98,9.36,1.98,-1.98,-1.63,-1.69,7.38,7.38,7.38
71.48,9.33,2.01,9.33,2.01,-2.01,-1.66,-1.69,7.32,7.32,7.32
72.19,9.30,2.04,9.30,2.04,-2.03,-1.70,-1.69,7.26,7.26,7.26
72.91,9.26,2.06,9.26,2.06,-2.06,-1.73,-1.69,7.21,7.21,7.20
73.64,9.23,2.08,9.23,2.08,-2.08,-1.77,-1.69,7.15,7.15,7.15
74.38,9.20,2.10,9.20,2.10,-2.10,-1.81,-1.69,7.10,7.10,7.10
75.12,9.17,2.12,9.17,2.12,-2.13,-1.84,-1.70,7.04,7.04,7.05
75.87,9.13,2.14,9.13,2.14,-2.15,-1.88,-1.70,6.98,6.98,6.99
76.63,9.10,2.17,9.10,2.17,-2.18,-1.92,-1.70,6.92,6.92,6.93
77.40,9.07,2.20,9.07,2.20,-2.21,-1.96,-1.70,6.86,6.86,6.87
78.17,9.03,2.23,9.03,2.23,-2.23,-2.00,-1.71,6.80,6.80,6.80
78.95,9.00,2.27,9.00,2.27,-2.26,-2.04,-1.71,6.74,6.74,6.73
79.74,8.96,2.29,8.96,2.29,-2.29,-2.07,-1.72,6.67,6.67,6.67
80.54,8.92,2.31,8.92,2.31,-2.31,-2.11,-1.73,6.61,6.61,6.60
81.35,8.88,2.33,8.88,2.33,-2.33,-2.15,-1.73,6.55,6.55,6.55
82.16,8.85,2.35,8.85,2.35,-2.34,-2.19,-1.74,6.50,6.50,6.50
82.98,8.81,2.36,8.81,2.36,-2.36,-2.23,-1.76,6.46,6.46,6.45
83.81,8.78,2.37,8.78,2.37,-2.37,-2.27,-1.77,6.41,6.41,6.41
84.65,8.74,2.38,8.74,2.38,-2.39,-2.31,-1.78,6.36,6.36,6.37
85.50,8.70,2.39,8.71,2.39,-2.41,-2.34,-1.80,6.30,6.30,6.32
86.35,8.67,2.41,8.67,2.41,-2.43,-2.38,-1.81,6.24,6.24,6.26
87.22,8.63,2.44,8.63,2.44,-2.45,-2.42,-1.83,6.18,6.18,6.19
88.09,8.60,2.48,8.60,2.47,-2.47,-2.45,-1.85,6.13,6.13,6.12
88.97,8.56,2.50,8.56,2.50,-2.48,-2.49,-1.87,6.08,6.08,6.06
89.86,8.52,2.52,8.52,2.52,-2.49,-2.52,-1.89,6.03,6.03,6.00
90.76,8.48,2.52,8.48,2.52,-2.49,-2.56,-1.92,5.99,5.99,5.96
91.66,8.44,2.51,8.44,2.51,-2.50,-2.59,-1.94,5.94,5.94,5.93
92.58,8.41,2.50,8.41,2.50,-2.51,-2.62,-1.97,5.89,5.90,5.91
93.51,8.38,2.49,8.38,2.49,-2.54,-2.65,-2.00,5.84,5.84,5.89
94.44,8.34,2.50,8.34,2.51,-2.57,-2.68,-2.02,5.77,5.77,5.84
95.39,8.30,2.54,8.30,2.55,-2.60,-2.71,-2.05,5.70,5.70,5.76
96.34,8.26,2.62,8.26,2.63,-2.64,-2.73,-2.09,5.62,5.62,5.64
97.30,8.21,2.72,8.22,2.72,-2.67,-2.75,-2.12,5.55,5.55,5.49
98.28,8.17,2.79,8.17,2.78,-2.69,-2.78,-2.15,5.48,5.48,5.38
99.26,8.13,2.80,8.13,2.78,-2.72,-2.80,-2.19,5.41,5.41,5.33
100.25,8.08,2.74,8.08,2.74,-2.74,-2.81,-2.22,5.35,5.35,5.34
101.25,8.04,2.67,8.04,2.70,-2.74,-2.83,-2.26,5.29,5.30,5.36
102.27,7.99,2.67,8.00,2.68,-2.74,-2.85,-2.30,5.26,5.26,5.32
103.29,7.95,2.69,7.95,2.69,-2.72,-2.86,-2.33,5.24,5.23,5.26
104.32,7.91,2.73,7.91,2.71,-2.69,-2.87,-2.37,5.22,5.21,5.18
105.37,7.86,2.71,7.86,2.71,-2.67,-2.88,-2.41,5.19,5.19,5.15
106.42,7.81,2.69,7.82,2.68,-2.66,-2.88,-2.44,5.16,5.16,5.13
107.48,7.77,2.64,7.77,2.65,-2.65,-2.89,-2.48,5.12,5.12,5.13
108.56,7.73,2.61,7.73,2.62,-2.64,-2.89,-2.51,5.09,5.09,5.12
109.64,7.69,2.60,7.68,2.60,-2.62,-2.89,-2.55,5.06,5.06,5.09
110.74,7.64,2.59,7.64,2.59,-2.61,-2.88,-2.58,5.03,5.03,5.05
111.85,7.59,2.59,7.59,2.59,-2.59,-2.88,-2.61,4.99,5.00,4.99
112.97,7.54,2.60,7.54,2.60,-2.58,-2.87,-2.64,4.96,4.96,4.95
114.10,7.50,2.60,7.50,2.59,-2.57,-2.86,-2.67,4.92,4.92,4.90
115.24,7.45,2.58,7.45,2.58,-2.57,-2.85,-2.69,4.88,4.88,4.87
116.39,7.40,2.56,7.40,2.56,-2.56,-2.83,-2.72,4.84,4.84,4.84
117.55,7.36,2.54,7.36,2.55,-2.56,-2.82,-2.74,4.80,4.80,4.81
118.73,7.31,2.54,7.31,2.54,-2.55,-2.80,-2.75,4.76,4.76,4.77
119.92,7.27,2.54,7.27,2.54,-2.54,-2.78,-2.77,4.72,4.72,4.73
121.12,7.22,2.54,7.22,2.54,-2.54,-2.76,-2.78,4.69,4.69,4.68
122.33,7.18,2.54,7.18,2.54,-2.53,-2.74,-2.78,4.65,4.65,4.64
123.55,7.13,2.54,7.13,2.54,-2.52,-2.71,-2.79,4.61,4.60,4.59
124.79,7.07,2.52,7.07,2.52,-2.52,-2.69,-2.78,4.55,4.55,4.55
126.03,7.01,2.51,7.01,2.51,-2.52,-2.66,-2.78,4.49,4.50,4.50
127.29,6.96,2.50,6.96,2.50,-2.51,-2.63,-2.77,4.45,4.45,4.46
128.57,6.92,2.50,6.92,2.50,-2.51,-2.61,-2.76,4.41,4.41,4.42
129.85,6.87,2.50,6.87,2.50,-2.50,-2.58,-2.74,4.37,4.37,4.38
131.15,6.83,2.50,6.83,2.50,-2.50,-2.55,-2.72,4.33,4.33,4.33
132.46,6.79,2.50,6.79,2.50,-2.49,-2.51,-2.70,4.30,4.30,4.29
133.79,6.75,2.50,6.75,2.50,-2.49,-2.48,-2.68,4.27,4.26,4.25
135.12,6.70,2.49,6.70,2.49,-2.48,-2.45,-2.64,4.23,4.22,4.21
136.48,6.65,2.48,6.65,2.48,-2.47,-2.42,-2.61,4.18,4.17,4.17
137.84,6.58,2.45,6.58,2.45,-2.46,-2.39,-2.58,4.12,4.12,4.13
139.22,6.52,2.43,6.52,2.44,-2.45,-2.35,-2.54,4.07,4.07,4.09
140.61,6.47,2.42,6.47,2.43,-2.44,-2.32,-2.50,4.03,4.03,4.05
142.02,6.43,2.42,6.43,2.42,-2.42,-2.29,-2.46,4.00,4.00,4.00
143.44,6.38,2.42,6.38,2.42,-2.41,-2.26,-2.42,3.98,3.97,3.96
144.87,6.33,2.41,6.33,2.41,-2.39,-2.22,-2.38,3.94,3.94,3.92
146.32,6.27,2.38,6.27,2.38,-2.38,-2.19,-2.33,3.89,3.89,3.88
147.78,6.20,2.36,6.20,2.36,-2.37,-2.16,-2.29,3.83,3.84,3.84
149.26,6.14,2.34,6.14,2.34,-2.36,-2.13,-2.24,3.79,3.78,3.80
150.75,6.08,2.33,6.08,2.33,-2.35,-2.10,-2.20,3.74,3.74,3.76
152.26,6.03,2.32,6.03,2.32,-2.33,-2.07,-2.15,3.70,3.70,3.71
153.78,5.98,2.32,5.98,2.32,-2.32,-2.04,-2.11,3.67,3.67,3.67
155.32,5.94,2.31,5.94,2.31,-2.30,-2.01,-2.06,3.64,3.64,3.63
156.88,5.89,2.29,5.89,2.29,-2.27,-1.99,-2.02,3.63,3.63,3.60
158.44,5.85,2.26,5.85,2.25,-2.23,-1.96,-1.97,3.61,3.61,3.59
160.03,5.80,2.20,5.79,2.20,-2.19,-1.93,-1.93,3.61,3.60,3.59
161.63,5.74,2.14,5.74,2.14,-2.14,-1.91,-1.88,3.60,3.60,3.60
163.24,5.68,2.07,5.68,2.08,-2.08,-1.88,-1.84,3.60,3.60,3.61
164.88,5.63,2.01,5.62,2.01,-2.03,-1.86,-1.80,3.60,3.60,3.61
166.53,5.57,1.96,5.56,1.96,-1.97,-1.84,-1.76,3.60,3.60,3.61
168.19,5.50,1.91,5.50,1.90,-1.92,-1.82,-1.72,3.59,3.59,3.60
169.87,5.44,1.86,5.45,1.86,-1.87,-1.80,-1.68,3.58,3.58,3.59
171.57,5.39,1.82,5.39,1.82,-1.82,-1.78,-1.65,3.57,3.57,3.57
173.29,5.33,1.79,5.33,1.79,-1.78,-1.76,-1.61,3.55,3.55,3.55
175.02,5.28,1.75,5.28,1.75,-1.74,-1.74,-1.58,3.53,3.53,3.52
176.77,5.21,1.72,5.21,1.72,-1.71,-1.72,-1.54,3.50,3.50,3.50
178.54,5.15,1.68,5.15,1.68,-1.68,-1.71,-1.51,3.47,3.47,3.47
180.32,5.08,1.64,5.08,1.64,-1.65,-1.69,-1.48,3.43,3.43,3.44
182.13,5.02,1.61,5.03,1.62,-1.63,-1.67,-1.45,3.40,3.40,3.41
183.95,4.97,1.60,4.97,1.60,-1.60,-1.65,-1.42,3.37,3.37,3.38
185.79,4.93,1.58,4.93,1.58,-1.58,-1.64,-1.40,3.35,3.35,3.35
187.65,4.88,1.57,4.88,1.57,-1.56,-1.62,-1.37,3.32,3.32,3.31
189.52,4.83,1.55,4.83,1.55,-1.54,-1.60,-1.34,3.29,3.29,3.28
191.42,4.77,1.52,4.77,1.52,-1.52,-1.58,-1.32,3.26,3.25,3.25
193.33,4.71,1.49,4.71,1.49,-1.49,-1.56,-1.30,3.21,3.22,3.22
195.27,4.65,1.46,4.65,1.47,-1.47,-1.53,-1.28,3.18,3.18,3.18
197.22,4.59,1.44,4.59,1.44,-1.44,-1.51,-1.26,3.15,3.15,3.15
199.19,4.53,1.41,4.53,1.41,-1.41,-1.48,-1.23,3.12,3.12,3.12
201.18,4.47,1.38,4.47,1.38,-1.38,-1.46,-1.22,3.09,3.09,3.09
203.19,4.40,1.34,4.40,1.34,-1.34,-1.43,-1.20,3.06,3.06,3.06
205.23,4.34,1.31,4.34,1.31,-1.30,-1.40,-1.18,3.03,3.03,3.03
207.28,4.27,1.27,4.27,1.27,-1.27,-1.37,-1.16,3.01,3.01,3.01
209.35,4.21,1.23,4.21,1.23,-1.23,-1.33,-1.15,2.98,2.98,2.98
211.44,4.14,1.18,4.14,1.19,-1.19,-1.30,-1.13,2.95,2.95,2.95
213.56,4.07,1.14,4.07,1.14,-1.15,-1.27,-1.12,2.92,2.92,2.93
215.69,4.01,1.11,4.01,1.11,-1.11,-1.23,-1.10,2.89,2.89,2.90
217.85,3.94,1.07,3.94,1.07,-1.07,-1.20,-1.09,2.87,2.87,2.87
220.03,3.88,1.04,3.88,1.04,-1.04,-1.16,-1.07,2.85,2.85,2.84
222.23,3.82,1.01,3.82,1.01,-1.00,-1.12,-1.06,2.83,2.82,2.82
224.45,3.76,0.97,3.76,0.97,-0.96,-1.09,-1.04,2.80,2.80,2.79
226.70,3.69,0.93,3.69,0.93,-0.92,-1.05,-1.03,2.77,2.77,2.76
228.96,3.63,0.89,3.63,0.89,-0.89,-1.01,-1.02,2.74,2.74,2.74
231.25,3.57,0.86,3.57,0.85,-0.86,-0.98,-1.00,2.71,2.71,2.71
233.57,3.51,0.83,3.51,0.83,-0.84,-0.94,-0.99,2.68,2.68,2.69
235.90,3.47,0.81,3.47,0.81,-0.82,-0.91,-0.97,2.64,2.65,2.66
238.26,3.44,0.80,3.43,0.80,-0.81,-0.87,-0.96,2.62,2.62,2.64
240.64,3.41,0.80,3.41,0.80,-0.81,-0.84,-0.94,2.60,2.60,2.61
243.05,3.40,0.82,3.40,0.82,-0.82,-0.81,-0.93,2.58,2.58,2.58
245.48,3.39,0.83,3.39,0.83,-0.83,-0.77,-0.91,2.57,2.56,2.56
247.93,3.38,0.85,3.38,0.85,-0.84,-0.74,-0.89,2.55,2.54,2.53
250.41,3.37,0.86,3.36,0.85,-0.85,-0.71,-0.87,2.52,2.52,2.51
252.92,3.34,0.85,3.34,0.86,-0.85,-0.68,-0.86,2.49,2.49,2.48
255.45,3.31,0.85,3.31,0.85,-0.85,-0.65,-0.84,2.46,2.46,2.46
258.00,3.28,0.85,3.28,0.85,-0.85,-0.62,-0.82,2.43,2.43,2.43
260.58,3.25,0.84,3.25,0.84,-0.84,-0.60,-0.79,2.41,2.41,2.41
263.19,3.21,0.83,3.21,0.83,-0.83,-0.57,-0.77,2.39,2.39,2.38
265.82,3.17,0.81,3.17,0.81,-0.81,-0.54,-0.75,2.36,2.36,2.36
268.48,3.12,0.79,3.12,0.79,-0.79,-0.52,-0.73,2.33,2.33,2.33
271.16,3.07,0.77,3.07,0.77,-0.77,-0.49,-0.71,2.30,2.30,2.31
273.87,3.02,0.74,3.02,0.74,-0.74,-0.47,-0.68,2.28,2.28,2.28
276.61,2.97,0.72,2.97,0.72,-0.72,-0.44,-0.66,2.25,2.25,2.25
279.38,2.92,0.69,2.92,0.69,-0.69,-0.42,-0.63,2.23,2.23,2.23
282.17,2.86,0.66,2.86,0.66,-0.66,-0.40,-0.61,2.20,2.20,2.20
284.99,2.80,0.63,2.80,0.63,-0.63,-0.37,-0.58,2.18,2.17,2.17
287.84,2.74,0.60,2.74,0.60,-0.60,-0.35,-0.56,2.14,2.14,2.14
290.72,2.68,0.57,2.68,0.57,-0.57,-0.33,-0.53,2.11,2.11,2.11
293.63,2.62,0.54,2.62,0.54,-0.54,-0.31,-0.51,2.07,2.07,2.08
296.57,2.56,0.52,2.56,0.52,-0.52,-0.29,-0.48,2.04,2.04,2.04
299.53,2.51,0.50,2.51,0.50,-0.50,-0.27,-0.45,2.01,2.01,2.01
302.53,2.45,0.48,2.45,0.48,-0.48,-0.25,-0.42,1.97,1.97,1.97
305.55,2.40,0.47,2.40,0.47,-0.47,-0.23,-0.40,1.92,1.92,1.93
308.61,2.34,0.46,2.34,0.46,-0.47,-0.21,-0.37,1.87,1.87,1.88
311.69,2.28,0.46,2.28,0.46,-0.46,-0.19,-0.34,1.82,1.82,1.82
314.81,2.22,0.46,2.22,0.46,-0.46,-0.17,-0.32,1.76,1.76,1.77
317.96,2.17,0.46,2.17,0.46,-0.46,-0.15,-0.29,1.71,1.71,1.71
321.14,2.12,0.46,2.12,0.46,-0.45,-0.13,-0.26,1.67,1.67,1.66
324.35,2.07,0.45,2.07,0.45,-0.44,-0.11,-0.23,1.63,1.63,1.62
327.59,2.02,0.44,2.02,0.44,-0.43,-0.09,-0.21,1.59,1.59,1.58
330.87,1.96,0.41,1.96,0.41,-0.41,-0.07,-0.18,1.56,1.56,1.55
334.18,1.91,0.39,1.91,0.38,-0.38,-0.06,-0.15,1.53,1.53,1.53
337.52,1.86,0.35,1.86,0.35,-0.35,-0.04,-0.12,1.51,1.51,1.51
340.90,1.81,0.31,1.81,0.31,-0.31,-0.02,-0.10,1.50,1.50,1.50
344.30,1.76,0.27,1.76,0.27,-0.27,-0.00,-0.07,1.49,1.49,1.49
347.75,1.71,0.23,1.71,0.23,-0.23,0.01,-0.04,1.48,1.48,1.48
351.23,1.66,0.18,1.66,0.18,-0.19,0.03,-0.02,1.47,1.47,1.47
354.74,1.60,0.14,1.60,0.14,-0.14,0.05,0.01,1.46,1.46,1.47
358.28,1.55,0.10,1.55,0.10,-0.10,0.07,0.04,1.45,1.45,1.46
361.87,1.51,0.06,1.51,0.06,-0.06,0.08,0.07,1.45,1.45,1.45
365.49,1.46,0.02,1.46,0.02,-0.02,0.10,0.09,1.44,1.44,1.44
369.14,1.42,-0.01,1.42,-0.01,0.01,0.12,0.12,1.43,1.43,1.43
372.83,1.37,-0.05,1.37,-0.05,0.05,0.14,0.15,1.42,1.42,1.41
376.56,1.32,-0.08,1.32,-0.08,0.08,0.15,0.18,1.40,1.40,1.40
380.33,1.26,-0.12,1.27,-0.12,0.12,0.17,0.20,1.38,1.38,1.39
384.13,1.21,-0.16,1.22,-0.15,0.15,0.19,0.23,1.36,1.37,1.37
387.97,1.17,-0.18,1.17,-0.19,0.18,0.21,0.26,1.35,1.35,1.35
391.85,1.12,-0.21,1.12,-0.21,0.22,0.22,0.29,1.34,1.34,1.34
395.77,1.07,-0.25,1.07,-0.25,0.25,0.24,0.31,1.32,1.32,1.32
399.73,1.02,-0.28,1.02,-0.28,0.29,0.26,0.34,1.31,1.31,1.30
403.72,0.96,-0.32,0.96,-0.32,0.33,0.28,0.37,1.29,1.29,1.28
407.76,0.90,-0.36,0.90,-0.37,0.37,0.29,0.40,1.27,1.27,1.26
411.84,0.84,-0.41,0.84,-0.41,0.41,0.31,0.42,1.25,1.25,1.25
415.96,0.77,-0.45,0.77,-0.45,0.45,0.33,0.45,1.23,1.23,1.23
420.12,0.71,-0.50,0.72,-0.50,0.49,0.35,0.48,1.21,1.21,1.21
424.32,0.66,-0.53,0.66,-0.54,0.53,0.37,0.50,1.19,1.19,1.19
428.56,0.60,-0.57,0.60,-0.57,0.57,0.38,0.53,1.17,1.17,1.17
432.85,0.55,-0.61,0.55,-0.61,0.61,0.40,0.56,1.15,1.15,1.16
437.18,0.49,-0.64,0.50,-0.64,0.64,0.42,0.58,1.13,1.13,1.14
441.55,0.45,-0.67,0.45,-0.67,0.66,0.44,0.61,1.11,1.11,1.12
445.96,0.41,-0.69,0.41,-0.69,0.69,0.46,0.63,1.10,1.10,1.10
450.42,0.37,-0.71,0.37,-0.71,0.71,0.48,0.65,1.08,1.08,1.08
454.93,0.33,-0.73,0.33,-0.73,0.73,0.50,0.68,1.06,1.06,1.06
459.48,0.29,-0.74,0.29,-0.74,0.74,0.52,0.70,1.04,1.04,1.04
464.07,0.26,-0.76,0.26,-0.76,0.76,0.54,0.72,1.02,1.02,1.02
468.71,0.23,-0.77,0.23,-0.77,0.78,0.56,0.74,1.00,1.00,1.00
473.40,0.19,-0.79,0.19,-0.79,0.79,0.58,0.77,0.99,0.99,0.98
478.13,0.16,-0.81,0.16,-0.81,0.81,0.60,0.78,0.97,0.97,0.96
482.91,0.12,-0.82,0.12,-0.82,0.82,0.62,0.80,0.95,0.95,0.95
487.74,0.09,-0.84,0.09,-0.84,0.84,0.64,0.82,0.93,0.93,0.93
492.62,0.05,-0.86,0.05,-0.86,0.86,0.66,0.84,0.91,0.91,0.91
497.55,0.01,-0.88,0.01,-0.88,0.88,0.68,0.86,0.89,0.89,0.89
502.52,-0.02,-0.89,-0.02,-0.89,0.89,0.70,0.87,0.87,0.87,0.87
507.55,-0.05,-0.91,-0.06,-0.91,0.91,0.72,0.88,0.86,0.86,0.86
512.62,-0.09,-0.93,-0.09,-0.93,0.93,0.75,0.90,0.84,0.84,0.84
