frequency,raw,error,smoothed,error_smoothed,equalization,parametric_eq,fixed_band_eq,equalized_raw,equalized_smoothed,target
20.00,11.99,-2.69,11.99,-2.69,2.65,2.54,1.43,14.64,14.64,14.68
20.20,12.00,-2.70,12.00,-2.70,2.69,2.58,1.47,14.69,14.69,14.70
20.40,12.00,-2.72,12.00,-2.72,2.73,2.62,1.51,14.73,14.73,14.72
20.61,12.00,-2.74,11.99,-2.74,2.76,2.65,1.56,14.76,14.76,14.73
20.81,11.98,-2.77,11.98,-2.77,2.80,2.69,1.60,14.77,14.77,14.75
21.02,11.95,-2.81,11.95,-2.81,2.83,2.72,1.65,14.78,14.78,14.76
21.23,11.92,-2.85,11.92,-2.85,2.86,2.76,1.70,14.78,14.78,14.77
21.44,11.88,-2.89,11.88,-2.89,2.89,2.79,1.75,14.77,14.77,14.77
21.66,11.85,-2.93,11.85,-2.93,2.92,2.82,1.80,14.77,14.77,14.78
21.87,11.82,-2.96,11.82,-2.96,2.95,2.85,1.86,14.77,14.77,14.78
22.09,11.79,-2.98,11.79,-2.98,2.98,2.88,1.91,14.77,14.77,14.78
22.31,11.77,-3.00,11.77,-3.00,2.99,2.90,1.97,14.76,14.76,14.77
22.54,11.76,-3.01,11.76,-3.01,3.00,2.93,2.02,14.76,14.76,14.77
22.76,11.75,-3.01,11.75,-3.01,3.01,2.95,2.08,14.76,14.76,14.76
22.99,11.75,-3.00,11.75,-3.00,3.00,2.98,2.14,14.75,14.75,14.75
23.22,11.74,-3.00,11.74,-3.00,3.00,3.00,2.21,14.74,14.74,14.74
23.45,11.73,-2.99,11.73,-2.99,2.99,3.02,2.27,14.73,14.73,14.72
23.69,11.72,-2.98,11.72,-2.98,2.99,3.04,2.33,14.71,14.71,14.71
23.92,11.71,-2.98,11.71,-2.98,2.98,3.05,2.40,14.69,14.69,14.69
24.16,11.69,-2.98,11.69,-2.98,2.98,3.07,2.47,14.67,14.67,14.67
24.40,11.67,-2.98,11.67,-2.98,2.98,3.08,2.53,14.65,14.65,14.65
24.65,11.64,-2.98,11.64,-2.98,2.98,3.09,2.60,14.62,14.62,14.62
24.89,11.61,-2.99,11.61,-2.99,2.99,3.11,2.67,14.60,14.60,14.60
25.14,11.58,-2.99,11.58,-2.99,2.99,3.11,2.74,14.57,14.57,14.57
25.39,11.54,-3.00,11.54,-3.00,3.00,3.12,2.81,14.54,14.54,14.54
25.65,11.50,-3.01,11.50,-3.01,3.01,3.13,2.89,14.52,14.52,14.51
25.91,11.46,-3.02,11.46,-3.02,3.03,3.13,2.96,14.49,14.49,14.48
26.16,11.42,-3.03,11.42,-3.04,3.04,3.14,3.03,14.46,14.46,14.45
26.43,11.37,-3.05,11.37,-3.05,3.06,3.14,3.10,14.42,14.42,14.42
26.69,11.31,-3.07,11.31,-3.07,3.07,3.14,3.17,14.39,14.39,14.39
26.96,11.26,-3.09,11.26,-3.09,3.09,3.14,3.23,14.35,14.35,14.36
27.23,11.22,-3.11,11.22,-3.11,3.10,3.14,3.30,14.32,14.32,14.33
27.50,11.18,-3.12,11.18,-3.12,3.11,3.14,3.36,14.29,14.29,14.30
27.77,11.15,-3.12,11.15,-3.12,3.11,3.14,3.43,14.26,14.26,14.27
28.05,11.12,-3.12,11.12,-3.12,3.12,3.14,3.49,14.24,14.24,14.24
28.33,11.09,-3.12,11.09,-3.12,3.13,3.14,3.54,14.22,14.22,14.21
28.62,11.05,-3.12,11.05,-3.12,3.14,3.13,3.60,14.19,14.19,14.17
28.90,11.01,-3.13,11.01,-3.13,3.15,3.13,3.65,14.15,14.15,14.14
29.19,10.96,-3.15,10.95,-3.15,3.16,3.13,3.69,14.11,14.11,14.10
29.48,10.90,-3.17,10.90,-3.17,3.17,3.13,3.73,14.06,14.06,14.07
29.78,10.85,-3.19,10.85,-3.19,3.17,3.13,3.77,14.02,14.02,14.04
30.08,10.80,-3.21,10.81,-3.20,3.18,3.14,3.80,13.98,13.98,14.01
30.38,10.77,-3.21,10.78,-3.20,3.18,3.14,3.83,13.95,13.96,13.98
30.68,10.76,-3.20,10.76,-3.19,3.18,3.14,3.85,13.94,13.95,13.96
30.99,10.75,-3.18,10.75,-3.18,3.19,3.15,3.87,13.94,13.94,13.93
31.30,10.73,-3.17,10.73,-3.18,3.21,3.16,3.88,13.94,13.94,13.91
31.61,10.70,-3.18,10.69,-3.19,3.23,3.17,3.88,13.92,13.92,13.88
31.93,10.64,-3.22,10.64,-3.22,3.25,3.18,3.88,13.89,13.89,13.86
32.24,10.56,-3.27,10.56,-3.27,3.28,3.19,3.88,13.85,13.85,13.84
32.57,10.48,-3.33,10.48,-3.33,3.32,3.21,3.86,13.80,13.80,13.81
32.89,10.41,-3.38,10.41,-3.38,3.34,3.23,3.85,13.75,13.76,13.79
33.22,10.36,-3.41,10.36,-3.41,3.37,3.25,3.83,13.73,13.73,13.76
33.55,10.32,-3.42,10.33,-3.41,3.39,3.27,3.80,13.71,13.72,13.74
33.89,10.31,-3.40,10.31,-3.40,3.40,3.29,3.77,13.71,13.71,13.71
34.23,10.31,-3.38,10.31,-3.38,3.40,3.31,3.74,13.71,13.71,13.69
34.57,10.30,-3.36,10.30,-3.37,3.39,3.33,3.70,13.69,13.69,13.66
34.92,10.28,-3.36,10.28,-3.36,3.37,3.35,3.67,13.65,13.65,13.64
35.27,10.25,-3.36,10.25,-3.36,3.35,3.36,3.62,13.60,13.60,13.61
35.62,10.23,-3.35,10.23,-3.34,3.32,3.38,3.58,13.55,13.55,13.58
35.97,10.22,-3.32,10.22,-3.32,3.29,3.38,3.53,13.50,13.51,13.54
36.33,10.22,-3.27,10.22,-3.27,3.26,3.38,3.49,13.48,13.48,13.49
36.70,10.22,-3.23,10.23,-3.23,3.24,3.37,3.44,13.46,13.46,13.45
37.06,10.22,-3.18,10.22,-3.19,3.22,3.36,3.39,13.44,13.43,13.40
37.43,10.19,-3.16,10.19,-3.17,3.20,3.34,3.34,13.39,13.39,13.36
37.81,10.13,-3.17,10.13,-3.17,3.19,3.32,3.29,13.33,13.33,13.31
38.19,10.07,-3.19,10.07,-3.19,3.20,3.29,3.24,13.26,13.26,13.26
38.57,10.00,-3.22,10.00,-3.21,3.21,3.26,3.19,13.20,13.21,13.21
38.95,9.94,-3.24,9.94,-3.23,3.22,3.22,3.14,13.16,13.17,13.18
39.34,9.89,-3.25,9.89,-3.25,3.24,3.19,3.09,13.14,13.14,13.14
39.74,9.85,-3.26,9.85,-3.26,3.26,3.16,3.05,13.11,13.11,13.12
40.14,9.81,-3.27,9.81,-3.27,3.27,3.12,3.00,13.08,13.08,13.08
40.54,9.77,-3.28,9.77,-3.27,3.27,3.09,2.96,13.04,13.04,13.05
40.94,9.73,-3.27,9.73,-3.27,3.26,3.07,2.92,12.99,12.99,13.00
41.35,9.69,-3.25,9.69,-3.25,3.25,3.04,2.88,12.94,12.94,12.94
41.76,9.66,-3.23,9.67,-3.23,3.22,3.02,2.84,12.89,12.89,12.89
42.18,9.65,-3.20,9.65,-3.20,3.20,3.00,2.80,12.85,12.85,12.85
42.60,9.64,-3.17,9.64,-3.17,3.17,2.98,2.76,12.81,12.80,12.80
43.03,9.62,-3.14,9.62,-3.14,3.14,2.97,2.73,12.76,12.76,12.76
43.46,9.61,-3.11,9.61,-3.10,3.11,2.96,2.70,12.72,12.72,12.71
43.90,9.59,-3.07,9.59,-3.07,3.08,2.95,2.67,12.67,12.67,12.67
44.33,9.58,-3.04,9.58,-3.04,3.05,2.94,2.65,12.63,12.63,12.62
44.78,9.56,-3.02,9.55,-3.02,3.03,2.94,2.62,12.59,12.59,12.57
45.23,9.53,-3.00,9.52,-3.00,3.01,2.94,2.60,12.53,12.53,12.53
45.68,9.49,-2.99,9.49,-2.99,2.98,2.94,2.58,12.47,12.47,12.48
46.13,9.45,-2.97,9.45,-2.97,2.95,2.94,2.56,12.40,12.40,12.42
46.60,9.41,-2.94,9.41,-2.94,2.92,2.94,2.54,12.33,12.33,12.35
47.06,9.37,-2.90,9.37,-2.90,2.89,2.94,2.53,12.26,12.26,12.27
47.53,9.34,-2.86,9.34,-2.86,2.85,2.94,2.52,12.19,12.19,12.19
48.01,9.30,-2.81,9.30,-2.82,2.82,2.94,2.51,12.12,12.12,12.11
48.49,9.26,-2.78,9.26,-2.78,2.80,2.94,2.50,12.06,12.05,12.04
48.97,9.20,-2.76,9.20,-2.76,2.78,2.94,2.49,11.98,11.99,11.96
49.46,9.14,-2.75,9.14,-2.75,2.77,2.93,2.48,11.91,11.91,11.89
49.96,9.07,-2.75,9.06,-2.76,2.77,2.93,2.48,11.84,11.84,11.82
50.46,8.97,-2.77,8.97,-2.77,2.78,2.92,2.47,11.75,11.75,11.74
50.96,8.88,-2.79,8.88,-2.79,2.78,2.91,2.47,11.66,11.66,11.67
51.47,8.78,-2.81,8.78,-2.80,2.78,2.90,2.47,11.56,11.56,11.58
51.99,8.69,-2.80,8.70,-2.80,2.78,2.88,2.47,11.47,11.47,11.50
52.51,8.63,-2.78,8.63,-2.78,2.76,2.86,2.47,11.39,11.39,11.41
53.03,8.57,-2.75,8.58,-2.74,2.73,2.84,2.47,11.30,11.31,11.32
53.56,8.54,-2.69,8.54,-2.69,2.68,2.82,2.47,11.23,11.23,11.23
54.10,8.52,-2.63,8.52,-2.63,2.63,2.79,2.47,11.15,11.15,11.15
54.64,8.50,-2.56,8.50,-2.56,2.56,2.76,2.48,11.06,11.06,11.06
55.18,8.48,-2.49,8.48,-2.49,2.50,2.73,2.48,10.98,10.98,10.97
55.74,8.46,-2.43,8.46,-2.43,2.43,2.69,2.48,10.89,10.89,10.89
56.29,8.43,-2.37,8.43,-2.37,2.37,2.65,2.48,10.80,10.80,10.80
56.86,8.40,-2.31,8.40,-2.31,2.31,2.61,2.47,10.71,10.71,10.71
57.42,8.36,-2.26,8.36,-2.26,2.26,2.56,2.47,10.62,10.62,10.62
58.00,8.31,-2.21,8.30,-2.22,2.23,2.52,2.47,10.54,10.53,10.52
58.58,8.23,-2.20,8.23,-2.19,2.21,2.47,2.46,10.44,10.44,10.43
59.16,8.14,-2.19,8.14,-2.19,2.21,2.42,2.45,10.35,10.35,10.33
59.76,8.03,-2.20,8.03,-2.20,2.22,2.37,2.44,10.25,10.25,10.23
60.35,7.91,-2.22,7.91,-2.22,2.25,2.32,2.43,10.15,10.15,10.13
60.96,7.77,-2.26,7.76,-2.26,2.28,2.26,2.42,10.05,10.05,10.03
61.57,7.62,-2.31,7.61,-2.31,2.32,2.21,2.40,9.93,9.93,9.92
62.18,7.47,-2.36,7.47,-2.36,2.34,2.16,2.38,9.81,9.81,9.82
62.80,7.33,-2.39,7.33,-2.39,2.35,2.10,2.36,9.68,9.68,9.72
63.43,7.23,-2.39,7.23,-2.39,2.33,2.05,2.33,9.57,9.56,9.62
64.07,7.15,-2.37,7.17,-2.35,2.30,1.99,2.31,9.45,9.46,9.52
64.71,7.14,-2.28,7.14,-2.28,2.24,1.94,2.28,9.38,9.38,9.42
65.35,7.15,-2.17,7.15,-2.17,2.17,1.89,2.25,9.32,9.32,9.32
66.01,7.17,-2.06,7.16,-2.06,2.10,1.84,2.21,9.26,9.26,9.22
66.67,7.16,-1.96,7.16,-1.96,2.02,1.78,2.18,9.18,9.18,9.12
67.33,7.13,-1.89,7.13,-1.89,1.96,1.73,2.14,9.09,9.08,9.02
68.01,7.07,-1.85,7.07,-1.86,1.90,1.68,2.10,8.97,8.96,8.92
68.69,6.98,-1.84,6.98,-1.84,1.85,1.63,2.06,8.83,8.83,8.82
69.37,6.89,-1.84,6.89,-1.83,1.81,1.59,2.01,8.70,8.70,8.73
70.07,6.81,-1.82,6.82,-1.81,1.77,1.54,1.97,8.58,8.58,8.63
70.77,6.77,-1.77,6.77,-1.76,1.72,1.49,1.92,8.49,8.49,8.53
71.48,6.74,-1.69,6.74,-1.69,1.67,1.45,1.87,8.41,8.41,8.43
72.19,6.73,-1.60,6.73,-1.60,1.61,1.41,1.82,8.34,8.34,8.33
72.91,6.72,-1.52,6.72,-1.52,1.53,1.36,1.77,8.25,8.25,8.23
73.64,6.70,-1.44,6.70,-1.44,1.45,1.32,1.72,8.15,8.15,8.14
74.38,6.67,-1.37,6.67,-1.37,1.37,1.28,1.67,8.04,8.04,8.04
75.12,6.64,-1.29,6.64,-1.29,1.30,1.24,1.62,7.93,7.93,7.93
75.87,6.60,-1.22,6.60,-1.22,1.23,1.20,1.57,7.83,7.83,7.82
76.63,6.56,-1.16,6.56,-1.16,1.17,1.17,1.51,7.72,7.72,7.71
77.40,6.52,-1.10,6.52,-1.10,1.11,1.13,1.46,7.63,7.63,7.62
78.17,6.47,-1.06,6.47,-1.06,1.06,1.10,1.41,7.53,7.53,7.53
78.95,6.42,-1.02,6.42,-1.02,1.01,1.06,1.36,7.44,7.44,7.44
79.74,6.37,-0.98,6.37,-0.98,0.97,1.03,1.31,7.35,7.35,7.35
80.54,6.32,-0.93,6.32,-0.93,0.93,1.00,1.25,7.25,7.25,7.25
81.35,6.26,-0.89,6.26,-0.89,0.90,0.97,1.20,7.16,7.16,7.15
82.16,6.20,-0.85,6.20,-0.86,0.86,0.93,1.15,7.06,7.06,7.06
82.98,6.14,-0.82,6.14,-0.82,0.82,0.90,1.10,6.96,6.96,6.96
83.81,6.07,-0.79,6.07,-0.79,0.78,0.88,1.05,6.85,6.85,6.86
84.65,6.00,-0.75,6.00,-0.75,0.73,0.85,1.00,6.74,6.74,6.75
85.50,5.93,-0.70,5.93,-0.70,0.69,0.82,0.95,6.62,6.62,6.64
86.35,5.86,-0.66,5.86,-0.66,0.64,0.79,0.91,6.50,6.50,6.52
87.22,5.79,-0.61,5.79,-0.61,0.60,0.77,0.86,6.39,6.39,6.39
88.09,5.71,-0.57,5.71,-0.56,0.58,0.74,0.81,6.29,6.29,6.28
88.97,5.64,-0.53,5.64,-0.53,0.57,0.71,0.76,6.21,6.21,6.17
89.86,5.57,-0.51,5.57,-0.51,0.57,0.69,0.72,6.14,6.15,6.08
90.76,5.50,-0.52,5.50,-0.52,0.59,0.66,0.67,6.09,6.09,6.02
91.66,5.44,-0.56,5.44,-0.57,0.60,0.64,0.63,6.04,6.04,6.00
92.58,5.38,-0.62,5.38,-0.62,0.59,0.62,0.58,5.96,5.96,6.00
93.51,5.32,-0.65,5.32,-0.64,0.55,0.59,0.54,5.87,5.87,5.97
94.44,5.26,-0.62,5.26,-0.61,0.48,0.57,0.50,5.74,5.74,5.88
95.39,5.20,-0.52,5.20,-0.51,0.39,0.55,0.45,5.59,5.59,5.72
96.34,5.14,-0.36,5.14,-0.35,0.29,0.52,0.41,5.42,5.42,5.50
97.30,5.09,-0.16,5.09,-0.16,0.18,0.50,0.37,5.27,5.28,5.24
98.28,5.05,0.01,5.06,0.01,0.10,0.48,0.33,5.16,5.16,5.04
99.26,5.03,0.12,5.03,0.11,0.06,0.45,0.29,5.08,5.08,4.91
100.25,5.00,0.12,4.99,0.10,0.05,0.43,0.25,5.05,5.04,4.88
101.25,4.95,0.00,4.94,0.00,0.09,0.41,0.21,5.03,5.03,4.94
102.27,4.87,-0.16,4.86,-0.16,0.16,0.39,0.17,5.03,5.03,5.03
103.29,4.77,-0.34,4.77,-0.33,0.26,0.36,0.14,5.03,5.03,5.11
104.32,4.66,-0.48,4.67,-0.46,0.36,0.34,0.10,5.02,5.03,5.14
105.37,4.57,-0.54,4.57,-0.55,0.45,0.32,0.07,5.02,5.02,5.11
106.42,4.48,-0.57,4.48,-0.57,0.51,0.30,0.03,4.99,4.99,5.05
107.48,4.40,-0.56,4.41,-0.55,0.54,0.27,-0.00,4.94,4.94,4.96
108.56,4.34,-0.51,4.34,-0.52,0.53,0.25,-0.03,4.87,4.87,4.85
109.64,4.28,-0.46,4.28,-0.47,0.50,0.23,-0.07,4.79,4.79,4.75
110.74,4.23,-0.42,4.23,-0.42,0.46,0.20,-0.10,4.69,4.69,4.65
111.85,4.17,-0.39,4.17,-0.39,0.41,0.18,-0.12,4.58,4.58,4.56
112.97,4.12,-0.35,4.12,-0.35,0.36,0.16,-0.15,4.48,4.48,4.47
114.10,4.07,-0.31,4.07,-0.31,0.30,0.13,-0.18,4.37,4.37,4.39
115.24,4.03,-0.26,4.03,-0.26,0.24,0.11,-0.20,4.27,4.28,4.30
116.39,4.01,-0.20,4.00,-0.20,0.18,0.08,-0.22,4.18,4.18,4.20
117.55,3.98,-0.13,3.99,-0.12,0.11,0.06,-0.24,4.09,4.10,4.11
118.73,3.98,-0.04,3.98,-0.04,0.04,0.03,-0.26,4.02,4.02,4.03
119.92,3.99,0.04,3.99,0.04,-0.04,0.01,-0.28,3.95,3.95,3.94
121.12,3.99,0.12,3.99,0.12,-0.11,-0.02,-0.30,3.88,3.88,3.87
122.33,4.00,0.19,4.00,0.19,-0.18,-0.05,-0.31,3.81,3.82,3.80
123.55,3.99,0.25,3.99,0.25,-0.24,-0.07,-0.32,3.75,3.76,3.74
124.79,3.98,0.30,3.98,0.30,-0.28,-0.10,-0.33,3.70,3.70,3.68
126.03,3.95,0.33,3.95,0.33,-0.31,-0.12,-0.34,3.64,3.63,3.62
127.29,3.89,0.34,3.89,0.34,-0.33,-0.15,-0.34,3.56,3.56,3.55
128.57,3.82,0.34,3.82,0.34,-0.34,-0.18,-0.34,3.48,3.48,3.48
129.85,3.74,0.34,3.74,0.34,-0.35,-0.20,-0.35,3.39,3.39,3.40
131.15,3.66,0.34,3.67,0.34,-0.35,-0.23,-0.35,3.31,3.31,3.33
132.46,3.59,0.34,3.60,0.34,-0.35,-0.25,-0.34,3.24,3.24,3.26
133.79,3.53,0.35,3.53,0.35,-0.35,-0.27,-0.34,3.18,3.18,3.19
135.12,3.48,0.35,3.48,0.35,-0.36,-0.29,-0.33,3.13,3.13,3.13
136.48,3.43,0.36,3.43,0.36,-0.36,-0.31,-0.33,3.07,3.07,3.07
137.84,3.39,0.37,3.38,0.37,-0.36,-0.33,-0.32,3.02,3.02,3.02
139.22,3.33,0.37,3.33,0.37,-0.37,-0.35,-0.31,2.97,2.97,2.96
140.61,3.28,0.37,3.28,0.37,-0.37,-0.36,-0.30,2.91,2.91,2.91
142.02,3.22,0.37,3.22,0.37,-0.36,-0.38,-0.29,2.86,2.86,2.85
143.44,3.16,0.36,3.16,0.36,-0.35,-0.38,-0.27,2.81,2.81,2.80
144.87,3.10,0.35,3.10,0.35,-0.34,-0.39,-0.26,2.76,2.76,2.75
146.32,3.04,0.33,3.04,0.33,-0.33,-0.40,-0.24,2.71,2.71,2.71
147.78,2.98,0.31,2.98,0.31,-0.31,-0.40,-0.23,2.67,2.67,2.67
149.26,2.93,0.29,2.93,0.29,-0.30,-0.40,-0.21,2.63,2.63,2.64
150.75,2.88,0.28,2.88,0.28,-0.28,-0.40,-0.19,2.60,2.59,2.60
152.26,2.82,0.26,2.82,0.26,-0.27,-0.39,-0.17,2.56,2.55,2.56
153.78,2.76,0.25,2.76,0.25,-0.25,-0.38,-0.16,2.51,2.51,2.51
155.32,2.71,0.24,2.71,0.24,-0.24,-0.37,-0.14,2.47,2.47,2.47
156.88,2.66,0.23,2.66,0.23,-0.23,-0.36,-0.12,2.43,2.43,2.43
158.44,2.61,0.22,2.61,0.22,-0.23,-0.34,-0.10,2.39,2.39,2.39
160.03,2.56,0.22,2.56,0.22,-0.22,-0.32,-0.08,2.35,2.35,2.35
161.63,2.52,0.22,2.52,0.22,-0.21,-0.30,-0.06,2.31,2.31,2.30
163.24,2.47,0.21,2.47,0.21,-0.21,-0.28,-0.04,2.26,2.26,2.26
164.88,2.42,0.21,2.42,0.21,-0.20,-0.26,-0.02,2.22,2.22,2.21
166.53,2.37,0.20,2.37,0.20,-0.19,-0.23,0.00,2.18,2.18,2.18
168.19,2.32,0.19,2.32,0.19,-0.19,-0.21,0.02,2.13,2.13,2.14
169.87,2.27,0.18,2.27,0.18,-0.19,-0.18,0.04,2.09,2.09,2.10
171.57,2.23,0.18,2.23,0.18,-0.18,-0.16,0.06,2.05,2.05,2.05
173.29,2.19,0.18,2.19,0.18,-0.18,-0.13,0.09,2.01,2.01,2.01
175.02,2.14,0.18,2.14,0.18,-0.18,-0.10,0.11,1.96,1.96,1.96
176.77,2.10,0.18,2.10,0.18,-0.18,-0.07,0.13,1.92,1.92,1.92
178.54,2.05,0.18,2.05,0.18,-0.17,-0.04,0.15,1.88,1.87,1.87
180.32,2.00,0.17,2.00,0.17,-0.17,-0.02,0.17,1.83,1.83,1.82
182.13,1.95,0.17,1.95,0.17,-0.17,0.01,0.19,1.78,1.78,1.78
183.95,1.89,0.16,1.89,0.16,-0.17,0.04,0.21,1.73,1.73,1.74
185.79,1.84,0.15,1.84,0.15,-0.16,0.07,0.23,1.68,1.68,1.69
187.65,1.79,0.14,1.79,0.14,-0.15,0.09,0.25,1.64,1.64,1.65
189.52,1.75,0.13,1.75,0.14,-0.13,0.12,0.27,1.61,1.61,1.61
191.42,1.70,0.12,1.70,0.12,-0.11,0.14,0.30,1.59,1.59,1.58
193.33,1.66,0.10,1.66,0.10,-0.08,0.17,0.32,1.58,1.58,1.56
195.27,1.62,0.07,1.62,0.06,-0.05,0.20,0.34,1.57,1.57,1.55
197.22,1.57,0.01,1.57,0.01,-0.01,0.22,0.36,1.56,1.56,1.56
199.19,1.52,-0.05,1.52,-0.05,0.04,0.24,0.38,1.56,1.56,1.57
201.18,1.46,-0.10,1.46,-0.10,0.09,0.27,0.40,1.55,1.55,1.57
203.19,1.41,-0.15,1.41,-0.15,0.15,0.29,0.42,1.56,1.56,1.57
205.23,1.37,-0.20,1.37,-0.20,0.20,0.31,0.44,1.57,1.57,1.57
207.28,1.33,-0.25,1.33,-0.26,0.26,0.33,0.46,1.59,1.59,1.58
209.35,1.29,-0.31,1.29,-0.31,0.32,0.35,0.48,1.61,1.61,1.60
211.44,1.25,-0.38,1.25,-0.37,0.37,0.38,0.50,1.62,1.62,1.63
213.56,1.21,-0.43,1.21,-0.43,0.42,0.40,0.52,1.64,1.64,1.65
215.69,1.18,-0.48,1.18,-0.48,0.47,0.42,0.54,1.65,1.65,1.65
217.85,1.14,-0.52,1.13,-0.52,0.52,0.43,0.56,1.65,1.65,1.66
220.03,1.09,-0.56,1.09,-0.56,0.56,0.45,0.58,1.65,1.65,1.65
222.23,1.04,-0.60,1.04,-0.60,0.60,0.47,0.60,1.64,1.64,1.64
224.45,1.00,-0.63,1.00,-0.63,0.63,0.49,0.61,1.62,1.63,1.63
226.70,0.95,-0.66,0.95,-0.66,0.65,0.51,0.63,1.61,1.61,1.61
228.96,0.91,-0.68,0.91,-0.68,0.68,0.53,0.65,1.59,1.59,1.59
231.25,0.86,-0.70,0.86,-0.70,0.70,0.54,0.66,1.56,1.56,1.56
233.57,0.82,-0.72,0.82,-0.72,0.72,0.56,0.68,1.54,1.54,1.54
235.90,0.78,-0.73,0.78,-0.73,0.74,0.58,0.69,1.51,1.51,1.51
238.26,0.73,-0.75,0.73,-0.75,0.75,0.59,0.70,1.49,1.49,1.49
240.64,0.69,-0.77,0.69,-0.77,0.77,0.61,0.71,1.46,1.46,1.46
243.05,0.65,-0.78,0.65,-0.78,0.79,0.62,0.72,1.44,1.44,1.44
245.48,0.61,-0.80,0.61,-0.80,0.80,0.64,0.73,1.41,1.41,1.41
247.93,0.57,-0.82,0.57,-0.82,0.82,0.65,0.74,1.38,1.38,1.38
250.41,0.52,-0.83,0.52,-0.83,0.83,0.67,0.75,1.35,1.35,1.36
252.92,0.48,-0.85,0.48,-0.85,0.84,0.68,0.76,1.32,1.33,1.33
255.45,0.44,-0.86,0.44,-0.86,0.86,0.70,0.76,1.30,1.30,1.30
258.00,0.41,-0.87,0.41,-0.87,0.87,0.71,0.77,1.27,1.27,1.27
260.58,0.37,-0.87,0.37,-0.87,0.87,0.72,0.77,1.25,1.25,1.24
263.19,0.34,-0.88,0.34,-0.88,0.88,0.74,0.78,1.22,1.22,1.22
265.82,0.30,-0.89,0.30,-0.89,0.89,0.75,0.78,1.19,1.19,1.19
268.48,0.26,-0.89,0.27,-0.89,0.89,0.76,0.78,1.16,1.16,1.16
271.16,0.23,-0.90,0.23,-0.90,0.90,0.77,0.78,1.12,1.12,1.13
273.87,0.19,-0.90,0.19,-0.90,0.90,0.79,0.78,1.09,1.09,1.09
276.61,0.16,-0.90,0.16,-0.90,0.90,0.80,0.78,1.06,1.06,1.06
279.38,0.12,-0.90,0.12,-0.90,0.90,0.81,0.78,1.03,1.03,1.03
282.17,0.09,-0.90,0.09,-0.90,0.91,0.82,0.78,0.99,0.99,0.99
284.99,0.06,-0.90,0.05,-0.91,0.91,0.83,0.78,0.96,0.96,0.96
287.84,0.02,-0.91,0.02,-0.91,0.91,0.85,0.78,0.93,0.93,0.93
290.72,-0.02,-0.91,-0.02,-0.91,0.91,0.86,0.77,0.89,0.89,0.89
293.63,-0.05,-0.91,-0.05,-0.91,0.91,0.87,0.77,0.86,0.86,0.86
296.57,-0.09,-0.92,-0.09,-0.92,0.92,0.88,0.77,0.82,0.82,0.82
299.53,-0.13,-0.92,-0.13,-0.92,0.92,0.89,0.77,0.79,0.79,0.79
302.53,-0.17,-0.92,-0.17,-0.92,0.92,0.90,0.77,0.76,0.76,0.76
305.55,-0.20,-0.93,-0.20,-0.93,0.93,0.91,0.77,0.72,0.72,0.72
308.61,-0.24,-0.93,-0.24,-0.93,0.93,0.92,0.76,0.69,0.69,0.69
311.69,-0.28,-0.93,-0.28,-0.93,0.93,0.93,0.76,0.65,0.65,0.65
314.81,-0.31,-0.93,-0.31,-0.93,0.93,0.94,0.76,0.62,0.62,0.62
317.96,-0.34,-0.93,-0.34,-0.93,0.93,0.95,0.76,0.58,0.58,0.59
321.14,-0.37,-0.92,-0.37,-0.92,0.92,0.96,0.76,0.55,0.55,0.55
324.35,-0.40,-0.92,-0.40,-0.92,0.92,0.97,0.76,0.52,0.52,0.52
327.59,-0.43,-0.92,-0.43,-0.92,0.92,0.97,0.76,0.49,0.49,0.48
330.87,-0.46,-0.91,-0.46,-0.91,0.92,0.98,0.76,0.45,0.45,0.45
334.18,-0.50,-0.91,-0.50,-0.91,0.92,0.99,0.77,0.42,0.42,0.42
337.52,-0.53,-0.92,-0.53,-0.92,0.92,1.00,0.77,0.39,0.39,0.38
340.90,-0.57,-0.92,-0.57,-0.92,0.92,1.01,0.77,0.35,0.35,0.35
344.30,-0.60,-0.92,-0.60,-0.92,0.92,1.01,0.77,0.32,0.32,0.32
347.75,-0.63,-0.92,-0.63,-0.92,0.92,1.02,0.78,0.29,0.29,0.29
351.23,-0.67,-0.93,-0.67,-0.93,0.93,1.03,0.78,0.26,0.26,0.26
354.74,-0.70,-0.93,-0.70,-0.93,0.93,1.03,0.79,0.23,0.23,0.23
358.28,-0.73,-0.93,-0.73,-0.93,0.93,1.04,0.80,0.20,0.20,0.20
361.87,-0.76,-0.93,-0.76,-0.93,0.94,1.05,0.80,0.18,0.18,0.18
365.49,-0.78,-0.93,-0.79,-0.94,0.94,1.05,0.81,0.16,0.15,0.15
369.14,-0.82,-0.94,-0.82,-0.94,0.94,1.06,0.82,0.13,0.13,0.12
372.83,-0.85,-0.95,-0.85,-0.95,0.95,1.06,0.83,0.10,0.10,0.10
376.56,-0.88,-0.96,-0.88,-0.96,0.96,1.07,0.83,0.07,0.07,0.07
380.33,-0.92,-0.96,-0.92,-0.96,0.96,1.08,0.84,0.05,0.05,0.05
384.13,-0.95,-0.97,-0.95,-0.97,0.97,1.08,0.85,0.02,0.02,0.02
387.97,-0.98,-0.98,-0.98,-0.98,0.98,1.08,0.87,-0.00,-0.00,-0.00
391.85,-1.01,-0.99,-1.01,-0.99,0.98,1.09,0.88,-0.03,-0.03,-0.02
395.77,-1.04,-0.99,-1.04,-0.99,0.99,1.09,0.89,-0.05,-0.05,-0.05
399.73,-1.06,-0.99,-1.06,-0.99,0.99,1.10,0.90,-0.07,-0.07,-0.07
403.72,-1.09,-0.99,-1.09,-0.99,0.99,1.10,0.91,-0.09,-0.09,-0.09
407.76,-1.11,-0.99,-1.11,-0.99,1.00,1.10,0.92,-0.11,-0.11,-0.11
411.84,-1.13,-0.99,-1.13,-0.99,1.00,1.11,0.94,-0.13,-0.13,-0.14
415.96,-1.15,-1.00,-1.15,-1.00,1.00,1.11,0.95,-0.15,-0.15,-0.16
420.12,-1.18,-1.00,-1.18,-1.00,1.00,1.11,0.96,-0.18,-0.18,-0.18
424.32,-1.20,-1.00,-1.20,-1.00,1.00,1.11,0.98,-0.20,-0.20,-0.20
428.56,-1.22,-1.00,-1.22,-1.00,1.00,1.12,0.99,-0.22,-0.22,-0.22
432.85,-1.23,-1.00,-1.23,-1.00,1.00,1.12,1.00,-0.24,-0.24,-0.23
437.18,-1.25,-1.00,-1.25,-1.00,1.00,1.12,1.01,-0.25,-0.25,-0.25
441.55,-1.26,-1.00,-1.26,-1.00,1.00,1.12,1.02,-0.26,-0.26,-0.27
445.96,-1.28,-0.99,-1.28,-1.00,1.00,1.12,1.04,-0.28,-0.28,-0.28
450.42,-1.30,-1.00,-1.30,-1.00,1.01,1.12,1.05,-0.29,-0.29,-0.30
454.93,-1.32,-1.01,-1.32,-1.01,1.01,1.12,1.06,-0.31,-0.31,-0.32
459.48,-1.35,-1.02,-1.35,-1.02,1.02,1.12,1.07,-0.33,-0.33,-0.33
464.07,-1.38,-1.03,-1.38,-1.03,1.03,1.12,1.08,-0.35,-0.35,-0.35
468.71,-1.40,-1.04,-1.40,-1.04,1.03,1.12,1.08,-0.37,-0.37,-0.36
473.40,-1.42,-1.04,-1.42,-1.04,1.04,1.12,1.09,-0.38,-0.38,-0.37
478.13,-1.43,-1.05,-1.43,-1.05,1.04,1.12,1.10,-0.39,-0.39,-0.39
482.91,-1.45,-1.05,-1.45,-1.05,1.05,1.12,1.10,-0.40,-0.40,-0.40
487.74,-1.46,-1.05,-1.46,-1.05,1.05,1.12,1.10,-0.41,-0.41,-0.41
492.62,-1.47,-1.05,-1.47,-1.05,1.05,1.11,1.11,-0.42,-0.42,-0.42
497.55,-1.48,-1.05,-1.48,-1.05,1.05,1.11,1.11,-0.43,-0.43,-0.44
502.52,-1.49,-1.05,-1.49,-1.05,1.05,1.11,1.11,-0.44,-0.44,-0.45
507.55,-1.51,-1.05,-1.51,-1.05,1.05,1.11,1.10,-0.46,-0.46,-0.46
512.62,-1.52,-1.05,-1.52,-1.05,1.05,1.10,1.10,-0.47,-0.47,-0.47
