frequency,raw,error,smoothed,error_smoothed,equalization,parametric_eq,fixed_band_eq,equalized_raw,equalized_smoothed,target
20.00,11.89,6.09,11.89,6.09,-6.11,-5.93,-2.29,5.79,5.79,5.80
20.20,11.89,6.09,11.89,6.09,-6.09,-6.06,-2.36,5.80,5.80,5.80
20.40,11.89,6.09,11.89,6.09,-6.08,-6.19,-2.42,5.81,5.81,5.80
20.61,11.88,6.08,11.88,6.08,-6.06,-6.26,-2.49,5.82,5.82,5.80
20.81,11.87,6.06,11.87,6.06,-6.05,-6.34,-2.57,5.82,5.82,5.80
21.02,11.85,6.04,11.85,6.04,-6.03,-6.34,-2.64,5.81,5.81,5.80
21.23,11.82,6.02,11.82,6.02,-6.01,-6.34,-2.72,5.81,5.81,5.80
21.44,11.80,5.99,11.80,5.99,-5.99,-6.28,-2.80,5.80,5.80,5.80
21.66,11.77,5.97,11.77,5.97,-5.97,-6.21,-2.88,5.80,5.80,5.80
21.87,11.74,5.94,11.75,5.94,-5.95,-6.13,-2.96,5.80,5.80,5.80
22.09,11.72,5.92,11.72,5.92,-5.92,-6.04,-3.04,5.80,5.80,5.80
22.31,11.70,5.90,11.70,5.90,-5.90,-5.95,-3.13,5.80,5.80,5.80
22.54,11.68,5.88,11.68,5.88,-5.88,-5.86,-3.22,5.80,5.80,5.80
22.76,11.67,5.86,11.67,5.86,-5.86,-5.79,-3.31,5.80,5.80,5.80
22.99,11.65,5.85,11.65,5.85,-5.84,-5.72,-3.41,5.81,5.81,5.80
23.22,11.63,5.83,11.63,5.83,-5.83,-5.67,-3.51,5.81,5.81,5.80
23.45,11.61,5.81,11.61,5.81,-5.81,-5.61,-3.60,5.81,5.81,5.80
23.69,11.59,5.79,11.59,5.79,-5.78,-5.57,-3.71,5.81,5.81,5.80
23.92,11.57,5.76,11.57,5.76,-5.76,-5.53,-3.81,5.81,5.81,5.80
24.16,11.54,5.74,11.54,5.74,-5.74,-5.50,-3.91,5.81,5.81,5.80
24.40,11.51,5.71,11.51,5.71,-5.71,-5.47,-4.02,5.81,5.81,5.80
24.65,11.49,5.68,11.49,5.68,-5.68,-5.44,-4.13,5.81,5.81,5.80
24.89,11.46,5.65,11.46,5.65,-5.65,-5.42,-4.24,5.81,5.81,5.80
25.14,11.43,5.62,11.42,5.62,-5.62,-5.40,-4.35,5.80,5.80,5.80
25.39,11.39,5.59,11.39,5.59,-5.59,-5.38,-4.46,5.80,5.80,5.80
25.65,11.37,5.56,11.37,5.56,-5.57,-5.37,-4.57,5.80,5.80,5.80
25.91,11.34,5.54,11.34,5.54,-5.55,-5.35,-4.68,5.79,5.80,5.80
26.16,11.32,5.52,11.32,5.52,-5.53,-5.34,-4.79,5.79,5.79,5.80
26.43,11.30,5.50,11.30,5.50,-5.51,-5.33,-4.90,5.80,5.80,5.80
26.69,11.29,5.48,11.29,5.48,-5.49,-5.31,-5.01,5.80,5.80,5.80
26.96,11.27,5.47,11.27,5.47,-5.46,-5.30,-5.12,5.81,5.81,5.80
27.23,11.25,5.45,11.25,5.44,-5.43,-5.29,-5.23,5.82,5.82,5.80
27.50,11.21,5.41,11.21,5.41,-5.39,-5.28,-5.33,5.83,5.82,5.80
27.77,11.16,5.36,11.16,5.36,-5.34,-5.27,-5.43,5.82,5.82,5.80
28.05,11.10,5.30,11.10,5.30,-5.29,-5.25,-5.53,5.82,5.81,5.80
28.33,11.03,5.23,11.03,5.23,-5.23,-5.24,-5.62,5.80,5.80,5.80
28.62,10.96,5.16,10.96,5.16,-5.18,-5.23,-5.71,5.78,5.78,5.80
28.90,10.90,5.10,10.90,5.11,-5.13,-5.22,-5.79,5.77,5.77,5.80
29.19,10.86,5.06,10.86,5.06,-5.09,-5.20,-5.86,5.77,5.77,5.80
29.48,10.84,5.03,10.85,5.04,-5.06,-5.19,-5.93,5.78,5.79,5.81
29.78,10.85,5.03,10.84,5.03,-5.03,-5.17,-5.99,5.81,5.81,5.82
30.08,10.85,5.03,10.85,5.03,-5.02,-5.16,-6.04,5.83,5.83,5.83
30.38,10.86,5.03,10.86,5.03,-5.01,-5.14,-6.09,5.86,5.85,5.83
30.68,10.86,5.02,10.86,5.02,-5.00,-5.13,-6.12,5.86,5.86,5.84
30.99,10.84,5.01,10.84,5.01,-4.99,-5.11,-6.15,5.85,5.85,5.83
31.30,10.82,4.99,10.82,4.99,-4.99,-5.10,-6.16,5.83,5.83,5.83
31.61,10.80,4.97,10.80,4.97,-4.99,-5.08,-6.17,5.81,5.81,5.82
31.93,10.78,4.97,10.78,4.97,-4.99,-5.06,-6.17,5.79,5.79,5.81
32.24,10.78,4.97,10.78,4.97,-4.99,-5.04,-6.16,5.79,5.79,5.80
32.57,10.78,4.99,10.78,4.99,-4.99,-5.03,-6.14,5.79,5.79,5.79
32.89,10.79,5.00,10.78,5.00,-4.99,-5.01,-6.12,5.80,5.79,5.78
33.22,10.78,5.01,10.78,5.01,-4.99,-4.99,-6.08,5.80,5.79,5.78
33.55,10.78,5.00,10.78,5.00,-4.99,-4.97,-6.04,5.79,5.79,5.77
33.89,10.76,4.99,10.76,4.99,-4.98,-4.95,-5.99,5.78,5.78,5.77
34.23,10.74,4.97,10.74,4.97,-4.97,-4.93,-5.94,5.77,5.77,5.77
34.57,10.71,4.94,10.71,4.94,-4.95,-4.91,-5.87,5.76,5.76,5.77
34.92,10.69,4.92,10.69,4.92,-4.93,-4.89,-5.81,5.76,5.76,5.77
35.27,10.66,4.90,10.66,4.90,-4.91,-4.87,-5.74,5.76,5.76,5.76
35.62,10.64,4.88,10.64,4.88,-4.89,-4.85,-5.67,5.75,5.75,5.75
35.97,10.60,4.86,10.60,4.86,-4.86,-4.82,-5.60,5.74,5.74,5.74
36.33,10.57,4.84,10.57,4.84,-4.84,-4.80,-5.52,5.73,5.73,5.73
36.70,10.53,4.82,10.53,4.82,-4.81,-4.78,-5.44,5.72,5.72,5.72
37.06,10.49,4.79,10.49,4.79,-4.78,-4.76,-5.36,5.71,5.71,5.70
37.43,10.45,4.76,10.45,4.76,-4.75,-4.74,-5.28,5.70,5.70,5.69
37.81,10.40,4.72,10.40,4.72,-4.72,-4.71,-5.20,5.68,5.68,5.68
38.19,10.35,4.68,10.35,4.68,-4.68,-4.69,-5.12,5.67,5.67,5.67
38.57,10.29,4.64,10.29,4.64,-4.64,-4.67,-5.04,5.65,5.65,5.65
38.95,10.24,4.60,10.24,4.60,-4.60,-4.64,-4.97,5.64,5.64,5.64
39.34,10.18,4.56,10.18,4.56,-4.57,-4.62,-4.89,5.62,5.62,5.62
39.74,10.13,4.53,10.13,4.53,-4.53,-4.60,-4.82,5.60,5.60,5.61
40.14,10.08,4.50,10.08,4.50,-4.50,-4.57,-4.75,5.58,5.58,5.59
40.54,10.04,4.47,10.04,4.47,-4.47,-4.55,-4.68,5.57,5.57,5.57
40.94,10.00,4.45,10.00,4.45,-4.45,-4.53,-4.61,5.55,5.55,5.55
41.35,9.96,4.43,9.96,4.43,-4.43,-4.50,-4.55,5.53,5.53,5.53
41.76,9.92,4.41,9.92,4.41,-4.41,-4.48,-4.49,5.51,5.51,5.51
42.18,9.89,4.40,9.89,4.40,-4.39,-4.45,-4.43,5.49,5.49,5.49
42.60,9.85,4.38,9.85,4.38,-4.38,-4.43,-4.37,5.47,5.47,5.47
43.03,9.81,4.36,9.81,4.36,-4.36,-4.41,-4.32,5.44,5.44,5.44
43.46,9.77,4.35,9.77,4.35,-4.35,-4.38,-4.27,5.42,5.42,5.42
43.90,9.72,4.33,9.72,4.33,-4.33,-4.36,-4.23,5.40,5.40,5.40
44.33,9.68,4.31,9.68,4.31,-4.31,-4.34,-4.18,5.37,5.37,5.37
44.78,9.63,4.29,9.63,4.29,-4.29,-4.31,-4.14,5.35,5.35,5.34
45.23,9.59,4.27,9.59,4.27,-4.27,-4.29,-4.11,5.32,5.32,5.32
45.68,9.53,4.24,9.53,4.24,-4.24,-4.26,-4.07,5.29,5.29,5.29
46.13,9.48,4.22,9.48,4.22,-4.22,-4.24,-4.04,5.27,5.27,5.26
46.60,9.42,4.19,9.42,4.19,-4.19,-4.22,-4.02,5.24,5.24,5.24
47.06,9.36,4.16,9.36,4.16,-4.16,-4.19,-3.99,5.20,5.21,5.21
47.53,9.31,4.13,9.31,4.13,-4.13,-4.17,-3.97,5.17,5.17,5.18
48.01,9.25,4.10,9.25,4.10,-4.10,-4.15,-3.95,5.14,5.14,5.14
48.49,9.19,4.08,9.19,4.08,-4.08,-4.13,-3.94,5.11,5.11,5.11
48.97,9.13,4.05,9.13,4.05,-4.05,-4.10,-3.92,5.08,5.08,5.08
49.46,9.07,4.03,9.07,4.03,-4.03,-4.08,-3.91,5.04,5.04,5.04
49.96,9.02,4.01,9.02,4.01,-4.01,-4.06,-3.91,5.01,5.01,5.01
50.46,8.96,3.99,8.96,3.99,-3.99,-4.04,-3.90,4.97,4.97,4.98
50.96,8.91,3.97,8.91,3.97,-3.98,-4.01,-3.90,4.93,4.93,4.94
51.47,8.87,3.96,8.87,3.96,-3.97,-3.99,-3.89,4.90,4.90,4.90
51.99,8.82,3.96,8.82,3.96,-3.96,-3.97,-3.89,4.87,4.87,4.87
52.51,8.78,3.95,8.78,3.95,-3.94,-3.95,-3.89,4.83,4.83,4.83
53.03,8.73,3.94,8.73,3.94,-3.93,-3.93,-3.90,4.80,4.80,4.79
53.56,8.67,3.92,8.67,3.92,-3.91,-3.91,-3.90,4.76,4.76,4.75
54.10,8.61,3.90,8.61,3.90,-3.89,-3.89,-3.90,4.72,4.72,4.71
54.64,8.55,3.88,8.55,3.88,-3.87,-3.87,-3.91,4.68,4.67,4.67
55.18,8.48,3.85,8.48,3.85,-3.85,-3.85,-3.91,4.63,4.63,4.63
55.74,8.41,3.82,8.41,3.82,-3.83,-3.83,-3.92,4.58,4.58,4.59
56.29,8.35,3.80,8.35,3.80,-3.82,-3.81,-3.92,4.53,4.53,4.55
56.86,8.29,3.79,8.29,3.79,-3.80,-3.79,-3.92,4.49,4.49,4.50
57.42,8.24,3.78,8.24,3.78,-3.79,-3.77,-3.92,4.45,4.45,4.46
58.00,8.19,3.78,8.19,3.78,-3.77,-3.75,-3.93,4.42,4.42,4.41
58.58,8.13,3.77,8.13,3.77,-3.76,-3.73,-3.92,4.38,4.38,4.37
59.16,8.08,3.76,8.08,3.76,-3.74,-3.71,-3.92,4.33,4.33,4.32
59.76,8.01,3.74,8.01,3.74,-3.73,-3.69,-3.92,4.28,4.28,4.27
60.35,7.94,3.71,7.94,3.71,-3.71,-3.67,-3.91,4.23,4.23,4.23
60.96,7.87,3.69,7.87,3.69,-3.70,-3.66,-3.90,4.17,4.17,4.18
61.57,7.80,3.67,7.80,3.67,-3.68,-3.64,-3.89,4.12,4.12,4.13
62.18,7.73,3.66,7.73,3.66,-3.66,-3.62,-3.88,4.07,4.07,4.08
62.80,7.67,3.64,7.67,3.64,-3.64,-3.60,-3.87,4.03,4.03,4.03
63.43,7.61,3.63,7.61,3.63,-3.63,-3.59,-3.85,3.98,3.98,3.98
64.07,7.54,3.62,7.54,3.61,-3.61,-3.57,-3.83,3.93,3.93,3.93
64.71,7.48,3.60,7.48,3.60,-3.60,-3.55,-3.81,3.88,3.88,3.88
65.35,7.41,3.58,7.41,3.58,-3.58,-3.54,-3.78,3.82,3.82,3.83
66.01,7.34,3.57,7.34,3.57,-3.57,-3.52,-3.76,3.77,3.77,3.77
66.67,7.28,3.56,7.28,3.56,-3.56,-3.51,-3.73,3.72,3.72,3.72
67.33,7.21,3.55,7.21,3.55,-3.55,-3.49,-3.70,3.67,3.66,3.67
68.01,7.15,3.53,7.15,3.53,-3.54,-3.48,-3.66,3.61,3.61,3.61
68.69,7.08,3.52,7.08,3.52,-3.52,-3.46,-3.63,3.55,3.56,3.56
69.37,7.01,3.51,7.01,3.51,-3.51,-3.45,-3.59,3.50,3.50,3.50
70.07,6.94,3.50,6.94,3.50,-3.50,-3.43,-3.56,3.45,3.45,3.44
70.77,6.88,3.49,6.87,3.49,-3.48,-3.42,-3.52,3.39,3.39,3.39
71.48,6.80,3.47,6.80,3.47,-3.47,-3.41,-3.48,3.34,3.33,3.33
72.19,6.72,3.45,6.72,3.45,-3.45,-3.39,-3.45,3.28,3.27,3.27
72.91,6.64,3.43,6.64,3.43,-3.43,-3.38,-3.41,3.21,3.21,3.21
73.64,6.56,3.40,6.56,3.40,-3.41,-3.37,-3.37,3.15,3.15,3.15
74.38,6.47,3.38,6.48,3.38,-3.38,-3.36,-3.33,3.09,3.09,3.09
75.12,6.39,3.36,6.39,3.36,-3.36,-3.34,-3.30,3.03,3.03,3.03
75.87,6.32,3.34,6.31,3.34,-3.34,-3.33,-3.26,2.97,2.97,2.97
76.63,6.23,3.32,6.23,3.32,-3.32,-3.32,-3.22,2.91,2.91,2.91
77.40,6.15,3.30,6.15,3.30,-3.30,-3.31,-3.19,2.85,2.85,2.86
78.17,6.08,3.28,6.08,3.28,-3.28,-3.30,-3.16,2.79,2.79,2.80
78.95,6.00,3.26,6.00,3.26,-3.26,-3.29,-3.13,2.73,2.73,2.73
79.74,5.92,3.25,5.92,3.25,-3.24,-3.28,-3.10,2.68,2.68,2.67
80.54,5.84,3.23,5.84,3.23,-3.22,-3.27,-3.07,2.62,2.62,2.61
81.35,5.76,3.22,5.76,3.22,-3.20,-3.26,-3.04,2.56,2.56,2.54
82.16,5.67,3.20,5.67,3.19,-3.18,-3.25,-3.02,2.49,2.49,2.48
82.98,5.59,3.17,5.59,3.17,-3.17,-3.24,-2.99,2.41,2.41,2.42
83.81,5.50,3.15,5.51,3.15,-3.17,-3.23,-2.97,2.33,2.34,2.36
84.65,5.44,3.15,5.44,3.15,-3.17,-3.22,-2.95,2.27,2.27,2.29
85.50,5.39,3.16,5.39,3.16,-3.19,-3.21,-2.94,2.21,2.21,2.23
86.35,5.36,3.19,5.36,3.19,-3.21,-3.20,-2.92,2.15,2.16,2.17
87.22,5.34,3.24,5.34,3.24,-3.23,-3.20,-2.91,2.10,2.10,2.10
88.09,5.32,3.28,5.31,3.28,-3.27,-3.19,-2.90,2.05,2.05,2.04
88.97,5.29,3.31,5.29,3.31,-3.30,-3.18,-2.89,1.99,1.99,1.97
89.86,5.26,3.34,5.25,3.34,-3.33,-3.18,-2.89,1.92,1.92,1.91
90.76,5.21,3.36,5.21,3.36,-3.36,-3.17,-2.88,1.86,1.86,1.85
91.66,5.17,3.38,5.17,3.38,-3.38,-3.16,-2.88,1.79,1.79,1.79
92.58,5.11,3.39,5.11,3.39,-3.38,-3.16,-2.88,1.73,1.73,1.73
93.51,5.05,3.39,5.05,3.39,-3.39,-3.15,-2.88,1.67,1.67,1.66
94.44,4.98,3.39,4.98,3.39,-3.38,-3.15,-2.89,1.60,1.60,1.59
95.39,4.91,3.38,4.91,3.37,-3.37,-3.14,-2.89,1.54,1.54,1.53
96.34,4.82,3.36,4.82,3.36,-3.35,-3.14,-2.90,1.47,1.47,1.47
97.30,4.73,3.33,4.74,3.33,-3.34,-3.14,-2.91,1.40,1.40,1.40
98.28,4.65,3.31,4.65,3.31,-3.31,-3.13,-2.92,1.33,1.33,1.34
99.26,4.57,3.29,4.57,3.29,-3.29,-3.13,-2.93,1.27,1.27,1.28
100.25,4.48,3.27,4.48,3.27,-3.27,-3.13,-2.95,1.21,1.21,1.22
101.25,4.40,3.25,4.40,3.25,-3.25,-3.12,-2.96,1.15,1.15,1.15
102.27,4.32,3.23,4.32,3.23,-3.23,-3.12,-2.98,1.09,1.09,1.09
103.29,4.25,3.22,4.25,3.22,-3.22,-3.12,-3.00,1.03,1.03,1.03
104.32,4.17,3.20,4.17,3.20,-3.20,-3.12,-3.02,0.97,0.97,0.97
105.37,4.09,3.19,4.09,3.19,-3.19,-3.12,-3.04,0.91,0.91,0.91
106.42,4.02,3.18,4.02,3.18,-3.18,-3.12,-3.06,0.85,0.85,0.85
107.48,3.95,3.17,3.95,3.17,-3.16,-3.12,-3.08,0.79,0.79,0.78
108.56,3.88,3.15,3.88,3.15,-3.15,-3.12,-3.10,0.73,0.73,0.72
109.64,3.80,3.14,3.80,3.14,-3.14,-3.12,-3.13,0.67,0.67,0.66
110.74,3.73,3.13,3.73,3.13,-3.13,-3.12,-3.15,0.60,0.60,0.60
111.85,3.66,3.11,3.66,3.11,-3.12,-3.12,-3.17,0.54,0.54,0.55
112.97,3.59,3.10,3.59,3.10,-3.11,-3.13,-3.19,0.48,0.48,0.49
114.10,3.52,3.10,3.52,3.10,-3.10,-3.13,-3.21,0.43,0.43,0.43
115.24,3.46,3.09,3.46,3.09,-3.09,-3.13,-3.23,0.37,0.37,0.37
116.39,3.40,3.09,3.40,3.09,-3.09,-3.14,-3.25,0.31,0.31,0.31
117.55,3.34,3.09,3.34,3.09,-3.08,-3.14,-3.27,0.25,0.25,0.25
118.73,3.27,3.08,3.27,3.08,-3.08,-3.14,-3.29,0.19,0.19,0.19
119.92,3.21,3.08,3.21,3.08,-3.08,-3.15,-3.30,0.13,0.13,0.13
121.12,3.15,3.08,3.15,3.08,-3.07,-3.15,-3.32,0.07,0.07,0.07
122.33,3.09,3.07,3.09,3.07,-3.07,-3.15,-3.33,0.01,0.01,0.01
123.55,3.02,3.07,3.02,3.07,-3.07,-3.16,-3.34,-0.04,-0.04,-0.04
124.79,2.96,3.07,2.97,3.07,-3.07,-3.16,-3.35,-0.10,-0.10,-0.10
126.03,2.91,3.07,2.91,3.07,-3.07,-3.17,-3.36,-0.16,-0.16,-0.16
127.29,2.85,3.07,2.85,3.07,-3.07,-3.17,-3.36,-0.21,-0.21,-0.21
128.57,2.80,3.07,2.80,3.07,-3.07,-3.17,-3.37,-0.27,-0.27,-0.27
129.85,2.75,3.07,2.75,3.07,-3.07,-3.18,-3.37,-0.32,-0.32,-0.32
131.15,2.70,3.07,2.70,3.07,-3.07,-3.18,-3.37,-0.38,-0.38,-0.38
132.46,2.64,3.08,2.64,3.08,-3.08,-3.18,-3.37,-0.44,-0.44,-0.44
133.79,2.59,3.08,2.59,3.08,-3.08,-3.19,-3.37,-0.49,-0.49,-0.49
135.12,2.54,3.09,2.54,3.09,-3.09,-3.19,-3.37,-0.55,-0.55,-0.55
136.48,2.49,3.09,2.49,3.09,-3.09,-3.19,-3.36,-0.60,-0.60,-0.60
137.84,2.44,3.10,2.44,3.10,-3.10,-3.20,-3.36,-0.66,-0.66,-0.66
139.22,2.39,3.10,2.39,3.10,-3.10,-3.20,-3.35,-0.71,-0.71,-0.71
140.61,2.34,3.10,2.34,3.10,-3.11,-3.20,-3.35,-0.77,-0.77,-0.77
142.02,2.29,3.11,2.29,3.11,-3.11,-3.21,-3.34,-0.82,-0.82,-0.82
143.44,2.24,3.12,2.24,3.12,-3.12,-3.21,-3.34,-0.88,-0.88,-0.88
144.87,2.20,3.13,2.20,3.13,-3.13,-3.21,-3.33,-0.93,-0.93,-0.93
146.32,2.15,3.14,2.15,3.13,-3.13,-3.22,-3.33,-0.98,-0.98,-0.98
147.78,2.11,3.14,2.11,3.14,-3.14,-3.22,-3.33,-1.04,-1.04,-1.04
149.26,2.06,3.15,2.06,3.15,-3.15,-3.23,-3.33,-1.09,-1.09,-1.09
150.75,2.02,3.17,2.02,3.17,-3.17,-3.24,-3.32,-1.14,-1.14,-1.14
152.26,1.98,3.18,1.98,3.18,-3.18,-3.24,-3.33,-1.20,-1.20,-1.19
153.78,1.94,3.19,1.94,3.19,-3.19,-3.25,-3.33,-1.25,-1.25,-1.25
155.32,1.91,3.21,1.91,3.21,-3.21,-3.26,-3.33,-1.30,-1.30,-1.30
156.88,1.87,3.22,1.87,3.22,-3.22,-3.27,-3.34,-1.35,-1.35,-1.35
158.44,1.84,3.24,1.84,3.24,-3.24,-3.28,-3.34,-1.40,-1.40,-1.40
160.03,1.80,3.26,1.80,3.26,-3.26,-3.29,-3.35,-1.46,-1.46,-1.46
161.63,1.77,3.28,1.77,3.28,-3.28,-3.31,-3.36,-1.51,-1.51,-1.51
163.24,1.74,3.30,1.74,3.30,-3.30,-3.32,-3.38,-1.56,-1.56,-1.56
164.88,1.70,3.31,1.70,3.32,-3.31,-3.33,-3.39,-1.61,-1.61,-1.61
166.53,1.67,3.34,1.67,3.34,-3.34,-3.35,-3.41,-1.66,-1.66,-1.66
168.19,1.64,3.36,1.64,3.36,-3.36,-3.37,-3.43,-1.71,-1.71,-1.71
169.87,1.62,3.38,1.62,3.38,-3.38,-3.38,-3.46,-1.76,-1.76,-1.76
171.57,1.59,3.40,1.59,3.40,-3.40,-3.40,-3.48,-1.81,-1.81,-1.81
173.29,1.56,3.43,1.56,3.43,-3.43,-3.42,-3.51,-1.86,-1.86,-1.86
175.02,1.54,3.45,1.54,3.45,-3.45,-3.44,-3.54,-1.91,-1.91,-1.91
176.77,1.52,3.48,1.52,3.48,-3.48,-3.47,-3.58,-1.96,-1.96,-1.96
178.54,1.50,3.51,1.50,3.51,-3.51,-3.49,-3.61,-2.01,-2.01,-2.01
180.32,1.48,3.54,1.48,3.54,-3.54,-3.51,-3.65,-2.06,-2.06,-2.06
182.13,1.46,3.57,1.46,3.57,-3.57,-3.54,-3.70,-2.11,-2.11,-2.11
183.95,1.44,3.60,1.44,3.60,-3.60,-3.57,-3.74,-2.16,-2.16,-2.16
185.79,1.42,3.63,1.42,3.63,-3.63,-3.60,-3.79,-2.21,-2.21,-2.21
187.65,1.41,3.66,1.41,3.66,-3.66,-3.63,-3.84,-2.26,-2.26,-2.25
189.52,1.40,3.70,1.40,3.70,-3.70,-3.66,-3.89,-2.30,-2.30,-2.30
191.42,1.39,3.73,1.39,3.73,-3.74,-3.70,-3.94,-2.35,-2.35,-2.35
193.33,1.38,3.78,1.38,3.78,-3.78,-3.73,-4.00,-2.40,-2.40,-2.39
195.27,1.38,3.82,1.38,3.82,-3.82,-3.77,-4.06,-2.44,-2.44,-2.44
197.22,1.38,3.87,1.38,3.87,-3.87,-3.81,-4.12,-2.49,-2.49,-2.49
199.19,1.38,3.92,1.38,3.92,-3.92,-3.85,-4.18,-2.53,-2.53,-2.53
201.18,1.39,3.97,1.39,3.97,-3.97,-3.89,-4.25,-2.58,-2.58,-2.58
203.19,1.40,4.02,1.40,4.02,-4.02,-3.93,-4.31,-2.62,-2.62,-2.62
205.23,1.41,4.07,1.41,4.07,-4.07,-3.98,-4.38,-2.66,-2.66,-2.66
207.28,1.43,4.13,1.43,4.13,-4.13,-4.03,-4.45,-2.70,-2.70,-2.70
209.35,1.44,4.18,1.44,4.18,-4.18,-4.08,-4.52,-2.74,-2.74,-2.74
211.44,1.46,4.23,1.46,4.23,-4.23,-4.13,-4.58,-2.78,-2.78,-2.78
213.56,1.47,4.29,1.47,4.29,-4.29,-4.18,-4.65,-2.82,-2.82,-2.81
215.69,1.49,4.34,1.49,4.34,-4.34,-4.23,-4.72,-2.85,-2.85,-2.85
217.85,1.51,4.40,1.51,4.40,-4.40,-4.29,-4.78,-2.89,-2.89,-2.89
220.03,1.52,4.45,1.52,4.45,-4.45,-4.34,-4.85,-2.92,-2.92,-2.93
222.23,1.54,4.50,1.54,4.50,-4.50,-4.40,-4.91,-2.96,-2.96,-2.96
224.45,1.55,4.55,1.55,4.55,-4.55,-4.46,-4.97,-2.99,-2.99,-3.00
226.70,1.56,4.60,1.56,4.59,-4.59,-4.52,-5.03,-3.03,-3.03,-3.03
228.96,1.58,4.64,1.58,4.64,-4.64,-4.58,-5.09,-3.06,-3.06,-3.06
231.25,1.59,4.68,1.59,4.68,-4.69,-4.64,-5.14,-3.10,-3.10,-3.09
233.57,1.60,4.73,1.60,4.73,-4.73,-4.71,-5.18,-3.13,-3.13,-3.12
235.90,1.62,4.77,1.62,4.77,-4.78,-4.77,-5.23,-3.16,-3.16,-3.15
238.26,1.64,4.82,1.64,4.82,-4.83,-4.83,-5.26,-3.18,-3.19,-3.18
240.64,1.66,4.87,1.66,4.87,-4.87,-4.89,-5.29,-3.21,-3.21,-3.21
243.05,1.69,4.92,1.69,4.92,-4.92,-4.95,-5.32,-3.24,-3.24,-3.23
245.48,1.71,4.97,1.71,4.97,-4.97,-5.01,-5.34,-3.26,-3.26,-3.26
247.93,1.74,5.02,1.74,5.02,-5.02,-5.06,-5.36,-3.28,-3.28,-3.28
250.41,1.76,5.07,1.76,5.07,-5.06,-5.11,-5.37,-3.30,-3.30,-3.31
252.92,1.78,5.11,1.78,5.11,-5.10,-5.16,-5.37,-3.33,-3.33,-3.33
255.45,1.80,5.14,1.80,5.14,-5.14,-5.21,-5.37,-3.35,-3.35,-3.35
258.00,1.81,5.18,1.81,5.18,-5.17,-5.25,-5.36,-3.37,-3.37,-3.37
260.58,1.81,5.20,1.81,5.20,-5.20,-5.29,-5.34,-3.39,-3.39,-3.39
263.19,1.82,5.22,1.82,5.22,-5.22,-5.33,-5.32,-3.41,-3.41,-3.41
265.82,1.82,5.24,1.82,5.24,-5.24,-5.36,-5.30,-3.42,-3.42,-3.42
268.48,1.81,5.25,1.81,5.25,-5.25,-5.38,-5.27,-3.44,-3.44,-3.44
271.16,1.81,5.26,1.81,5.26,-5.26,-5.40,-5.24,-3.45,-3.45,-3.46
273.87,1.80,5.26,1.80,5.26,-5.26,-5.42,-5.20,-3.47,-3.47,-3.47
276.61,1.78,5.26,1.78,5.26,-5.27,-5.42,-5.16,-3.48,-3.48,-3.48
279.38,1.77,5.26,1.77,5.26,-5.27,-5.43,-5.11,-3.49,-3.49,-3.49
282.17,1.76,5.26,1.76,5.26,-5.26,-5.43,-5.07,-3.51,-3.51,-3.50
284.99,1.74,5.26,1.74,5.26,-5.26,-5.42,-5.02,-3.52,-3.52,-3.52
287.84,1.73,5.26,1.73,5.26,-5.25,-5.41,-4.97,-3.52,-3.52,-3.53
290.72,1.71,5.25,1.71,5.25,-5.24,-5.40,-4.92,-3.53,-3.53,-3.54
293.63,1.70,5.24,1.70,5.24,-5.24,-5.38,-4.87,-3.54,-3.54,-3.54
296.57,1.69,5.23,1.69,5.23,-5.23,-5.36,-4.82,-3.54,-3.54,-3.54
299.53,1.67,5.21,1.67,5.21,-5.22,-5.34,-4.76,-3.55,-3.55,-3.54
302.53,1.66,5.20,1.66,5.21,-5.21,-5.31,-4.71,-3.55,-3.55,-3.54
305.55,1.65,5.20,1.65,5.20,-5.21,-5.28,-4.66,-3.56,-3.56,-3.55
308.61,1.63,5.20,1.63,5.20,-5.20,-5.25,-4.62,-3.57,-3.57,-3.57
311.69,1.62,5.20,1.62,5.19,-5.19,-5.22,-4.57,-3.58,-3.58,-3.58
314.81,1.60,5.19,1.60,5.19,-5.19,-5.19,-4.52,-3.59,-3.58,-3.59
317.96,1.59,5.18,1.59,5.18,-5.18,-5.16,-4.48,-3.59,-3.59,-3.59
321.14,1.58,5.18,1.58,5.18,-5.18,-5.13,-4.44,-3.60,-3.60,-3.60
324.35,1.56,5.17,1.56,5.17,-5.17,-5.09,-4.40,-3.60,-3.60,-3.60
327.59,1.55,5.15,1.55,5.15,-5.15,-5.06,-4.37,-3.60,-3.60,-3.60
330.87,1.54,5.14,1.54,5.14,-5.13,-5.03,-4.33,-3.60,-3.60,-3.60
334.18,1.53,5.12,1.53,5.12,-5.11,-5.00,-4.30,-3.59,-3.59,-3.60
337.52,1.51,5.10,1.51,5.10,-5.09,-4.97,-4.28,-3.58,-3.58,-3.59
340.90,1.50,5.07,1.50,5.07,-5.07,-4.94,-4.25,-3.57,-3.57,-3.57
344.30,1.48,5.04,1.48,5.04,-5.05,-4.91,-4.23,-3.57,-3.57,-3.56
347.75,1.46,5.02,1.46,5.02,-5.02,-4.89,-4.21,-3.56,-3.56,-3.55
351.23,1.45,5.00,1.45,5.00,-5.00,-4.86,-4.20,-3.55,-3.55,-3.55
354.74,1.44,4.98,1.44,4.98,-4.98,-4.83,-4.19,-3.55,-3.55,-3.54
358.28,1.42,4.96,1.42,4.96,-4.97,-4.81,-4.18,-3.54,-3.54,-3.54
361.87,1.41,4.95,1.41,4.95,-4.95,-4.79,-4.18,-3.54,-3.54,-3.54
365.49,1.39,4.94,1.39,4.94,-4.93,-4.77,-4.18,-3.54,-3.54,-3.54
369.14,1.38,4.92,1.38,4.92,-4.91,-4.74,-4.18,-3.53,-3.53,-3.54
372.83,1.36,4.90,1.36,4.90,-4.89,-4.72,-4.18,-3.53,-3.53,-3.53
376.56,1.35,4.87,1.35,4.87,-4.87,-4.70,-4.19,-3.52,-3.52,-3.53
380.33,1.33,4.84,1.33,4.84,-4.85,-4.69,-4.20,-3.52,-3.52,-3.51
384.13,1.31,4.81,1.31,4.81,-4.82,-4.67,-4.21,-3.51,-3.51,-3.50
387.97,1.30,4.79,1.30,4.79,-4.79,-4.65,-4.23,-3.50,-3.50,-3.49
391.85,1.28,4.76,1.28,4.76,-4.77,-4.63,-4.25,-3.49,-3.49,-3.49
395.77,1.26,4.74,1.26,4.74,-4.74,-4.61,-4.27,-3.48,-3.48,-3.48
399.73,1.24,4.72,1.24,4.71,-4.71,-4.60,-4.29,-3.47,-3.47,-3.47
403.72,1.23,4.68,1.23,4.68,-4.68,-4.58,-4.32,-3.45,-3.45,-3.46
407.76,1.21,4.65,1.21,4.65,-4.65,-4.56,-4.34,-3.44,-3.44,-3.44
411.84,1.19,4.62,1.19,4.62,-4.62,-4.54,-4.37,-3.43,-3.43,-3.43
415.96,1.17,4.59,1.17,4.59,-4.59,-4.52,-4.40,-3.42,-3.42,-3.42
420.12,1.15,4.56,1.15,4.56,-4.56,-4.51,-4.43,-3.41,-3.41,-3.41
424.32,1.12,4.53,1.12,4.53,-4.53,-4.49,-4.46,-3.40,-3.40,-3.40
428.56,1.10,4.50,1.10,4.50,-4.49,-4.47,-4.49,-3.39,-3.39,-3.39
432.85,1.08,4.46,1.08,4.46,-4.46,-4.45,-4.52,-3.38,-3.38,-3.38
437.18,1.06,4.43,1.06,4.43,-4.43,-4.42,-4.54,-3.37,-3.37,-3.37
441.55,1.04,4.39,1.04,4.39,-4.39,-4.40,-4.57,-3.35,-3.35,-3.35
445.96,1.02,4.36,1.02,4.36,-4.36,-4.38,-4.60,-3.34,-3.34,-3.34
450.42,1.00,4.32,1.00,4.32,-4.32,-4.35,-4.62,-3.32,-3.32,-3.32
454.93,0.98,4.28,0.98,4.28,-4.28,-4.33,-4.64,-3.30,-3.31,-3.30
459.48,0.95,4.24,0.95,4.24,-4.24,-4.30,-4.66,-3.29,-3.29,-3.29
464.07,0.93,4.20,0.93,4.20,-4.21,-4.27,-4.67,-3.27,-3.27,-3.27
468.71,0.91,4.17,0.91,4.17,-4.17,-4.24,-4.68,-3.26,-3.26,-3.26
473.40,0.89,4.13,0.89,4.13,-4.13,-4.21,-4.69,-3.24,-3.24,-3.24
478.13,0.86,4.09,0.86,4.09,-4.09,-4.18,-4.69,-3.23,-3.23,-3.23
482.91,0.84,4.05,0.84,4.05,-4.05,-4.15,-4.68,-3.21,-3.21,-3.21
487.74,0.81,4.01,0.81,4.01,-4.01,-4.11,-4.67,-3.19,-3.19,-3.19
492.62,0.79,3.96,0.79,3.96,-3.96,-4.07,-4.66,-3.17,-3.17,-3.17
497.55,0.76,3.92,0.77,3.92,-3.92,-4.04,-4.64,-3.16,-3.16,-3.16
