frequency,raw,error,smoothed,error_smoothed,equalization,parametric_eq,fixed_band_eq,equalized_raw,equalized_smoothed,target
20.00,7.42,-2.01,7.42,-2.01,1.97,1.96,0.65,9.40,9.40,9.44
20.20,7.44,-1.94,7.44,-1.94,1.94,1.96,0.67,9.38,9.38,9.39
20.40,7.46,-1.88,7.46,-1.89,1.91,1.96,0.69,9.37,9.37,9.34
20.61,7.48,-1.86,7.48,-1.86,1.88,1.94,0.71,9.36,9.36,9.34
20.81,7.49,-1.84,7.49,-1.84,1.86,1.92,0.74,9.35,9.35,9.34
21.02,7.51,-1.83,7.51,-1.83,1.84,1.89,0.76,9.34,9.34,9.34
21.23,7.52,-1.82,7.52,-1.82,1.81,1.87,0.78,9.33,9.33,9.34
21.44,7.53,-1.80,7.53,-1.80,1.80,1.84,0.81,9.33,9.33,9.34
21.66,7.55,-1.79,7.55,-1.79,1.78,1.82,0.83,9.33,9.33,9.34
21.87,7.56,-1.78,7.56,-1.78,1.77,1.80,0.86,9.33,9.33,9.34
22.09,7.57,-1.76,7.57,-1.76,1.76,1.78,0.88,9.34,9.34,9.34
22.31,7.59,-1.75,7.59,-1.75,1.75,1.76,0.91,9.34,9.34,9.34
22.54,7.60,-1.73,7.60,-1.73,1.73,1.75,0.94,9.34,9.34,9.34
22.76,7.62,-1.72,7.62,-1.72,1.72,1.74,0.97,9.34,9.34,9.34
22.99,7.63,-1.71,7.63,-1.71,1.71,1.72,0.99,9.34,9.34,9.34
23.22,7.64,-1.70,7.64,-1.70,1.70,1.71,1.02,9.34,9.34,9.34
23.45,7.65,-1.69,7.65,-1.69,1.68,1.70,1.05,9.33,9.33,9.34
23.69,7.66,-1.68,7.66,-1.68,1.67,1.69,1.09,9.33,9.33,9.34
23.92,7.66,-1.67,7.66,-1.67,1.67,1.68,1.12,9.33,9.33,9.34
24.16,7.67,-1.67,7.67,-1.67,1.67,1.66,1.15,9.34,9.34,9.34
24.40,7.68,-1.66,7.68,-1.65,1.67,1.65,1.18,9.34,9.35,9.34
24.65,7.68,-1.65,7.68,-1.65,1.67,1.64,1.21,9.36,9.36,9.34
24.89,7.69,-1.64,7.69,-1.67,1.68,1.63,1.25,9.37,9.37,9.34
25.14,7.70,-1.70,7.70,-1.69,1.69,1.62,1.28,9.39,9.39,9.40
25.39,7.71,-1.73,7.71,-1.71,1.70,1.60,1.31,9.41,9.41,9.44
25.65,7.72,-1.72,7.72,-1.72,1.70,1.59,1.35,9.42,9.42,9.44
25.91,7.73,-1.71,7.73,-1.71,1.70,1.58,1.38,9.43,9.43,9.44
26.16,7.74,-1.70,7.74,-1.70,1.70,1.56,1.41,9.44,9.44,9.44
26.43,7.75,-1.69,7.75,-1.69,1.68,1.55,1.44,9.43,9.43,9.44
26.69,7.76,-1.68,7.76,-1.66,1.65,1.53,1.48,9.41,9.41,9.44
26.96,7.77,-1.63,7.77,-1.63,1.62,1.52,1.51,9.39,9.39,9.40
27.23,7.78,-1.56,7.78,-1.58,1.58,1.50,1.54,9.36,9.36,9.34
27.50,7.78,-1.55,7.78,-1.53,1.54,1.48,1.56,9.33,9.33,9.34
27.77,7.79,-1.49,7.79,-1.49,1.50,1.46,1.59,9.29,9.29,9.28
28.05,7.80,-1.43,7.80,-1.45,1.45,1.45,1.62,9.25,9.25,9.24
28.33,7.81,-1.43,7.81,-1.40,1.41,1.43,1.64,9.22,9.22,9.24
28.62,7.82,-1.37,7.82,-1.37,1.36,1.41,1.66,9.18,9.18,9.18
28.90,7.82,-1.32,7.82,-1.33,1.32,1.39,1.68,9.14,9.14,9.14
29.19,7.82,-1.31,7.82,-1.29,1.29,1.37,1.70,9.12,9.12,9.14
29.48,7.82,-1.24,7.82,-1.25,1.27,1.35,1.71,9.09,9.09,9.07
29.78,7.82,-1.22,7.82,-1.23,1.25,1.33,1.73,9.07,9.07,9.04
30.08,7.82,-1.22,7.82,-1.21,1.24,1.31,1.74,9.05,9.05,9.04
30.38,7.81,-1.22,7.81,-1.22,1.23,1.28,1.74,9.04,9.04,9.04
30.68,7.81,-1.23,7.81,-1.23,1.22,1.26,1.75,9.03,9.03,9.04
30.99,7.80,-1.23,7.81,-1.23,1.21,1.24,1.75,9.01,9.01,9.04
31.30,7.80,-1.23,7.80,-1.21,1.20,1.22,1.75,9.00,9.00,9.04
31.61,7.80,-1.18,7.80,-1.19,1.18,1.20,1.74,8.98,8.98,8.98
31.93,7.80,-1.14,7.80,-1.16,1.16,1.17,1.73,8.95,8.95,8.94
32.24,7.79,-1.14,7.79,-1.12,1.13,1.15,1.72,8.92,8.92,8.94
32.57,7.79,-1.09,7.79,-1.10,1.09,1.13,1.71,8.88,8.88,8.88
32.89,7.79,-1.05,7.79,-1.06,1.06,1.11,1.69,8.84,8.84,8.84
33.22,7.79,-1.05,7.79,-1.02,1.03,1.08,1.67,8.81,8.81,8.83
33.55,7.79,-0.98,7.79,-0.99,1.00,1.06,1.65,8.79,8.79,8.77
33.89,7.78,-0.95,7.78,-0.96,0.98,1.04,1.62,8.77,8.77,8.74
34.23,7.78,-0.95,7.78,-0.95,0.97,1.01,1.59,8.75,8.75,8.74
34.57,7.78,-0.95,7.78,-0.95,0.96,0.99,1.56,8.74,8.74,8.74
34.92,7.78,-0.96,7.78,-0.96,0.95,0.97,1.53,8.73,8.73,8.74
35.27,7.77,-0.96,7.77,-0.96,0.94,0.94,1.50,8.71,8.71,8.74
35.62,7.77,-0.97,7.77,-0.95,0.93,0.92,1.46,8.70,8.70,8.74
35.97,7.76,-0.92,7.76,-0.92,0.92,0.90,1.43,8.68,8.68,8.68
36.33,7.75,-0.88,7.75,-0.90,0.91,0.88,1.39,8.67,8.67,8.64
36.70,7.75,-0.89,7.75,-0.89,0.90,0.85,1.35,8.65,8.65,8.64
37.06,7.74,-0.90,7.74,-0.89,0.89,0.83,1.31,8.63,8.63,8.64
37.43,7.73,-0.89,7.73,-0.87,0.88,0.81,1.27,8.61,8.61,8.61
37.81,7.72,-0.83,7.72,-0.85,0.86,0.79,1.23,8.58,8.58,8.55
38.19,7.71,-0.83,7.71,-0.84,0.85,0.76,1.19,8.56,8.56,8.54
38.57,7.70,-0.84,7.70,-0.84,0.83,0.74,1.15,8.53,8.53,8.54
38.95,7.69,-0.85,7.69,-0.83,0.80,0.72,1.11,8.49,8.49,8.54
39.34,7.68,-0.79,7.68,-0.79,0.77,0.70,1.07,8.44,8.45,8.47
39.74,7.67,-0.73,7.67,-0.74,0.72,0.68,1.02,8.39,8.39,8.40
40.14,7.66,-0.67,7.66,-0.67,0.67,0.65,0.98,8.32,8.32,8.33
40.54,7.65,-0.62,7.65,-0.62,0.61,0.63,0.94,8.25,8.25,8.26
40.94,7.63,-0.56,7.63,-0.56,0.55,0.61,0.90,8.18,8.18,8.20
41.35,7.62,-0.51,7.62,-0.51,0.51,0.59,0.86,8.13,8.13,8.13
41.76,7.60,-0.46,7.60,-0.44,0.48,0.57,0.82,8.08,8.08,8.06
42.18,7.59,-0.40,7.59,-0.41,0.48,0.55,0.78,8.06,8.06,7.99
42.60,7.57,-0.38,7.57,-0.41,0.48,0.53,0.74,8.05,8.05,7.95
43.03,7.56,-0.47,7.56,-0.47,0.50,0.51,0.70,8.06,8.06,8.02
43.46,7.54,-0.55,7.54,-0.54,0.51,0.49,0.66,8.06,8.06,8.10
43.90,7.53,-0.60,7.53,-0.60,0.53,0.47,0.62,8.06,8.06,8.14
44.33,7.52,-0.62,7.52,-0.60,0.53,0.45,0.59,8.05,8.05,8.14
44.78,7.51,-0.56,7.51,-0.57,0.52,0.43,0.55,8.03,8.03,8.07
45.23,7.50,-0.50,7.50,-0.51,0.49,0.41,0.51,7.99,7.99,8.00
45.68,7.49,-0.45,7.49,-0.44,0.45,0.39,0.48,7.95,7.95,7.94
46.13,7.48,-0.38,7.48,-0.38,0.41,0.37,0.44,7.90,7.90,7.86
46.60,7.47,-0.32,7.47,-0.32,0.37,0.35,0.40,7.84,7.84,7.79
47.06,7.46,-0.28,7.46,-0.29,0.34,0.33,0.37,7.80,7.80,7.74
47.53,7.44,-0.30,7.44,-0.29,0.32,0.31,0.33,7.76,7.76,7.74
48.01,7.42,-0.32,7.42,-0.32,0.31,0.29,0.30,7.73,7.73,7.74
48.49,7.40,-0.34,7.40,-0.34,0.31,0.27,0.27,7.70,7.71,7.74
48.97,7.38,-0.36,7.38,-0.34,0.31,0.26,0.23,7.69,7.69,7.74
49.46,7.36,-0.32,7.36,-0.33,0.31,0.24,0.20,7.67,7.67,7.68
49.96,7.35,-0.29,7.35,-0.31,0.31,0.22,0.17,7.66,7.66,7.64
50.46,7.33,-0.31,7.33,-0.28,0.31,0.20,0.14,7.64,7.64,7.64
50.96,7.31,-0.27,7.31,-0.28,0.29,0.18,0.11,7.61,7.60,7.58
51.47,7.29,-0.25,7.29,-0.27,0.27,0.17,0.08,7.56,7.56,7.54
51.99,7.26,-0.27,7.26,-0.25,0.25,0.15,0.05,7.51,7.51,7.54
52.51,7.24,-0.23,7.24,-0.23,0.21,0.13,0.02,7.45,7.45,7.47
53.03,7.22,-0.19,7.22,-0.20,0.16,0.11,-0.01,7.38,7.38,7.40
53.56,7.19,-0.13,7.19,-0.14,0.11,0.10,-0.04,7.30,7.30,7.33
54.10,7.17,-0.09,7.17,-0.07,0.05,0.08,-0.07,7.23,7.23,7.26
54.64,7.15,-0.00,7.15,0.01,0.00,0.06,-0.09,7.15,7.15,7.15
55.18,7.12,0.10,7.12,0.08,-0.04,0.05,-0.12,7.08,7.08,7.03
55.74,7.10,0.15,7.10,0.13,-0.07,0.03,-0.14,7.03,7.03,6.96
56.29,7.08,0.14,7.08,0.15,-0.10,0.01,-0.17,6.98,6.98,6.94
56.86,7.06,0.12,7.06,0.13,-0.12,-0.00,-0.19,6.94,6.94,6.94
57.42,7.04,0.10,7.04,0.10,-0.13,-0.02,-0.21,6.91,6.91,6.94
58.00,7.02,0.08,7.02,0.09,-0.13,-0.04,-0.23,6.89,6.89,6.94
58.58,6.99,0.08,6.99,0.10,-0.13,-0.05,-0.25,6.87,6.87,6.91
59.16,6.97,0.13,6.97,0.13,-0.14,-0.07,-0.27,6.84,6.84,6.84
59.76,6.95,0.17,6.95,0.15,-0.15,-0.08,-0.29,6.80,6.80,6.77
60.35,6.92,0.19,6.92,0.17,-0.17,-0.10,-0.31,6.75,6.75,6.74
60.96,6.90,0.16,6.90,0.19,-0.19,-0.11,-0.32,6.71,6.71,6.74
61.57,6.87,0.21,6.87,0.21,-0.21,-0.13,-0.34,6.66,6.66,6.67
62.18,6.85,0.26,6.85,0.25,-0.23,-0.15,-0.35,6.62,6.62,6.59
62.80,6.82,0.29,6.82,0.27,-0.24,-0.16,-0.37,6.58,6.58,6.54
63.43,6.80,0.26,6.80,0.26,-0.26,-0.18,-0.38,6.54,6.54,6.54
64.07,6.77,0.24,6.77,0.24,-0.27,-0.19,-0.39,6.51,6.51,6.54
64.71,6.75,0.22,6.75,0.24,-0.27,-0.21,-0.40,6.48,6.48,6.52
65.35,6.72,0.26,6.72,0.26,-0.27,-0.22,-0.41,6.45,6.45,6.45
66.01,6.69,0.30,6.69,0.29,-0.27,-0.24,-0.41,6.42,6.42,6.39
66.67,6.65,0.32,6.65,0.30,-0.27,-0.25,-0.42,6.39,6.39,6.34
67.33,6.62,0.29,6.62,0.29,-0.27,-0.27,-0.43,6.35,6.35,6.34
68.01,6.59,0.25,6.59,0.27,-0.29,-0.28,-0.43,6.30,6.30,6.34
68.69,6.56,0.25,6.56,0.26,-0.30,-0.30,-0.44,6.26,6.26,6.31
69.37,6.53,0.29,6.53,0.29,-0.31,-0.31,-0.44,6.22,6.22,6.24
70.07,6.50,0.33,6.50,0.33,-0.32,-0.32,-0.44,6.18,6.18,6.17
70.77,6.47,0.37,6.47,0.37,-0.34,-0.34,-0.44,6.13,6.13,6.10
71.48,6.44,0.40,6.44,0.38,-0.36,-0.35,-0.45,6.08,6.08,6.04
72.19,6.41,0.37,6.41,0.39,-0.39,-0.37,-0.45,6.02,6.02,6.04
72.91,6.38,0.38,6.38,0.40,-0.42,-0.38,-0.45,5.96,5.96,5.99
73.64,6.35,0.42,6.35,0.42,-0.44,-0.39,-0.45,5.91,5.91,5.92
74.38,6.31,0.46,6.31,0.46,-0.45,-0.41,-0.45,5.86,5.86,5.86
75.12,6.28,0.49,6.28,0.48,-0.46,-0.42,-0.45,5.81,5.81,5.79
75.87,6.24,0.51,6.24,0.49,-0.47,-0.43,-0.45,5.77,5.77,5.74
76.63,6.21,0.47,6.21,0.50,-0.48,-0.45,-0.46,5.73,5.73,5.74
77.40,6.17,0.49,6.18,0.49,-0.48,-0.46,-0.46,5.69,5.69,5.68
78.17,6.14,0.50,6.14,0.48,-0.49,-0.47,-0.46,5.65,5.65,5.64
78.95,6.11,0.47,6.11,0.49,-0.50,-0.49,-0.46,5.60,5.60,5.64
79.74,6.07,0.49,6.07,0.49,-0.53,-0.50,-0.46,5.54,5.54,5.58
80.54,6.03,0.52,6.03,0.52,-0.56,-0.51,-0.46,5.47,5.47,5.51
81.35,5.99,0.55,5.99,0.57,-0.60,-0.52,-0.46,5.39,5.39,5.44
82.16,5.95,0.64,5.95,0.63,-0.64,-0.53,-0.47,5.31,5.31,5.31
82.98,5.91,0.70,5.91,0.69,-0.67,-0.55,-0.47,5.24,5.24,5.20
83.81,5.87,0.73,5.87,0.74,-0.70,-0.56,-0.47,5.17,5.17,5.14
84.65,5.83,0.77,5.83,0.76,-0.72,-0.57,-0.47,5.12,5.12,5.07
85.50,5.80,0.76,5.80,0.76,-0.73,-0.58,-0.48,5.07,5.07,5.04
86.35,5.77,0.73,5.77,0.73,-0.72,-0.59,-0.48,5.04,5.04,5.04
87.22,5.73,0.69,5.73,0.69,-0.71,-0.60,-0.49,5.02,5.02,5.04
88.09,5.69,0.66,5.69,0.66,-0.69,-0.61,-0.49,5.00,5.00,5.04
88.97,5.65,0.63,5.65,0.65,-0.67,-0.62,-0.50,4.97,4.97,5.02
89.86,5.60,0.65,5.60,0.65,-0.66,-0.63,-0.50,4.94,4.94,4.95
90.76,5.55,0.68,5.55,0.66,-0.65,-0.64,-0.51,4.90,4.90,4.88
91.66,5.51,0.67,5.51,0.66,-0.66,-0.65,-0.51,4.86,4.86,4.84
92.58,5.47,0.63,5.47,0.66,-0.67,-0.66,-0.52,4.80,4.80,4.84
93.51,5.43,0.66,5.43,0.66,-0.68,-0.67,-0.53,4.75,4.75,4.77
94.44,5.39,0.68,5.39,0.68,-0.69,-0.68,-0.54,4.70,4.70,4.70
95.39,5.35,0.71,5.35,0.71,-0.70,-0.69,-0.54,4.65,4.65,4.64
96.34,5.30,0.73,5.30,0.72,-0.70,-0.70,-0.55,4.60,4.60,4.57
97.30,5.26,0.72,5.26,0.71,-0.70,-0.70,-0.56,4.55,4.55,4.54
98.28,5.21,0.68,5.21,0.70,-0.70,-0.71,-0.57,4.51,4.51,4.53
99.26,5.16,0.70,5.16,0.68,-0.69,-0.72,-0.58,4.47,4.47,4.46
100.25,5.12,0.68,5.12,0.67,-0.68,-0.73,-0.59,4.44,4.44,4.44
101.25,5.07,0.65,5.07,0.67,-0.66,-0.73,-0.60,4.41,4.41,4.42
102.27,5.03,0.66,5.03,0.65,-0.65,-0.74,-0.61,4.38,4.38,4.37
103.29,4.99,0.65,4.99,0.64,-0.63,-0.75,-0.62,4.36,4.36,4.34
104.32,4.95,0.61,4.95,0.61,-0.62,-0.75,-0.63,4.33,4.33,4.34
105.37,4.91,0.57,4.91,0.59,-0.61,-0.76,-0.64,4.30,4.30,4.34
106.42,4.87,0.57,4.87,0.59,-0.60,-0.76,-0.65,4.27,4.27,4.29
107.48,4.83,0.61,4.82,0.60,-0.59,-0.77,-0.66,4.23,4.23,4.21
108.56,4.78,0.62,4.78,0.60,-0.59,-0.77,-0.67,4.18,4.18,4.16
109.64,4.72,0.59,4.72,0.59,-0.59,-0.78,-0.68,4.13,4.13,4.14
110.74,4.67,0.57,4.67,0.58,-0.60,-0.78,-0.69,4.07,4.07,4.10
111.85,4.62,0.57,4.62,0.59,-0.60,-0.78,-0.69,4.01,4.02,4.04
112.97,4.56,0.62,4.56,0.61,-0.60,-0.79,-0.70,3.96,3.96,3.94
114.10,4.51,0.63,4.51,0.62,-0.60,-0.79,-0.71,3.91,3.91,3.88
115.24,4.46,0.62,4.46,0.61,-0.59,-0.79,-0.72,3.87,3.87,3.84
116.39,4.41,0.57,4.41,0.60,-0.58,-0.79,-0.73,3.83,3.83,3.84
117.55,4.36,0.58,4.36,0.57,-0.57,-0.80,-0.73,3.79,3.79,3.78
118.73,4.31,0.57,4.31,0.55,-0.56,-0.80,-0.74,3.75,3.75,3.74
119.92,4.26,0.52,4.26,0.55,-0.55,-0.80,-0.74,3.71,3.71,3.74
121.12,4.21,0.53,4.21,0.52,-0.55,-0.80,-0.75,3.66,3.66,3.68
122.33,4.17,0.54,4.17,0.52,-0.56,-0.80,-0.75,3.61,3.61,3.64
123.55,4.14,0.50,4.14,0.56,-0.58,-0.80,-0.75,3.56,3.56,3.64
124.79,4.11,0.64,4.12,0.60,-0.60,-0.80,-0.75,3.51,3.52,3.48
126.03,4.10,0.66,4.10,0.65,-0.63,-0.80,-0.75,3.47,3.47,3.44
127.29,4.09,0.67,4.09,0.70,-0.67,-0.80,-0.75,3.43,3.43,3.42
128.57,4.08,0.73,4.08,0.71,-0.70,-0.79,-0.75,3.38,3.38,3.36
129.85,4.08,0.74,4.08,0.73,-0.73,-0.79,-0.75,3.34,3.34,3.34
131.15,4.07,0.74,4.07,0.76,-0.76,-0.79,-0.75,3.30,3.30,3.33
132.46,4.05,0.79,4.05,0.79,-0.79,-0.79,-0.74,3.26,3.26,3.26
133.79,4.03,0.83,4.03,0.82,-0.83,-0.79,-0.74,3.20,3.20,3.20
135.12,4.00,0.86,4.00,0.84,-0.86,-0.78,-0.73,3.14,3.14,3.14
136.48,3.97,0.83,3.97,0.86,-0.88,-0.78,-0.73,3.08,3.08,3.14
137.84,3.93,0.88,3.93,0.90,-0.91,-0.78,-0.72,3.02,3.02,3.05
139.22,3.89,0.97,3.89,0.94,-0.92,-0.77,-0.72,2.97,2.97,2.93
140.61,3.85,0.99,3.85,0.98,-0.93,-0.77,-0.71,2.92,2.92,2.86
142.02,3.80,0.97,3.81,0.96,-0.93,-0.76,-0.70,2.87,2.87,2.84
143.44,3.76,0.92,3.76,0.93,-0.93,-0.76,-0.69,2.83,2.83,2.84
144.87,3.71,0.88,3.71,0.90,-0.92,-0.75,-0.69,2.79,2.79,2.84
146.32,3.66,0.89,3.66,0.88,-0.90,-0.75,-0.68,2.76,2.76,2.77
147.78,3.61,0.88,3.61,0.87,-0.89,-0.74,-0.67,2.73,2.73,2.74
149.26,3.56,0.84,3.56,0.86,-0.87,-0.74,-0.66,2.69,2.70,2.72
150.75,3.51,0.86,3.51,0.86,-0.86,-0.73,-0.65,2.66,2.66,2.65
152.26,3.46,0.87,3.46,0.86,-0.85,-0.73,-0.64,2.61,2.61,2.59
153.78,3.41,0.87,3.41,0.85,-0.85,-0.72,-0.64,2.56,2.56,2.54
155.32,3.36,0.82,3.36,0.83,-0.84,-0.71,-0.63,2.52,2.52,2.54
156.88,3.31,0.82,3.31,0.84,-0.84,-0.71,-0.62,2.47,2.47,2.49
158.44,3.26,0.84,3.26,0.84,-0.84,-0.70,-0.61,2.42,2.42,2.41
160.03,3.21,0.87,3.21,0.84,-0.83,-0.69,-0.61,2.37,2.37,2.34
161.63,3.16,0.82,3.16,0.83,-0.83,-0.68,-0.60,2.33,2.33,2.34
163.24,3.11,0.78,3.11,0.81,-0.82,-0.68,-0.59,2.29,2.29,2.32
164.88,3.06,0.81,3.06,0.81,-0.81,-0.67,-0.59,2.25,2.25,2.24
166.53,3.00,0.82,3.00,0.81,-0.80,-0.66,-0.58,2.21,2.21,2.19
168.19,2.95,0.82,2.95,0.80,-0.78,-0.65,-0.58,2.17,2.17,2.14
169.87,2.90,0.77,2.90,0.77,-0.76,-0.65,-0.57,2.14,2.14,2.14
171.57,2.85,0.72,2.85,0.74,-0.74,-0.64,-0.57,2.11,2.11,2.14
173.29,2.80,0.71,2.80,0.71,-0.72,-0.63,-0.56,2.08,2.08,2.09
175.02,2.75,0.72,2.75,0.69,-0.70,-0.62,-0.56,2.05,2.05,2.04
176.77,2.70,0.67,2.70,0.69,-0.68,-0.61,-0.56,2.02,2.02,2.04
178.54,2.66,0.67,2.66,0.67,-0.67,-0.61,-0.56,1.98,1.98,1.98
180.32,2.61,0.67,2.61,0.65,-0.67,-0.60,-0.55,1.94,1.94,1.94
182.13,2.57,0.63,2.57,0.65,-0.66,-0.59,-0.55,1.91,1.91,1.94
183.95,2.52,0.63,2.52,0.65,-0.65,-0.58,-0.55,1.87,1.87,1.89
185.79,2.48,0.67,2.48,0.66,-0.65,-0.57,-0.55,1.83,1.83,1.81
187.65,2.44,0.69,2.44,0.68,-0.64,-0.56,-0.55,1.80,1.80,1.75
189.52,2.40,0.66,2.40,0.66,-0.64,-0.55,-0.55,1.76,1.76,1.74
191.42,2.36,0.62,2.36,0.62,-0.64,-0.55,-0.55,1.72,1.72,1.74
193.33,2.31,0.58,2.31,0.60,-0.63,-0.54,-0.55,1.68,1.68,1.74
195.27,2.27,0.60,2.27,0.61,-0.63,-0.53,-0.56,1.64,1.64,1.67
197.22,2.23,0.63,2.23,0.62,-0.62,-0.52,-0.56,1.61,1.61,1.60
199.19,2.19,0.65,2.19,0.63,-0.61,-0.51,-0.56,1.57,1.57,1.54
201.18,2.14,0.60,2.14,0.62,-0.60,-0.50,-0.56,1.54,1.54,1.54
203.19,2.09,0.60,2.09,0.61,-0.59,-0.49,-0.56,1.51,1.51,1.50
205.23,2.05,0.61,2.05,0.59,-0.58,-0.48,-0.57,1.47,1.47,1.44
207.28,2.00,0.56,2.00,0.56,-0.56,-0.47,-0.57,1.44,1.44,1.44
209.35,1.95,0.52,1.95,0.52,-0.55,-0.46,-0.57,1.41,1.41,1.44
211.44,1.90,0.48,1.90,0.50,-0.53,-0.45,-0.57,1.37,1.37,1.42
213.56,1.85,0.50,1.85,0.51,-0.52,-0.45,-0.57,1.34,1.34,1.35
215.69,1.81,0.53,1.81,0.51,-0.51,-0.44,-0.58,1.30,1.30,1.28
217.85,1.76,0.52,1.76,0.51,-0.50,-0.43,-0.58,1.26,1.26,1.24
220.03,1.71,0.48,1.71,0.50,-0.49,-0.42,-0.58,1.23,1.23,1.24
222.23,1.67,0.49,1.67,0.49,-0.47,-0.41,-0.58,1.20,1.20,1.18
224.45,1.63,0.49,1.63,0.47,-0.46,-0.40,-0.58,1.17,1.17,1.14
226.70,1.58,0.45,1.58,0.45,-0.44,-0.39,-0.58,1.15,1.15,1.14
228.96,1.54,0.41,1.54,0.40,-0.41,-0.38,-0.58,1.13,1.13,1.14
231.25,1.50,0.37,1.50,0.37,-0.39,-0.37,-0.58,1.11,1.11,1.14
233.57,1.46,0.33,1.46,0.35,-0.37,-0.36,-0.58,1.09,1.09,1.14
235.90,1.43,0.35,1.42,0.34,-0.35,-0.35,-0.57,1.07,1.07,1.07
238.26,1.38,0.35,1.38,0.34,-0.34,-0.35,-0.57,1.05,1.05,1.04
240.64,1.34,0.32,1.34,0.34,-0.33,-0.34,-0.56,1.02,1.02,1.02
243.05,1.30,0.34,1.30,0.33,-0.32,-0.33,-0.56,0.98,0.98,0.96
245.48,1.26,0.32,1.26,0.32,-0.32,-0.32,-0.55,0.94,0.94,0.94
247.93,1.22,0.30,1.22,0.32,-0.32,-0.31,-0.54,0.90,0.90,0.91
250.41,1.17,0.32,1.17,0.30,-0.31,-0.30,-0.53,0.86,0.86,0.85
252.92,1.13,0.30,1.13,0.30,-0.30,-0.29,-0.52,0.83,0.83,0.84
255.45,1.09,0.27,1.09,0.30,-0.29,-0.28,-0.51,0.80,0.80,0.82
258.00,1.05,0.31,1.05,0.28,-0.27,-0.27,-0.50,0.78,0.78,0.74
260.58,1.01,0.27,1.01,0.26,-0.26,-0.26,-0.48,0.75,0.75,0.74
263.19,0.97,0.23,0.97,0.24,-0.24,-0.25,-0.47,0.73,0.73,0.74
265.82,0.93,0.19,0.93,0.21,-0.22,-0.25,-0.45,0.70,0.70,0.74
268.48,0.88,0.21,0.88,0.20,-0.20,-0.24,-0.43,0.68,0.68,0.67
271.16,0.84,0.21,0.84,0.19,-0.18,-0.23,-0.41,0.66,0.66,0.64
273.87,0.80,0.17,0.80,0.17,-0.17,-0.22,-0.39,0.64,0.64,0.64
276.61,0.76,0.13,0.76,0.14,-0.15,-0.21,-0.37,0.62,0.62,0.64
279.38,0.72,0.12,0.72,0.13,-0.13,-0.20,-0.35,0.59,0.59,0.60
282.17,0.68,0.15,0.68,0.12,-0.12,-0.19,-0.33,0.56,0.56,0.54
284.99,0.64,0.11,0.64,0.10,-0.11,-0.18,-0.31,0.54,0.54,0.54
287.84,0.61,0.07,0.61,0.08,-0.09,-0.17,-0.28,0.51,0.51,0.54
290.72,0.57,0.05,0.57,0.07,-0.08,-0.16,-0.26,0.49,0.49,0.52
293.63,0.53,0.08,0.53,0.06,-0.05,-0.15,-0.24,0.48,0.47,0.45
296.57,0.49,0.06,0.49,0.05,-0.03,-0.14,-0.21,0.46,0.46,0.44
299.53,0.45,0.02,0.45,0.02,-0.01,-0.13,-0.18,0.45,0.45,0.44
302.53,0.42,-0.02,0.42,-0.02,0.02,-0.12,-0.16,0.44,0.44,0.44
305.55,0.38,-0.06,0.38,-0.06,0.05,-0.11,-0.13,0.43,0.43,0.44
308.61,0.34,-0.09,0.34,-0.10,0.08,-0.10,-0.10,0.42,0.42,0.44
311.69,0.31,-0.13,0.31,-0.13,0.11,-0.09,-0.08,0.42,0.42,0.44
314.81,0.27,-0.16,0.27,-0.14,0.15,-0.08,-0.05,0.42,0.42,0.44
317.96,0.24,-0.16,0.24,-0.16,0.18,-0.07,-0.02,0.42,0.42,0.40
321.14,0.20,-0.14,0.20,-0.19,0.21,-0.06,0.01,0.41,0.41,0.34
324.35,0.17,-0.25,0.17,-0.24,0.23,-0.05,0.04,0.40,0.40,0.42
327.59,0.13,-0.31,0.13,-0.28,0.26,-0.04,0.07,0.39,0.39,0.44
330.87,0.09,-0.32,0.09,-0.31,0.29,-0.03,0.09,0.38,0.38,0.42
334.18,0.06,-0.29,0.06,-0.31,0.33,-0.02,0.12,0.39,0.39,0.35
337.52,0.03,-0.31,0.03,-0.32,0.38,-0.01,0.15,0.41,0.41,0.34
340.90,-0.01,-0.34,-0.01,-0.34,0.42,0.01,0.18,0.41,0.41,0.34
344.30,-0.04,-0.38,-0.04,-0.37,0.42,0.02,0.21,0.38,0.38,0.34
347.75,-0.07,-0.41,-0.07,-0.43,0.37,0.03,0.24,0.30,0.30,0.34
351.23,-0.11,-0.44,-0.11,-0.46,0.29,0.04,0.27,0.18,0.18,0.34
354.74,-0.14,-0.48,-0.14,-0.41,0.18,0.06,0.31,0.04,0.04,0.34
358.28,-0.17,-0.24,-0.17,-0.20,0.06,0.07,0.34,-0.11,-0.11,0.07
361.87,-0.20,0.08,-0.20,0.09,-0.05,0.09,0.37,-0.25,-0.25,-0.29
365.49,-0.24,0.44,-0.24,0.35,-0.14,0.10,0.40,-0.38,-0.38,-0.67
369.14,-0.27,0.47,-0.27,0.45,-0.21,0.12,0.43,-0.48,-0.48,-0.73
372.83,-0.30,0.39,-0.30,0.40,-0.24,0.13,0.46,-0.54,-0.54,-0.69
376.56,-0.33,0.22,-0.33,0.24,-0.22,0.15,0.49,-0.55,-0.55,-0.54
380.33,-0.36,0.06,-0.36,0.08,-0.15,0.17,0.53,-0.50,-0.51,-0.42
384.13,-0.39,-0.07,-0.39,-0.07,-0.03,0.18,0.56,-0.41,-0.41,-0.32
387.97,-0.42,-0.19,-0.42,-0.20,0.13,0.20,0.59,-0.29,-0.29,-0.23
391.85,-0.45,-0.34,-0.45,-0.31,0.30,0.22,0.62,-0.15,-0.15,-0.10
395.77,-0.47,-0.41,-0.47,-0.42,0.45,0.25,0.66,-0.02,-0.02,-0.06
399.73,-0.50,-0.50,-0.50,-0.53,0.59,0.27,0.69,0.09,0.09,-0.01
403.72,-0.53,-0.66,-0.53,-0.63,0.69,0.29,0.72,0.16,0.16,0.13
407.76,-0.56,-0.76,-0.56,-0.76,0.75,0.32,0.76,0.19,0.19,0.20
411.84,-0.58,-0.85,-0.58,-0.87,0.77,0.35,0.79,0.19,0.19,0.27
415.96,-0.61,-0.95,-0.61,-0.92,0.76,0.38,0.82,0.15,0.15,0.34
420.12,-0.64,-0.90,-0.64,-0.87,0.73,0.41,0.85,0.09,0.09,0.27
424.32,-0.66,-0.74,-0.66,-0.72,0.68,0.45,0.88,0.02,0.02,0.08
428.56,-0.69,-0.50,-0.69,-0.54,0.63,0.49,0.91,-0.06,-0.06,-0.18
432.85,-0.71,-0.39,-0.71,-0.43,0.59,0.53,0.95,-0.13,-0.13,-0.33
437.18,-0.74,-0.42,-0.74,-0.42,0.56,0.58,0.98,-0.18,-0.18,-0.32
441.55,-0.76,-0.51,-0.76,-0.49,0.55,0.64,1.00,-0.21,-0.21,-0.25
445.96,-0.78,-0.60,-0.78,-0.60,0.59,0.69,1.03,-0.20,-0.20,-0.18
450.42,-0.81,-0.69,-0.81,-0.69,0.65,0.76,1.06,-0.16,-0.16,-0.11
454.93,-0.83,-0.78,-0.83,-0.79,0.74,0.83,1.09,-0.09,-0.09,-0.05
459.48,-0.85,-0.88,-0.85,-0.88,0.84,0.91,1.11,-0.01,-0.01,0.03
464.07,-0.88,-0.97,-0.88,-0.96,0.93,1.00,1.13,0.06,0.06,0.09
468.71,-0.90,-1.04,-0.90,-1.02,1.01,1.09,1.16,0.11,0.11,0.14
473.40,-0.92,-1.06,-0.92,-1.08,1.07,1.18,1.18,0.15,0.15,0.14
478.13,-0.94,-1.14,-0.94,-1.13,1.14,1.26,1.20,0.20,0.20,0.20
482.91,-0.96,-1.20,-0.96,-1.18,1.21,1.33,1.21,0.25,0.25,0.24
487.74,-0.99,-1.22,-0.99,-1.24,1.29,1.39,1.23,0.30,0.30,0.24
492.62,-1.01,-1.31,-1.01,-1.31,1.36,1.43,1.24,0.36,0.36,0.30
497.55,-1.02,-1.40,-1.02,-1.40,1.44,1.44,1.25,0.41,0.41,0.37
502.52,-1.04,-1.49,-1.04,-1.49,1.49,1.43,1.26,0.45,0.45,0.44
507.55,-1.06,-1.58,-1.06,-1.58,1.53,1.41,1.27,0.46,0.46,0.52
512.62,-1.08,-1.62,-1.08,-1.61,1.53,1.38,1.28,0.44,0.45,0.54
517.75,-1.10,-1.61,-1.10,-1.58,1.49,1.34,1.29,0.39,0.39,0.51
522.93,-1.11,-1.48,-1.11,-1.50,1.42,1.31,1.29,0.31,0.31,0.37
528.16,-1.13,-1.36,-1.13,-1.36,1.34,1.28,1.29,0.20,0.20,0.23
533.44,-1.15,-1.23,-1.15,-1.20,1.24,1.25,1.29,0.09,0.09,0.08
538.77,-1.16,-1.05,-1.16,-1.07,1.14,1.24,1.29,-0.02,-0.02,-0.12
544.16,-1.18,-0.96,-1.18,-0.97,1.06,1.23,1.29,-0.12,-0.12,-0.22
