frequency,raw,error,smoothed,error_smoothed,equalization,parametric_eq,fixed_band_eq,equalized_raw,equalized_smoothed,target
20.00,3.80,-7.17,3.81,-7.17,6.00,5.98,2.46,9.80,9.81,10.98
20.20,3.83,-7.16,3.82,-7.16,6.00,5.99,2.53,9.83,9.82,10.99
20.40,3.84,-7.14,3.84,-7.15,6.00,6.00,2.60,9.84,9.84,10.99
20.61,3.86,-7.12,3.86,-7.12,6.00,5.99,2.68,9.86,9.86,10.98
20.81,3.88,-7.09,3.88,-7.08,6.00,5.98,2.76,9.88,9.88,10.96
21.02,3.90,-7.04,3.90,-7.04,6.00,5.98,2.84,9.90,9.90,10.94
21.23,3.93,-6.98,3.93,-6.98,6.00,5.98,2.92,9.93,9.93,10.91
21.44,3.96,-6.91,3.96,-6.91,6.00,6.00,3.00,9.96,9.96,10.87
21.66,4.01,-6.83,4.00,-6.83,6.00,6.01,3.09,10.01,10.00,10.84
21.87,4.05,-6.76,4.05,-6.76,6.00,6.03,3.18,10.05,10.05,10.80
22.09,4.09,-6.69,4.09,-6.69,6.00,6.04,3.27,10.09,10.09,10.78
22.31,4.13,-6.63,4.13,-6.63,6.00,6.05,3.37,10.13,10.13,10.76
22.54,4.16,-6.59,4.16,-6.59,6.00,6.04,3.46,10.16,10.16,10.75
22.76,4.18,-6.56,4.18,-6.56,6.00,6.03,3.56,10.18,10.18,10.74
22.99,4.20,-6.54,4.19,-6.54,6.00,6.02,3.66,10.20,10.19,10.73
23.22,4.20,-6.53,4.20,-6.53,6.00,6.00,3.77,10.20,10.20,10.73
23.45,4.21,-6.51,4.21,-6.51,6.00,5.98,3.88,10.21,10.21,10.72
23.69,4.22,-6.49,4.22,-6.49,6.00,5.96,3.99,10.22,10.22,10.71
23.92,4.24,-6.46,4.24,-6.46,6.00,5.95,4.10,10.24,10.24,10.70
24.16,4.26,-6.42,4.26,-6.42,6.00,5.94,4.21,10.26,10.26,10.68
24.40,4.28,-6.38,4.28,-6.38,6.00,5.94,4.32,10.28,10.28,10.65
24.65,4.30,-6.32,4.30,-6.32,6.00,5.95,4.44,10.31,10.31,10.63
24.89,4.33,-6.27,4.33,-6.27,6.01,5.95,4.56,10.33,10.33,10.60
25.14,4.34,-6.22,4.34,-6.22,6.01,5.96,4.68,10.35,10.36,10.57
25.39,4.36,-6.17,4.36,-6.17,6.01,5.98,4.80,10.37,10.37,10.53
25.65,4.37,-6.12,4.37,-6.12,6.00,5.98,4.92,10.37,10.37,10.49
25.91,4.38,-6.08,4.38,-6.08,5.99,5.99,5.04,10.37,10.37,10.45
26.16,4.38,-6.02,4.38,-6.02,5.97,5.97,5.16,10.35,10.35,10.41
26.43,4.39,-5.97,4.39,-5.97,5.94,5.95,5.28,10.33,10.33,10.35
26.69,4.40,-5.91,4.40,-5.91,5.90,5.91,5.40,10.30,10.30,10.30
26.96,4.41,-5.84,4.41,-5.84,5.86,5.86,5.51,10.26,10.26,10.25
27.23,4.42,-5.78,4.42,-5.78,5.81,5.79,5.63,10.23,10.23,10.21
27.50,4.44,-5.73,4.44,-5.73,5.75,5.72,5.74,10.19,10.19,10.17
27.77,4.46,-5.67,4.46,-5.67,5.68,5.64,5.85,10.14,10.14,10.14
28.05,4.49,-5.62,4.49,-5.62,5.61,5.56,5.95,10.10,10.10,10.11
28.33,4.53,-5.55,4.53,-5.55,5.53,5.49,6.05,10.06,10.06,10.08
28.62,4.56,-5.48,4.56,-5.48,5.45,5.41,6.14,10.01,10.02,10.04
28.90,4.61,-5.39,4.61,-5.39,5.36,5.34,6.22,9.97,9.97,10.00
29.19,4.65,-5.29,4.65,-5.29,5.28,5.28,6.30,9.93,9.93,9.94
29.48,4.70,-5.18,4.70,-5.19,5.19,5.22,6.37,9.89,9.89,9.89
29.78,4.74,-5.09,4.74,-5.09,5.12,5.16,6.43,9.86,9.86,9.84
30.08,4.78,-5.01,4.78,-5.01,5.05,5.11,6.48,9.83,9.83,9.79
30.38,4.81,-4.96,4.81,-4.96,5.00,5.05,6.52,9.81,9.81,9.76
30.68,4.82,-4.93,4.82,-4.93,4.96,5.01,6.55,9.78,9.78,9.75
30.99,4.81,-4.93,4.81,-4.92,4.93,4.96,6.57,9.74,9.74,9.74
31.30,4.80,-4.92,4.80,-4.92,4.89,4.92,6.57,9.70,9.69,9.72
31.61,4.78,-4.90,4.78,-4.90,4.86,4.87,6.57,9.64,9.64,9.69
31.93,4.76,-4.87,4.76,-4.86,4.82,4.83,6.56,9.58,9.58,9.63
32.24,4.75,-4.80,4.75,-4.80,4.77,4.79,6.54,9.52,9.52,9.55
32.57,4.75,-4.72,4.75,-4.72,4.71,4.75,6.50,9.46,9.46,9.47
32.89,4.76,-4.63,4.77,-4.63,4.65,4.71,6.46,9.42,9.42,9.40
33.22,4.79,-4.56,4.79,-4.56,4.59,4.68,6.40,9.38,9.38,9.34
33.55,4.81,-4.50,4.81,-4.51,4.54,4.64,6.34,9.35,9.35,9.31
33.89,4.83,-4.48,4.82,-4.48,4.50,4.60,6.27,9.33,9.33,9.30
34.23,4.83,-4.47,4.83,-4.47,4.47,4.56,6.19,9.30,9.30,9.30
34.57,4.82,-4.47,4.82,-4.47,4.46,4.53,6.10,9.28,9.28,9.29
34.92,4.80,-4.47,4.80,-4.46,4.45,4.49,6.02,9.25,9.25,9.27
35.27,4.78,-4.46,4.79,-4.46,4.45,4.45,5.92,9.23,9.23,9.24
35.62,4.77,-4.44,4.78,-4.44,4.44,4.41,5.82,9.22,9.22,9.22
35.97,4.77,-4.43,4.78,-4.43,4.44,4.38,5.72,9.21,9.21,9.20
36.33,4.79,-4.42,4.79,-4.42,4.42,4.34,5.61,9.21,9.21,9.21
36.70,4.80,-4.41,4.80,-4.41,4.40,4.30,5.50,9.21,9.21,9.21
37.06,4.82,-4.39,4.81,-4.39,4.38,4.26,5.40,9.19,9.19,9.21
37.43,4.82,-4.36,4.82,-4.36,4.34,4.23,5.29,9.16,9.16,9.18
37.81,4.81,-4.31,4.81,-4.31,4.31,4.19,5.18,9.12,9.12,9.12
38.19,4.80,-4.26,4.80,-4.26,4.27,4.15,5.07,9.06,9.06,9.05
38.57,4.78,-4.20,4.78,-4.21,4.22,4.11,4.96,9.00,9.00,8.98
38.95,4.77,-4.16,4.77,-4.16,4.17,4.08,4.85,8.94,8.94,8.93
39.34,4.77,-4.11,4.77,-4.12,4.12,4.04,4.74,8.88,8.88,8.88
39.74,4.77,-4.07,4.77,-4.07,4.05,4.00,4.63,8.82,8.82,8.84
40.14,4.78,-4.02,4.78,-4.02,3.99,3.96,4.53,8.77,8.77,8.80
40.54,4.80,-3.95,4.81,-3.95,3.93,3.93,4.43,8.74,8.74,8.76
40.94,4.84,-3.88,4.84,-3.88,3.87,3.89,4.33,8.71,8.71,8.72
41.35,4.88,-3.80,4.88,-3.80,3.82,3.85,4.23,8.70,8.70,8.68
41.76,4.91,-3.74,4.91,-3.75,3.78,3.82,4.13,8.69,8.68,8.65
42.18,4.93,-3.71,4.93,-3.71,3.74,3.78,4.04,8.67,8.67,8.64
42.60,4.94,-3.69,4.93,-3.69,3.71,3.75,3.95,8.65,8.64,8.62
43.03,4.93,-3.68,4.93,-3.68,3.69,3.71,3.86,8.62,8.62,8.61
43.46,4.91,-3.68,4.91,-3.68,3.67,3.68,3.78,8.59,8.59,8.60
43.90,4.90,-3.68,4.90,-3.68,3.66,3.64,3.70,8.56,8.56,8.58
44.33,4.90,-3.67,4.90,-3.67,3.64,3.61,3.62,8.54,8.54,8.57
44.78,4.90,-3.64,4.90,-3.64,3.62,3.58,3.54,8.52,8.52,8.54
45.23,4.90,-3.61,4.90,-3.61,3.60,3.54,3.47,8.50,8.50,8.51
45.68,4.91,-3.57,4.91,-3.56,3.57,3.51,3.40,8.48,8.48,8.48
46.13,4.92,-3.52,4.91,-3.52,3.54,3.48,3.33,8.46,8.45,8.43
46.60,4.91,-3.48,4.91,-3.48,3.51,3.45,3.26,8.42,8.42,8.39
47.06,4.90,-3.46,4.90,-3.46,3.48,3.42,3.20,8.38,8.38,8.36
47.53,4.88,-3.44,4.88,-3.44,3.45,3.38,3.14,8.33,8.33,8.33
48.01,4.86,-3.43,4.86,-3.43,3.42,3.35,3.08,8.27,8.28,8.29
48.49,4.84,-3.41,4.84,-3.40,3.38,3.31,3.03,8.22,8.22,8.24
48.97,4.83,-3.36,4.83,-3.36,3.33,3.28,2.97,8.17,8.17,8.19
49.46,4.83,-3.30,4.83,-3.30,3.28,3.24,2.92,8.11,8.11,8.13
49.96,4.83,-3.22,4.82,-3.23,3.21,3.20,2.87,8.04,8.04,8.05
50.46,4.81,-3.15,4.81,-3.15,3.14,3.15,2.83,7.96,7.95,7.96
50.96,4.79,-3.07,4.80,-3.07,3.07,3.11,2.78,7.86,7.86,7.86
51.47,4.78,-2.99,4.78,-2.99,3.00,3.06,2.74,7.77,7.78,7.77
51.99,4.77,-2.91,4.77,-2.92,2.94,3.00,2.70,7.70,7.71,7.68
52.51,4.76,-2.86,4.76,-2.86,2.89,2.95,2.66,7.65,7.64,7.62
53.03,4.75,-2.81,4.75,-2.82,2.84,2.89,2.62,7.60,7.59,7.56
53.56,4.73,-2.80,4.73,-2.80,2.81,2.84,2.58,7.54,7.54,7.53
54.10,4.71,-2.80,4.71,-2.80,2.79,2.78,2.55,7.50,7.50,7.51
54.64,4.70,-2.79,4.70,-2.79,2.77,2.72,2.51,7.47,7.47,7.49
55.18,4.70,-2.77,4.70,-2.77,2.76,2.66,2.48,7.46,7.46,7.47
55.74,4.71,-2.74,4.70,-2.74,2.75,2.60,2.44,7.46,7.46,7.45
56.29,4.71,-2.71,4.71,-2.72,2.73,2.54,2.41,7.44,7.44,7.42
56.86,4.70,-2.69,4.70,-2.69,2.70,2.49,2.37,7.40,7.40,7.39
57.42,4.68,-2.66,4.68,-2.67,2.66,2.43,2.34,7.34,7.33,7.34
58.00,4.66,-2.64,4.67,-2.63,2.59,2.37,2.31,7.25,7.26,7.30
58.58,4.67,-2.55,4.67,-2.55,2.51,2.32,2.27,7.18,7.18,7.22
59.16,4.68,-2.45,4.68,-2.45,2.42,2.26,2.24,7.10,7.10,7.13
59.76,4.71,-2.31,4.71,-2.31,2.31,2.21,2.21,7.02,7.01,7.02
60.35,4.72,-2.17,4.72,-2.18,2.18,2.16,2.17,6.91,6.90,6.89
60.96,4.72,-2.04,4.71,-2.04,2.05,2.10,2.14,6.77,6.76,6.75
61.57,4.69,-1.92,4.68,-1.92,1.92,2.05,2.10,6.61,6.60,6.61
62.18,4.65,-1.81,4.65,-1.80,1.80,2.00,2.06,6.45,6.45,6.45
62.80,4.63,-1.69,4.63,-1.69,1.70,1.95,2.03,6.32,6.33,6.32
63.43,4.62,-1.59,4.63,-1.59,1.62,1.90,1.99,6.25,6.25,6.22
64.07,4.63,-1.51,4.63,-1.52,1.57,1.85,1.95,6.21,6.21,6.14
64.71,4.65,-1.48,4.64,-1.49,1.55,1.81,1.91,6.20,6.19,6.13
65.35,4.64,-1.49,4.64,-1.50,1.54,1.76,1.87,6.18,6.17,6.13
66.01,4.62,-1.53,4.61,-1.53,1.53,1.71,1.83,6.15,6.14,6.15
66.67,4.57,-1.58,4.58,-1.57,1.52,1.67,1.78,6.09,6.09,6.15
67.33,4.53,-1.59,4.53,-1.58,1.50,1.62,1.74,6.03,6.04,6.12
68.01,4.50,-1.56,4.50,-1.55,1.47,1.58,1.70,5.97,5.98,6.06
68.69,4.49,-1.48,4.49,-1.48,1.43,1.53,1.65,5.92,5.93,5.97
69.37,4.50,-1.38,4.50,-1.38,1.39,1.49,1.61,5.89,5.89,5.88
70.07,4.52,-1.28,4.52,-1.29,1.34,1.45,1.56,5.85,5.85,5.80
70.77,4.54,-1.22,4.53,-1.22,1.29,1.40,1.52,5.83,5.82,5.76
71.48,4.54,-1.19,4.54,-1.19,1.25,1.36,1.47,5.79,5.79,5.73
72.19,4.52,-1.19,4.52,-1.20,1.23,1.32,1.42,5.75,5.75,5.72
72.91,4.49,-1.22,4.49,-1.21,1.22,1.28,1.37,5.71,5.71,5.71
73.64,4.45,-1.24,4.45,-1.23,1.22,1.24,1.33,5.66,5.67,5.69
74.38,4.41,-1.25,4.41,-1.25,1.22,1.20,1.28,5.63,5.63,5.66
75.12,4.38,-1.24,4.38,-1.24,1.21,1.16,1.23,5.59,5.60,5.63
75.87,4.37,-1.22,4.37,-1.22,1.20,1.12,1.19,5.56,5.57,5.59
76.63,4.36,-1.18,4.36,-1.18,1.17,1.08,1.14,5.53,5.53,5.55
77.40,4.37,-1.13,4.37,-1.13,1.13,1.04,1.09,5.50,5.50,5.50
78.17,4.38,-1.07,4.38,-1.08,1.07,1.00,1.04,5.46,5.46,5.46
78.95,4.40,-1.01,4.40,-1.02,1.02,0.96,1.00,5.41,5.41,5.41
79.74,4.41,-0.95,4.41,-0.95,0.96,0.93,0.95,5.36,5.37,5.36
80.54,4.42,-0.89,4.42,-0.89,0.90,0.89,0.91,5.32,5.32,5.31
81.35,4.42,-0.83,4.41,-0.84,0.85,0.85,0.86,5.27,5.27,5.25
82.16,4.40,-0.79,4.40,-0.79,0.81,0.82,0.81,5.21,5.21,5.19
82.98,4.36,-0.76,4.36,-0.76,0.78,0.78,0.77,5.14,5.14,5.13
83.81,4.31,-0.75,4.31,-0.75,0.75,0.74,0.72,5.07,5.06,5.06
84.65,4.25,-0.74,4.25,-0.74,0.73,0.71,0.68,4.98,4.99,4.99
85.50,4.19,-0.73,4.19,-0.73,0.72,0.67,0.64,4.91,4.91,4.92
86.35,4.13,-0.71,4.13,-0.71,0.71,0.64,0.59,4.84,4.84,4.85
87.22,4.08,-0.69,4.08,-0.70,0.70,0.60,0.55,4.78,4.78,4.77
88.09,4.02,-0.68,4.02,-0.68,0.69,0.57,0.50,4.71,4.71,4.70
88.97,3.96,-0.66,3.96,-0.67,0.67,0.53,0.46,4.63,4.63,4.63
89.86,3.91,-0.65,3.91,-0.65,0.64,0.50,0.42,4.55,4.55,4.56
90.76,3.86,-0.63,3.86,-0.63,0.61,0.47,0.38,4.47,4.47,4.49
91.66,3.83,-0.60,3.83,-0.60,0.58,0.43,0.33,4.41,4.41,4.43
92.58,3.81,-0.56,3.81,-0.55,0.54,0.40,0.29,4.35,4.35,4.37
93.51,3.81,-0.50,3.80,-0.50,0.50,0.37,0.25,4.31,4.31,4.31
94.44,3.79,-0.45,3.79,-0.45,0.47,0.33,0.21,4.26,4.26,4.24
95.39,3.77,-0.41,3.77,-0.41,0.45,0.30,0.17,4.22,4.21,4.18
96.34,3.74,-0.39,3.74,-0.39,0.43,0.27,0.13,4.17,4.17,4.13
97.30,3.70,-0.38,3.70,-0.38,0.42,0.24,0.09,4.12,4.12,4.08
98.28,3.65,-0.39,3.65,-0.39,0.42,0.21,0.05,4.07,4.07,4.04
99.26,3.61,-0.41,3.61,-0.41,0.41,0.18,0.01,4.01,4.01,4.01
100.25,3.57,-0.42,3.57,-0.41,0.38,0.15,-0.03,3.95,3.95,3.99
101.25,3.53,-0.40,3.54,-0.39,0.34,0.12,-0.07,3.87,3.87,3.93
102.27,3.52,-0.33,3.52,-0.33,0.27,0.09,-0.11,3.79,3.79,3.85
103.29,3.52,-0.23,3.53,-0.23,0.17,0.06,-0.14,3.69,3.70,3.76
104.32,3.55,-0.10,3.56,-0.09,0.05,0.03,-0.18,3.61,3.61,3.65
105.37,3.62,0.06,3.62,0.06,-0.07,-0.00,-0.22,3.54,3.55,3.56
106.42,3.69,0.22,3.69,0.22,-0.19,-0.03,-0.26,3.49,3.50,3.47
107.48,3.76,0.37,3.75,0.36,-0.29,-0.06,-0.29,3.47,3.46,3.39
108.56,3.78,0.45,3.78,0.45,-0.36,-0.09,-0.33,3.42,3.42,3.33
109.64,3.75,0.48,3.75,0.48,-0.39,-0.12,-0.36,3.36,3.36,3.27
110.74,3.68,0.46,3.67,0.45,-0.39,-0.14,-0.39,3.28,3.27,3.22
111.85,3.54,0.38,3.54,0.38,-0.37,-0.17,-0.43,3.17,3.17,3.16
112.97,3.40,0.29,3.40,0.30,-0.34,-0.20,-0.46,3.06,3.06,3.11
114.10,3.28,0.22,3.29,0.23,-0.31,-0.23,-0.49,2.97,2.98,3.06
115.24,3.22,0.20,3.23,0.21,-0.29,-0.25,-0.52,2.93,2.94,3.02
116.39,3.23,0.23,3.22,0.23,-0.28,-0.28,-0.55,2.95,2.94,2.99
117.55,3.25,0.28,3.26,0.28,-0.29,-0.31,-0.57,2.96,2.97,2.97
118.73,3.31,0.34,3.31,0.34,-0.31,-0.33,-0.60,3.00,3.00,2.97
119.92,3.37,0.39,3.36,0.39,-0.35,-0.36,-0.62,3.02,3.02,2.98
121.12,3.41,0.43,3.40,0.42,-0.38,-0.38,-0.65,3.03,3.02,2.98
122.33,3.43,0.44,3.42,0.44,-0.41,-0.41,-0.67,3.02,3.01,2.98
123.55,3.42,0.44,3.43,0.44,-0.44,-0.43,-0.69,2.98,2.99,2.98
124.79,3.41,0.44,3.41,0.44,-0.46,-0.46,-0.71,2.95,2.95,2.97
126.03,3.39,0.45,3.39,0.46,-0.49,-0.48,-0.73,2.90,2.90,2.94
127.29,3.36,0.48,3.36,0.48,-0.51,-0.51,-0.75,2.85,2.85,2.88
128.57,3.34,0.52,3.34,0.53,-0.54,-0.53,-0.76,2.80,2.80,2.81
129.85,3.31,0.58,3.31,0.58,-0.57,-0.56,-0.77,2.74,2.74,2.73
131.15,3.28,0.63,3.28,0.62,-0.60,-0.58,-0.79,2.68,2.68,2.65
132.46,3.24,0.66,3.24,0.66,-0.63,-0.60,-0.80,2.61,2.61,2.58
133.79,3.20,0.68,3.20,0.68,-0.66,-0.63,-0.81,2.53,2.54,2.52
135.12,3.16,0.69,3.16,0.69,-0.70,-0.65,-0.82,2.46,2.46,2.47
136.48,3.13,0.71,3.13,0.71,-0.73,-0.67,-0.83,2.40,2.40,2.42
137.84,3.11,0.74,3.11,0.74,-0.76,-0.69,-0.84,2.35,2.35,2.37
139.22,3.10,0.78,3.10,0.78,-0.79,-0.72,-0.85,2.31,2.31,2.32
140.61,3.09,0.83,3.09,0.83,-0.83,-0.74,-0.85,2.27,2.26,2.27
142.02,3.08,0.87,3.08,0.87,-0.86,-0.76,-0.86,2.22,2.22,2.21
143.44,3.06,0.92,3.06,0.91,-0.90,-0.78,-0.86,2.17,2.16,2.15
144.87,3.03,0.95,3.03,0.95,-0.93,-0.80,-0.87,2.10,2.10,2.09
146.32,2.99,0.97,3.00,0.97,-0.96,-0.82,-0.88,2.04,2.04,2.03
147.78,2.95,0.98,2.95,0.98,-0.98,-0.84,-0.88,1.97,1.97,1.97
149.26,2.91,1.00,2.91,1.00,-1.01,-0.86,-0.89,1.91,1.91,1.92
150.75,2.88,1.01,2.88,1.01,-1.03,-0.88,-0.89,1.85,1.85,1.86
152.26,2.84,1.04,2.85,1.04,-1.05,-0.90,-0.90,1.80,1.80,1.81
153.78,2.82,1.06,2.82,1.06,-1.07,-0.92,-0.90,1.75,1.75,1.75
155.32,2.79,1.09,2.79,1.09,-1.08,-0.94,-0.91,1.71,1.71,1.70
156.88,2.76,1.11,2.76,1.11,-1.10,-0.96,-0.92,1.66,1.66,1.65
158.44,2.73,1.13,2.73,1.13,-1.12,-0.98,-0.93,1.61,1.61,1.60
160.03,2.69,1.14,2.69,1.14,-1.13,-1.00,-0.93,1.56,1.56,1.55
161.63,2.65,1.14,2.65,1.14,-1.14,-1.02,-0.94,1.50,1.50,1.51
163.24,2.61,1.15,2.61,1.15,-1.15,-1.04,-0.95,1.45,1.45,1.46
164.88,2.57,1.16,2.57,1.16,-1.16,-1.05,-0.96,1.40,1.40,1.41
166.53,2.53,1.17,2.53,1.17,-1.17,-1.07,-0.97,1.36,1.36,1.36
168.19,2.49,1.18,2.49,1.18,-1.18,-1.09,-0.98,1.31,1.31,1.31
169.87,2.45,1.19,2.45,1.19,-1.19,-1.11,-0.99,1.27,1.27,1.26
171.57,2.42,1.20,2.42,1.20,-1.19,-1.12,-1.01,1.22,1.22,1.22
173.29,2.38,1.20,2.38,1.20,-1.20,-1.14,-1.02,1.17,1.17,1.17
175.02,2.34,1.21,2.34,1.21,-1.22,-1.16,-1.04,1.13,1.13,1.13
176.77,2.31,1.22,2.31,1.22,-1.23,-1.17,-1.05,1.08,1.08,1.08
178.54,2.27,1.23,2.27,1.23,-1.24,-1.19,-1.07,1.03,1.03,1.04
180.32,2.24,1.25,2.24,1.25,-1.25,-1.20,-1.08,0.98,0.98,0.99
182.13,2.20,1.26,2.20,1.26,-1.26,-1.22,-1.10,0.93,0.93,0.94
183.95,2.16,1.28,2.16,1.28,-1.27,-1.23,-1.12,0.89,0.89,0.88
185.79,2.12,1.29,2.12,1.29,-1.28,-1.25,-1.14,0.84,0.84,0.83
187.65,2.08,1.30,2.08,1.30,-1.29,-1.26,-1.16,0.79,0.79,0.78
189.52,2.04,1.30,2.04,1.30,-1.29,-1.28,-1.18,0.74,0.74,0.73
191.42,1.99,1.30,1.99,1.30,-1.30,-1.29,-1.21,0.69,0.69,0.69
193.33,1.95,1.30,1.95,1.30,-1.30,-1.31,-1.23,0.64,0.64,0.65
195.27,1.90,1.29,1.90,1.29,-1.30,-1.32,-1.25,0.59,0.59,0.61
197.22,1.85,1.30,1.85,1.30,-1.31,-1.33,-1.28,0.55,0.55,0.56
199.19,1.81,1.30,1.81,1.30,-1.31,-1.35,-1.30,0.50,0.50,0.51
201.18,1.77,1.31,1.77,1.31,-1.31,-1.36,-1.32,0.45,0.45,0.45
203.19,1.73,1.33,1.73,1.32,-1.32,-1.37,-1.35,0.41,0.41,0.40
205.23,1.69,1.33,1.69,1.33,-1.32,-1.38,-1.38,0.37,0.37,0.36
207.28,1.64,1.33,1.64,1.33,-1.32,-1.40,-1.40,0.32,0.32,0.31
209.35,1.60,1.32,1.60,1.32,-1.32,-1.41,-1.43,0.28,0.28,0.27
211.44,1.55,1.31,1.55,1.31,-1.31,-1.42,-1.45,0.24,0.24,0.24
213.56,1.51,1.30,1.51,1.31,-1.31,-1.43,-1.48,0.20,0.20,0.20
215.69,1.46,1.30,1.46,1.30,-1.31,-1.44,-1.51,0.16,0.16,0.16
217.85,1.42,1.30,1.42,1.30,-1.31,-1.46,-1.53,0.12,0.12,0.12
220.03,1.38,1.30,1.38,1.30,-1.31,-1.47,-1.56,0.07,0.07,0.08
222.23,1.35,1.32,1.35,1.31,-1.32,-1.48,-1.58,0.03,0.03,0.03
224.45,1.31,1.33,1.31,1.33,-1.33,-1.49,-1.60,-0.02,-0.02,-0.01
226.70,1.28,1.34,1.28,1.34,-1.34,-1.50,-1.62,-0.06,-0.06,-0.06
228.96,1.25,1.36,1.25,1.36,-1.36,-1.51,-1.65,-0.10,-0.10,-0.10
231.25,1.23,1.38,1.23,1.38,-1.37,-1.52,-1.67,-0.15,-0.15,-0.15
233.57,1.20,1.39,1.20,1.39,-1.39,-1.53,-1.68,-0.19,-0.19,-0.19
235.90,1.17,1.41,1.17,1.41,-1.40,-1.54,-1.70,-0.23,-0.23,-0.24
238.26,1.14,1.42,1.14,1.42,-1.41,-1.55,-1.72,-0.27,-0.27,-0.28
240.64,1.11,1.43,1.11,1.43,-1.42,-1.55,-1.73,-0.32,-0.32,-0.32
243.05,1.07,1.43,1.07,1.43,-1.43,-1.56,-1.74,-0.36,-0.36,-0.36
245.48,1.04,1.44,1.04,1.44,-1.44,-1.57,-1.75,-0.40,-0.40,-0.40
247.93,1.00,1.44,1.00,1.44,-1.44,-1.58,-1.76,-0.44,-0.44,-0.45
250.41,0.96,1.45,0.96,1.45,-1.45,-1.59,-1.77,-0.49,-0.49,-0.49
252.92,0.92,1.46,0.93,1.46,-1.46,-1.60,-1.77,-0.54,-0.54,-0.53
255.45,0.90,1.47,0.90,1.47,-1.48,-1.60,-1.77,-0.58,-0.58,-0.57
258.00,0.89,1.49,0.89,1.49,-1.50,-1.61,-1.78,-0.62,-0.62,-0.61
260.58,0.88,1.52,0.88,1.52,-1.53,-1.62,-1.77,-0.65,-0.65,-0.64
263.19,0.88,1.55,0.88,1.55,-1.55,-1.62,-1.77,-0.67,-0.67,-0.67
265.82,0.87,1.59,0.87,1.59,-1.58,-1.63,-1.77,-0.70,-0.71,-0.71
268.48,0.87,1.61,0.87,1.61,-1.61,-1.64,-1.76,-0.74,-0.74,-0.75
271.16,0.85,1.64,0.85,1.64,-1.63,-1.64,-1.75,-0.77,-0.78,-0.78
273.87,0.84,1.65,0.84,1.65,-1.65,-1.65,-1.75,-0.81,-0.81,-0.82
276.61,0.81,1.67,0.81,1.67,-1.66,-1.65,-1.74,-0.85,-0.85,-0.85
279.38,0.79,1.67,0.79,1.67,-1.68,-1.66,-1.73,-0.89,-0.89,-0.89
282.17,0.76,1.68,0.76,1.68,-1.68,-1.67,-1.71,-0.93,-0.92,-0.92
284.99,0.73,1.69,0.73,1.69,-1.69,-1.67,-1.70,-0.96,-0.96,-0.96
287.84,0.70,1.69,0.70,1.69,-1.69,-1.68,-1.69,-0.99,-0.99,-0.99
290.72,0.66,1.69,0.66,1.69,-1.69,-1.68,-1.68,-1.03,-1.03,-1.03
293.63,0.63,1.70,0.63,1.70,-1.70,-1.68,-1.66,-1.07,-1.07,-1.07
296.57,0.59,1.70,0.59,1.70,-1.70,-1.69,-1.65,-1.10,-1.10,-1.10
299.53,0.56,1.70,0.56,1.70,-1.70,-1.69,-1.64,-1.14,-1.14,-1.14
302.53,0.52,1.70,0.52,1.70,-1.70,-1.70,-1.62,-1.18,-1.18,-1.18
305.55,0.48,1.70,0.48,1.70,-1.70,-1.70,-1.61,-1.22,-1.22,-1.22
308.61,0.44,1.70,0.45,1.70,-1.70,-1.70,-1.60,-1.25,-1.25,-1.25
311.69,0.41,1.70,0.41,1.70,-1.70,-1.71,-1.59,-1.29,-1.29,-1.29
314.81,0.38,1.70,0.38,1.70,-1.70,-1.71,-1.58,-1.32,-1.32,-1.32
317.96,0.34,1.70,0.34,1.70,-1.69,-1.71,-1.57,-1.35,-1.35,-1.35
321.14,0.31,1.69,0.31,1.69,-1.69,-1.72,-1.56,-1.38,-1.38,-1.38
324.35,0.28,1.69,0.28,1.69,-1.69,-1.72,-1.55,-1.41,-1.41,-1.41
327.59,0.24,1.69,0.24,1.69,-1.69,-1.72,-1.54,-1.45,-1.45,-1.44
330.87,0.21,1.68,0.21,1.68,-1.69,-1.72,-1.54,-1.48,-1.48,-1.47
334.18,0.18,1.69,0.18,1.68,-1.69,-1.72,-1.53,-1.51,-1.51,-1.51
337.52,0.14,1.69,0.14,1.69,-1.69,-1.73,-1.53,-1.54,-1.54,-1.54
340.90,0.11,1.69,0.11,1.69,-1.69,-1.73,-1.52,-1.58,-1.58,-1.58
344.30,0.08,1.69,0.08,1.69,-1.69,-1.73,-1.52,-1.61,-1.61,-1.61
347.75,0.05,1.69,0.05,1.69,-1.69,-1.73,-1.52,-1.65,-1.65,-1.65
351.23,0.02,1.70,0.02,1.70,-1.70,-1.73,-1.52,-1.68,-1.68,-1.68
354.74,-0.01,1.70,-0.01,1.70,-1.70,-1.73,-1.52,-1.71,-1.71,-1.71
358.28,-0.04,1.70,-0.04,1.70,-1.70,-1.73,-1.53,-1.74,-1.74,-1.74
361.87,-0.07,1.70,-0.07,1.70,-1.70,-1.73,-1.53,-1.77,-1.77,-1.77
365.49,-0.10,1.70,-0.10,1.70,-1.70,-1.73,-1.53,-1.80,-1.80,-1.80
369.14,-0.13,1.70,-0.13,1.70,-1.70,-1.73,-1.54,-1.83,-1.83,-1.83
372.83,-0.16,1.70,-0.16,1.70,-1.71,-1.73,-1.55,-1.86,-1.86,-1.86
376.56,-0.19,1.71,-0.19,1.71,-1.71,-1.73,-1.56,-1.90,-1.90,-1.90
380.33,-0.22,1.71,-0.22,1.71,-1.71,-1.73,-1.57,-1.93,-1.93,-1.93
384.13,-0.25,1.71,-0.25,1.71,-1.71,-1.73,-1.58,-1.96,-1.96,-1.96
387.97,-0.27,1.72,-0.27,1.72,-1.72,-1.73,-1.59,-1.99,-1.99,-1.99
391.85,-0.30,1.72,-0.30,1.72,-1.72,-1.73,-1.60,-2.02,-2.02,-2.02
395.77,-0.32,1.73,-0.32,1.73,-1.72,-1.73,-1.62,-2.05,-2.05,-2.05
399.73,-0.35,1.73,-0.35,1.72,-1.72,-1.73,-1.63,-2.07,-2.07,-2.08
403.72,-0.38,1.72,-0.38,1.72,-1.72,-1.72,-1.65,-2.10,-2.10,-2.10
407.76,-0.40,1.72,-0.40,1.72,-1.72,-1.72,-1.66,-2.12,-2.12,-2.12
411.84,-0.43,1.71,-0.43,1.71,-1.72,-1.72,-1.68,-2.15,-2.15,-2.14
415.96,-0.45,1.71,-0.45,1.71,-1.71,-1.72,-1.69,-2.17,-2.17,-2.16
420.12,-0.48,1.71,-0.48,1.71,-1.71,-1.72,-1.71,-2.19,-2.19,-2.19
424.32,-0.50,1.71,-0.50,1.71,-1.70,-1.71,-1.73,-2.21,-2.21,-2.21
428.56,-0.53,1.70,-0.53,1.70,-1.70,-1.71,-1.74,-2.22,-2.22,-2.23
432.85,-0.55,1.70,-0.55,1.70,-1.69,-1.71,-1.76,-2.24,-2.24,-2.25
437.18,-0.57,1.69,-0.57,1.69,-1.69,-1.70,-1.78,-2.26,-2.26,-2.26
441.55,-0.60,1.68,-0.60,1.68,-1.68,-1.70,-1.79,-2.28,-2.28,-2.28
445.96,-0.62,1.67,-0.62,1.67,-1.68,-1.70,-1.81,-2.30,-2.30,-2.29
450.42,-0.64,1.67,-0.64,1.67,-1.68,-1.69,-1.82,-2.32,-2.32,-2.31
454.93,-0.66,1.67,-0.66,1.67,-1.68,-1.69,-1.83,-2.34,-2.34,-2.33
459.48,-0.68,1.68,-0.68,1.68,-1.68,-1.69,-1.85,-2.36,-2.36,-2.36
464.07,-0.70,1.68,-0.70,1.68,-1.68,-1.68,-1.86,-2.38,-2.38,-2.39
468.71,-0.73,1.69,-0.73,1.69,-1.68,-1.68,-1.87,-2.41,-2.41,-2.41
473.40,-0.75,1.68,-0.75,1.68,-1.68,-1.67,-1.88,-2.43,-2.43,-2.43
478.13,-0.77,1.68,-0.77,1.68,-1.68,-1.67,-1.88,-2.44,-2.44,-2.45
482.91,-0.78,1.68,-0.78,1.68,-1.67,-1.67,-1.89,-2.46,-2.46,-2.46
487.74,-0.80,1.67,-0.80,1.67,-1.67,-1.66,-1.89,-2.47,-2.47,-2.47
492.62,-0.82,1.66,-0.82,1.66,-1.66,-1.66,-1.89,-2.48,-2.48,-2.48
497.55,-0.84,1.66,-0.84,1.66,-1.66,-1.65,-1.89,-2.50,-2.50,-2.49
502.52,-0.85,1.65,-0.85,1.65,-1.65,-1.65,-1.89,-2.51,-2.51,-2.51
507.55,-0.87,1.65,-0.87,1.65,-1.65,-1.64,-1.88,-2.52,-2.52,-2.52
512.62,-0.89,1.65,-0.89,1.65,-1.65,-1.64,-1.87,-2.53,-2.53,-2.53
517.75,-0.90,1.64,-0.90,1.64,-1.64,-1.63,-1.87,-2.54,-2.54,-2.54
522.93,-0.92,1.64,-0.92,1.64,-1.64,-1.62,-1.86,-2.55,-2.55,-2.55
