frequency,raw,error,smoothed,error_smoothed,equalization,parametric_eq,fixed_band_eq,equalized_raw,equalized_smoothed,target
20.00,2.89,-3.26,2.89,-3.26,3.27,-0.01,0.77,6.17,6.17,6.15
20.20,2.95,-3.21,2.95,-3.21,3.21,-0.01,0.80,6.16,6.16,6.16
20.40,3.00,-3.16,3.00,-3.16,3.15,-0.01,0.82,6.16,6.16,6.17
20.61,3.05,-3.11,3.05,-3.11,3.10,-0.01,0.84,6.15,6.15,6.17
20.81,3.11,-3.06,3.11,-3.06,3.05,-0.01,0.87,6.16,6.16,6.17
21.02,3.16,-3.01,3.16,-3.01,3.00,-0.01,0.90,6.16,6.16,6.17
21.23,3.21,-2.96,3.21,-2.96,2.96,-0.01,0.92,6.17,6.16,6.16
21.44,3.25,-2.91,3.25,-2.91,2.92,-0.01,0.95,6.17,6.17,6.17
21.66,3.30,-2.87,3.30,-2.87,2.88,-0.01,0.98,6.18,6.18,6.17
21.87,3.35,-2.84,3.35,-2.84,2.85,-0.01,1.01,6.20,6.20,6.19
22.09,3.39,-2.81,3.39,-2.81,2.82,-0.01,1.04,6.21,6.21,6.21
22.31,3.44,-2.79,3.44,-2.79,2.80,-0.01,1.08,6.24,6.24,6.23
22.54,3.48,-2.78,3.48,-2.78,2.78,-0.02,1.11,6.26,6.26,6.26
22.76,3.52,-2.76,3.52,-2.76,2.76,-0.02,1.14,6.28,6.28,6.29
22.99,3.57,-2.75,3.57,-2.75,2.74,-0.02,1.18,6.31,6.31,6.32
23.22,3.61,-2.73,3.61,-2.73,2.72,-0.02,1.21,6.33,6.33,6.34
23.45,3.65,-2.70,3.65,-2.70,2.69,-0.02,1.25,6.34,6.34,6.35
23.69,3.69,-2.66,3.69,-2.66,2.66,-0.02,1.28,6.35,6.35,6.35
23.92,3.73,-2.62,3.73,-2.62,2.62,-0.02,1.32,6.35,6.35,6.35
24.16,3.77,-2.57,3.77,-2.57,2.57,-0.02,1.36,6.35,6.35,6.35
24.40,3.81,-2.52,3.81,-2.52,2.52,-0.02,1.40,6.34,6.34,6.34
24.65,3.85,-2.47,3.85,-2.47,2.47,-0.02,1.43,6.32,6.32,6.32
24.89,3.89,-2.41,3.89,-2.41,2.42,-0.02,1.47,6.31,6.31,6.31
25.14,3.94,-2.36,3.94,-2.36,2.36,-0.02,1.51,6.30,6.30,6.30
25.39,3.98,-2.31,3.98,-2.31,2.31,-0.02,1.55,6.29,6.29,6.29
25.65,4.02,-2.26,4.02,-2.26,2.26,-0.02,1.59,6.28,6.28,6.28
25.91,4.06,-2.21,4.06,-2.21,2.21,-0.02,1.63,6.27,6.27,6.27
26.16,4.10,-2.16,4.10,-2.16,2.16,-0.02,1.67,6.27,6.27,6.27
26.43,4.14,-2.12,4.14,-2.12,2.12,-0.02,1.71,6.26,6.26,6.26
26.69,4.18,-2.08,4.18,-2.08,2.09,-0.02,1.74,6.26,6.26,6.26
26.96,4.21,-2.05,4.21,-2.05,2.05,-0.02,1.78,6.27,6.26,6.26
27.23,4.24,-2.02,4.24,-2.02,2.02,-0.02,1.81,6.27,6.27,6.26
27.50,4.27,-1.99,4.27,-1.99,1.99,-0.02,1.85,6.27,6.27,6.27
27.77,4.30,-1.97,4.30,-1.97,1.97,-0.02,1.88,6.27,6.27,6.27
28.05,4.33,-1.94,4.33,-1.94,1.94,-0.02,1.91,6.27,6.27,6.27
28.33,4.36,-1.92,4.36,-1.92,1.92,-0.02,1.94,6.27,6.27,6.28
28.62,4.38,-1.90,4.38,-1.90,1.89,-0.02,1.97,6.28,6.28,6.28
28.90,4.41,-1.87,4.41,-1.87,1.87,-0.03,1.99,6.28,6.28,6.28
29.19,4.44,-1.84,4.44,-1.84,1.84,-0.03,2.01,6.28,6.28,6.28
29.48,4.47,-1.81,4.47,-1.81,1.81,-0.03,2.03,6.27,6.27,6.27
29.78,4.50,-1.77,4.50,-1.77,1.77,-0.03,2.04,6.27,6.27,6.27
30.08,4.52,-1.74,4.52,-1.74,1.74,-0.03,2.05,6.26,6.26,6.26
30.38,4.55,-1.71,4.55,-1.71,1.70,-0.03,2.06,6.25,6.25,6.26
30.68,4.58,-1.67,4.58,-1.67,1.67,-0.03,2.07,6.24,6.25,6.25
30.99,4.60,-1.63,4.60,-1.63,1.63,-0.03,2.07,6.24,6.24,6.24
31.30,4.63,-1.60,4.63,-1.60,1.60,-0.03,2.07,6.23,6.23,6.23
31.61,4.66,-1.56,4.66,-1.56,1.56,-0.03,2.06,6.22,6.22,6.21
31.93,4.68,-1.52,4.68,-1.53,1.53,-0.03,2.05,6.21,6.21,6.20
32.24,4.70,-1.49,4.70,-1.49,1.50,-0.03,2.04,6.20,6.20,6.20
32.57,4.73,-1.47,4.73,-1.47,1.47,-0.03,2.02,6.19,6.19,6.19
32.89,4.75,-1.44,4.75,-1.44,1.43,-0.03,2.00,6.18,6.18,6.19
33.22,4.77,-1.41,4.77,-1.41,1.40,-0.03,1.98,6.17,6.17,6.18
33.55,4.79,-1.37,4.79,-1.37,1.36,-0.03,1.95,6.15,6.15,6.16
33.89,4.81,-1.33,4.81,-1.33,1.33,-0.04,1.92,6.14,6.14,6.14
34.23,4.83,-1.29,4.83,-1.29,1.30,-0.04,1.89,6.13,6.13,6.12
34.57,4.85,-1.25,4.85,-1.25,1.26,-0.04,1.85,6.12,6.12,6.11
34.92,4.87,-1.22,4.87,-1.22,1.23,-0.04,1.82,6.11,6.11,6.10
35.27,4.89,-1.20,4.89,-1.20,1.20,-0.04,1.78,6.09,6.09,6.09
35.62,4.91,-1.18,4.91,-1.18,1.17,-0.04,1.74,6.08,6.08,6.09
35.97,4.93,-1.15,4.93,-1.15,1.15,-0.04,1.70,6.07,6.07,6.08
36.33,4.94,-1.12,4.94,-1.12,1.12,-0.04,1.65,6.06,6.06,6.07
36.70,4.96,-1.09,4.96,-1.09,1.10,-0.04,1.61,6.06,6.06,6.05
37.06,4.98,-1.07,4.98,-1.07,1.07,-0.04,1.56,6.05,6.05,6.04
37.43,4.99,-1.05,4.99,-1.05,1.05,-0.04,1.51,6.04,6.04,6.04
37.81,5.01,-1.03,5.01,-1.03,1.02,-0.04,1.47,6.03,6.03,6.03
38.19,5.02,-1.01,5.02,-1.01,1.00,-0.05,1.42,6.02,6.02,6.03
38.57,5.03,-0.98,5.03,-0.98,0.97,-0.05,1.37,6.01,6.01,6.01
38.95,5.05,-0.94,5.05,-0.94,0.95,-0.05,1.32,5.99,5.99,5.99
39.34,5.06,-0.91,5.06,-0.91,0.92,-0.05,1.27,5.98,5.98,5.97
39.74,5.07,-0.88,5.07,-0.89,0.89,-0.05,1.23,5.96,5.96,5.95
40.14,5.08,-0.86,5.08,-0.86,0.86,-0.05,1.18,5.94,5.94,5.94
40.54,5.09,-0.84,5.09,-0.84,0.83,-0.05,1.13,5.91,5.91,5.93
40.94,5.10,-0.81,5.10,-0.80,0.79,-0.05,1.08,5.89,5.89,5.90
41.35,5.11,-0.77,5.11,-0.76,0.76,-0.05,1.04,5.87,5.87,5.87
41.76,5.12,-0.72,5.12,-0.72,0.73,-0.06,0.99,5.86,5.86,5.84
42.18,5.13,-0.69,5.13,-0.69,0.70,-0.06,0.94,5.84,5.84,5.82
42.60,5.14,-0.66,5.14,-0.67,0.67,-0.06,0.90,5.82,5.82,5.81
43.03,5.15,-0.65,5.15,-0.64,0.64,-0.06,0.85,5.80,5.80,5.80
43.46,5.16,-0.62,5.16,-0.62,0.62,-0.06,0.81,5.77,5.77,5.78
43.90,5.16,-0.59,5.16,-0.59,0.59,-0.06,0.76,5.74,5.74,5.75
44.33,5.16,-0.56,5.16,-0.56,0.56,-0.06,0.72,5.72,5.72,5.72
44.78,5.16,-0.53,5.16,-0.53,0.53,-0.06,0.67,5.69,5.69,5.69
45.23,5.16,-0.50,5.16,-0.50,0.50,-0.07,0.63,5.66,5.66,5.66
45.68,5.16,-0.47,5.16,-0.47,0.47,-0.07,0.59,5.63,5.63,5.63
46.13,5.17,-0.44,5.17,-0.44,0.44,-0.07,0.55,5.61,5.61,5.61
46.60,5.17,-0.40,5.17,-0.40,0.41,-0.07,0.51,5.58,5.58,5.57
47.06,5.17,-0.37,5.17,-0.37,0.38,-0.07,0.47,5.56,5.56,5.55
47.53,5.17,-0.35,5.17,-0.35,0.35,-0.07,0.43,5.53,5.53,5.52
48.01,5.17,-0.34,5.17,-0.33,0.32,-0.08,0.39,5.50,5.50,5.51
48.49,5.17,-0.32,5.17,-0.31,0.30,-0.08,0.35,5.47,5.47,5.49
48.97,5.16,-0.28,5.16,-0.28,0.28,-0.08,0.31,5.44,5.44,5.45
49.46,5.16,-0.24,5.16,-0.25,0.26,-0.08,0.28,5.42,5.42,5.40
49.96,5.16,-0.21,5.16,-0.22,0.24,-0.08,0.24,5.40,5.41,5.37
50.46,5.16,-0.22,5.16,-0.22,0.23,-0.08,0.20,5.39,5.39,5.38
50.96,5.16,-0.22,5.16,-0.22,0.21,-0.09,0.17,5.38,5.38,5.39
51.47,5.16,-0.23,5.16,-0.22,0.20,-0.09,0.13,5.36,5.36,5.39
51.99,5.16,-0.20,5.16,-0.20,0.19,-0.09,0.10,5.35,5.35,5.36
52.51,5.16,-0.17,5.16,-0.17,0.18,-0.09,0.07,5.34,5.34,5.33
53.03,5.16,-0.15,5.16,-0.15,0.16,-0.09,0.03,5.32,5.32,5.31
53.56,5.16,-0.14,5.16,-0.14,0.14,-0.10,0.00,5.30,5.30,5.30
54.10,5.16,-0.14,5.16,-0.13,0.13,-0.10,-0.03,5.28,5.28,5.29
54.64,5.15,-0.12,5.15,-0.11,0.11,-0.10,-0.06,5.26,5.26,5.27
55.18,5.14,-0.09,5.14,-0.09,0.09,-0.10,-0.09,5.23,5.23,5.23
55.74,5.13,-0.06,5.13,-0.06,0.08,-0.11,-0.11,5.21,5.21,5.19
56.29,5.12,-0.04,5.12,-0.05,0.06,-0.11,-0.14,5.18,5.18,5.17
56.86,5.12,-0.04,5.12,-0.04,0.04,-0.11,-0.17,5.16,5.16,5.16
57.42,5.11,-0.03,5.11,-0.03,0.02,-0.11,-0.19,5.13,5.13,5.15
58.00,5.11,-0.02,5.11,-0.01,0.00,-0.12,-0.22,5.11,5.11,5.13
58.58,5.10,0.02,5.10,0.02,-0.02,-0.12,-0.24,5.08,5.08,5.08
59.16,5.09,0.05,5.09,0.05,-0.04,-0.12,-0.26,5.06,5.06,5.04
59.76,5.09,0.07,5.09,0.07,-0.06,-0.12,-0.28,5.03,5.03,5.01
60.35,5.08,0.09,5.08,0.09,-0.08,-0.13,-0.30,5.00,5.00,4.99
60.96,5.07,0.10,5.07,0.10,-0.11,-0.13,-0.32,4.96,4.96,4.97
61.57,5.05,0.12,5.05,0.12,-0.13,-0.13,-0.34,4.92,4.92,4.94
62.18,5.04,0.15,5.04,0.15,-0.15,-0.14,-0.35,4.89,4.89,4.89
62.80,5.02,0.18,5.02,0.17,-0.17,-0.14,-0.37,4.85,4.85,4.85
63.43,5.01,0.20,5.01,0.20,-0.19,-0.14,-0.38,4.82,4.82,4.81
64.07,5.00,0.22,5.00,0.22,-0.21,-0.15,-0.39,4.79,4.79,4.78
64.71,4.99,0.23,4.99,0.23,-0.23,-0.15,-0.40,4.76,4.76,4.75
65.35,4.97,0.25,4.97,0.25,-0.25,-0.15,-0.41,4.72,4.72,4.73
66.01,4.96,0.26,4.96,0.26,-0.27,-0.16,-0.42,4.69,4.69,4.70
66.67,4.94,0.28,4.94,0.28,-0.29,-0.16,-0.43,4.66,4.66,4.67
67.33,4.93,0.30,4.93,0.30,-0.30,-0.17,-0.43,4.63,4.63,4.63
68.01,4.91,0.32,4.91,0.32,-0.32,-0.17,-0.44,4.60,4.60,4.59
68.69,4.90,0.34,4.90,0.34,-0.34,-0.17,-0.44,4.56,4.56,4.56
69.37,4.88,0.36,4.88,0.36,-0.35,-0.18,-0.44,4.53,4.53,4.52
70.07,4.86,0.37,4.86,0.37,-0.37,-0.18,-0.45,4.50,4.50,4.49
70.77,4.85,0.38,4.85,0.38,-0.38,-0.19,-0.45,4.46,4.46,4.46
71.48,4.83,0.39,4.83,0.39,-0.40,-0.19,-0.45,4.43,4.43,4.43
72.19,4.81,0.40,4.81,0.40,-0.41,-0.20,-0.45,4.40,4.40,4.40
72.91,4.79,0.42,4.79,0.42,-0.42,-0.20,-0.45,4.36,4.36,4.37
73.64,4.77,0.43,4.77,0.44,-0.44,-0.21,-0.45,4.33,4.33,4.33
74.38,4.75,0.45,4.75,0.45,-0.45,-0.21,-0.45,4.30,4.30,4.29
75.12,4.73,0.47,4.73,0.47,-0.46,-0.22,-0.45,4.26,4.26,4.26
75.87,4.70,0.48,4.70,0.48,-0.48,-0.22,-0.45,4.23,4.23,4.22
76.63,4.68,0.49,4.68,0.49,-0.49,-0.23,-0.45,4.19,4.19,4.19
77.40,4.66,0.50,4.66,0.50,-0.50,-0.24,-0.45,4.16,4.16,4.16
78.17,4.63,0.50,4.63,0.50,-0.51,-0.24,-0.45,4.12,4.12,4.13
78.95,4.61,0.51,4.61,0.51,-0.51,-0.25,-0.45,4.09,4.09,4.09
79.74,4.58,0.52,4.58,0.52,-0.52,-0.25,-0.46,4.06,4.06,4.06
80.54,4.55,0.53,4.55,0.53,-0.53,-0.26,-0.46,4.02,4.02,4.03
81.35,4.53,0.54,4.53,0.54,-0.54,-0.27,-0.46,3.99,3.99,3.99
82.16,4.50,0.56,4.50,0.56,-0.55,-0.27,-0.46,3.95,3.95,3.95
82.98,4.48,0.57,4.48,0.57,-0.56,-0.28,-0.46,3.92,3.92,3.91
83.81,4.45,0.57,4.45,0.57,-0.57,-0.29,-0.46,3.88,3.88,3.88
84.65,4.43,0.58,4.43,0.58,-0.58,-0.30,-0.46,3.85,3.85,3.85
85.50,4.40,0.58,4.40,0.58,-0.58,-0.30,-0.46,3.82,3.82,3.82
86.35,4.37,0.59,4.37,0.59,-0.59,-0.31,-0.47,3.78,3.78,3.78
87.22,4.34,0.60,4.34,0.59,-0.60,-0.32,-0.47,3.75,3.75,3.75
88.09,4.32,0.60,4.31,0.60,-0.60,-0.33,-0.47,3.71,3.71,3.71
88.97,4.29,0.61,4.29,0.61,-0.61,-0.34,-0.48,3.67,3.67,3.68
89.86,4.26,0.62,4.26,0.62,-0.62,-0.35,-0.48,3.63,3.64,3.64
90.76,4.23,0.63,4.23,0.63,-0.63,-0.36,-0.49,3.60,3.60,3.60
91.66,4.20,0.64,4.20,0.64,-0.64,-0.36,-0.49,3.56,3.56,3.56
92.58,4.17,0.65,4.17,0.65,-0.65,-0.37,-0.50,3.52,3.52,3.52
93.51,4.14,0.66,4.14,0.66,-0.66,-0.38,-0.50,3.48,3.48,3.48
94.44,4.11,0.67,4.11,0.67,-0.67,-0.39,-0.51,3.45,3.45,3.44
95.39,4.08,0.67,4.08,0.67,-0.67,-0.40,-0.51,3.41,3.41,3.41
96.34,4.04,0.68,4.04,0.68,-0.68,-0.41,-0.52,3.37,3.37,3.37
97.30,4.01,0.68,4.01,0.68,-0.68,-0.43,-0.53,3.33,3.33,3.33
98.28,3.97,0.68,3.97,0.68,-0.68,-0.44,-0.53,3.29,3.29,3.29
99.26,3.94,0.69,3.94,0.69,-0.69,-0.45,-0.54,3.25,3.25,3.25
100.25,3.90,0.69,3.91,0.69,-0.69,-0.46,-0.55,3.21,3.21,3.21
101.25,3.88,0.70,3.88,0.70,-0.70,-0.47,-0.56,3.18,3.18,3.18
102.27,3.85,0.70,3.85,0.70,-0.70,-0.48,-0.57,3.15,3.15,3.15
103.29,3.82,0.70,3.82,0.70,-0.70,-0.49,-0.57,3.11,3.11,3.11
104.32,3.79,0.71,3.79,0.71,-0.71,-0.51,-0.58,3.08,3.08,3.08
105.37,3.76,0.71,3.76,0.71,-0.71,-0.52,-0.59,3.05,3.05,3.05
106.42,3.73,0.71,3.73,0.71,-0.71,-0.53,-0.60,3.02,3.02,3.01
107.48,3.70,0.71,3.70,0.71,-0.71,-0.55,-0.61,2.98,2.98,2.98
108.56,3.66,0.71,3.66,0.71,-0.72,-0.56,-0.62,2.94,2.94,2.95
109.64,3.62,0.71,3.62,0.71,-0.72,-0.57,-0.63,2.90,2.90,2.91
110.74,3.59,0.71,3.59,0.72,-0.72,-0.59,-0.63,2.86,2.86,2.87
111.85,3.55,0.72,3.55,0.72,-0.73,-0.60,-0.64,2.82,2.82,2.83
112.97,3.51,0.73,3.51,0.73,-0.73,-0.61,-0.65,2.78,2.78,2.78
114.10,3.48,0.74,3.48,0.74,-0.74,-0.63,-0.66,2.74,2.74,2.74
115.24,3.45,0.75,3.45,0.75,-0.74,-0.64,-0.66,2.70,2.70,2.70
116.39,3.41,0.75,3.41,0.75,-0.75,-0.65,-0.67,2.67,2.67,2.66
117.55,3.38,0.75,3.38,0.75,-0.75,-0.67,-0.68,2.63,2.63,2.63
118.73,3.34,0.75,3.34,0.75,-0.75,-0.68,-0.68,2.59,2.59,2.59
119.92,3.31,0.75,3.31,0.75,-0.75,-0.70,-0.69,2.55,2.55,2.56
121.12,3.27,0.75,3.27,0.75,-0.75,-0.71,-0.69,2.52,2.52,2.52
122.33,3.23,0.75,3.23,0.75,-0.75,-0.72,-0.69,2.48,2.48,2.48
123.55,3.19,0.76,3.19,0.76,-0.75,-0.74,-0.70,2.44,2.44,2.44
124.79,3.16,0.76,3.16,0.76,-0.75,-0.75,-0.70,2.40,2.40,2.40
126.03,3.12,0.76,3.12,0.76,-0.75,-0.76,-0.70,2.36,2.36,2.36
127.29,3.08,0.75,3.08,0.75,-0.75,-0.77,-0.70,2.33,2.33,2.33
128.57,3.04,0.75,3.04,0.75,-0.75,-0.78,-0.70,2.29,2.29,2.29
129.85,3.01,0.75,3.01,0.75,-0.75,-0.80,-0.70,2.25,2.25,2.25
131.15,2.97,0.75,2.97,0.75,-0.75,-0.81,-0.70,2.22,2.22,2.22
132.46,2.93,0.76,2.93,0.76,-0.75,-0.82,-0.69,2.18,2.18,2.18
133.79,2.90,0.76,2.90,0.76,-0.75,-0.83,-0.69,2.14,2.14,2.14
135.12,2.86,0.75,2.86,0.75,-0.75,-0.83,-0.69,2.11,2.11,2.11
136.48,2.82,0.75,2.82,0.75,-0.75,-0.84,-0.68,2.07,2.07,2.07
137.84,2.79,0.75,2.79,0.75,-0.75,-0.85,-0.68,2.03,2.03,2.04
139.22,2.75,0.75,2.75,0.75,-0.75,-0.86,-0.67,1.99,1.99,2.00
140.61,2.71,0.75,2.71,0.75,-0.75,-0.86,-0.67,1.96,1.96,1.96
142.02,2.67,0.75,2.67,0.76,-0.76,-0.87,-0.66,1.92,1.92,1.92
143.44,2.63,0.76,2.63,0.76,-0.76,-0.87,-0.66,1.88,1.88,1.88
144.87,2.60,0.76,2.60,0.76,-0.76,-0.87,-0.65,1.84,1.84,1.84
146.32,2.56,0.76,2.56,0.76,-0.76,-0.88,-0.65,1.80,1.80,1.80
147.78,2.52,0.76,2.52,0.76,-0.76,-0.88,-0.64,1.77,1.76,1.76
149.26,2.48,0.75,2.48,0.75,-0.75,-0.88,-0.63,1.73,1.73,1.73
150.75,2.44,0.75,2.44,0.75,-0.75,-0.88,-0.63,1.69,1.69,1.69
152.26,2.40,0.75,2.40,0.75,-0.75,-0.88,-0.62,1.65,1.65,1.65
153.78,2.36,0.74,2.36,0.74,-0.75,-0.87,-0.62,1.61,1.61,1.62
155.32,2.32,0.74,2.32,0.74,-0.74,-0.87,-0.61,1.58,1.58,1.58
156.88,2.28,0.74,2.28,0.74,-0.74,-0.87,-0.61,1.54,1.54,1.54
158.44,2.24,0.74,2.24,0.74,-0.74,-0.86,-0.60,1.50,1.50,1.50
160.03,2.20,0.74,2.20,0.74,-0.74,-0.86,-0.60,1.46,1.46,1.46
161.63,2.17,0.74,2.17,0.74,-0.74,-0.85,-0.59,1.43,1.43,1.42
163.24,2.13,0.74,2.13,0.74,-0.74,-0.84,-0.59,1.39,1.39,1.39
164.88,2.09,0.74,2.09,0.74,-0.74,-0.83,-0.58,1.35,1.35,1.35
166.53,2.05,0.74,2.05,0.74,-0.74,-0.83,-0.58,1.31,1.31,1.31
168.19,2.01,0.74,2.01,0.74,-0.74,-0.82,-0.58,1.27,1.27,1.27
169.87,1.97,0.74,1.97,0.74,-0.74,-0.81,-0.58,1.23,1.23,1.23
171.57,1.93,0.74,1.93,0.74,-0.74,-0.80,-0.57,1.19,1.19,1.19
173.29,1.89,0.74,1.89,0.74,-0.75,-0.79,-0.57,1.15,1.15,1.15
175.02,1.85,0.74,1.85,0.75,-0.75,-0.78,-0.57,1.10,1.10,1.11
176.77,1.81,0.76,1.81,0.76,-0.75,-0.76,-0.57,1.06,1.06,1.06
178.54,1.78,0.77,1.78,0.77,-0.76,-0.75,-0.57,1.02,1.02,1.01
180.32,1.74,0.77,1.74,0.77,-0.76,-0.74,-0.57,0.98,0.98,0.96
182.13,1.70,0.77,1.70,0.77,-0.76,-0.73,-0.57,0.94,0.94,0.93
183.95,1.66,0.76,1.66,0.76,-0.76,-0.72,-0.57,0.90,0.90,0.90
185.79,1.62,0.75,1.62,0.75,-0.76,-0.71,-0.57,0.86,0.86,0.87
187.65,1.58,0.74,1.58,0.74,-0.75,-0.69,-0.57,0.82,0.82,0.84
189.52,1.54,0.75,1.54,0.75,-0.75,-0.68,-0.58,0.79,0.79,0.79
191.42,1.50,0.75,1.50,0.74,-0.74,-0.67,-0.58,0.76,0.76,0.75
193.33,1.46,0.74,1.46,0.74,-0.73,-0.66,-0.58,0.73,0.73,0.72
195.27,1.42,0.73,1.42,0.73,-0.72,-0.65,-0.58,0.70,0.70,0.70
197.22,1.38,0.71,1.38,0.71,-0.71,-0.63,-0.59,0.67,0.67,0.67
199.19,1.34,0.70,1.34,0.69,-0.70,-0.62,-0.59,0.65,0.65,0.65
201.18,1.31,0.68,1.31,0.68,-0.69,-0.61,-0.60,0.62,0.62,0.63
203.19,1.27,0.66,1.27,0.66,-0.67,-0.60,-0.60,0.60,0.60,0.61
205.23,1.23,0.65,1.23,0.65,-0.66,-0.59,-0.61,0.57,0.57,0.58
207.28,1.19,0.64,1.19,0.64,-0.64,-0.58,-0.61,0.55,0.55,0.55
209.35,1.15,0.63,1.15,0.63,-0.62,-0.57,-0.62,0.53,0.53,0.52
211.44,1.11,0.61,1.11,0.61,-0.60,-0.56,-0.62,0.51,0.51,0.50
213.56,1.07,0.58,1.07,0.58,-0.58,-0.55,-0.63,0.49,0.49,0.49
215.69,1.03,0.55,1.03,0.55,-0.55,-0.54,-0.63,0.48,0.48,0.48
217.85,0.99,0.52,0.99,0.52,-0.51,-0.53,-0.64,0.48,0.48,0.47
220.03,0.95,0.48,0.95,0.48,-0.47,-0.52,-0.64,0.48,0.48,0.47
222.23,0.91,0.44,0.91,0.44,-0.43,-0.51,-0.65,0.47,0.47,0.47
224.45,0.87,0.39,0.87,0.39,-0.40,-0.50,-0.65,0.47,0.47,0.48
226.70,0.83,0.35,0.83,0.35,-0.36,-0.49,-0.66,0.46,0.46,0.48
228.96,0.78,0.32,0.78,0.32,-0.33,-0.48,-0.66,0.45,0.45,0.47
231.25,0.74,0.29,0.74,0.29,-0.31,-0.47,-0.67,0.44,0.44,0.45
233.57,0.70,0.28,0.70,0.28,-0.29,-0.47,-0.67,0.41,0.41,0.42
235.90,0.66,0.27,0.66,0.27,-0.27,-0.46,-0.68,0.39,0.39,0.38
238.26,0.62,0.27,0.62,0.27,-0.26,-0.45,-0.68,0.36,0.36,0.35
240.64,0.58,0.27,0.58,0.26,-0.26,-0.45,-0.68,0.32,0.32,0.31
243.05,0.54,0.26,0.54,0.26,-0.25,-0.44,-0.69,0.29,0.29,0.28
245.48,0.51,0.25,0.51,0.25,-0.25,-0.43,-0.69,0.25,0.25,0.25
247.93,0.47,0.25,0.47,0.25,-0.26,-0.43,-0.69,0.22,0.22,0.22
250.41,0.45,0.26,0.45,0.26,-0.26,-0.42,-0.69,0.18,0.18,0.19
252.92,0.43,0.27,0.43,0.27,-0.28,-0.42,-0.70,0.15,0.15,0.16
255.45,0.41,0.29,0.41,0.29,-0.30,-0.41,-0.70,0.12,0.12,0.12
258.00,0.41,0.31,0.41,0.32,-0.32,-0.41,-0.70,0.08,0.09,0.09
260.58,0.41,0.35,0.41,0.35,-0.35,-0.40,-0.70,0.05,0.05,0.06
263.19,0.41,0.38,0.41,0.38,-0.39,-0.40,-0.70,0.02,0.02,0.03
265.82,0.42,0.42,0.42,0.42,-0.42,-0.39,-0.70,-0.01,-0.01,-0.01
268.48,0.42,0.46,0.42,0.46,-0.46,-0.39,-0.70,-0.04,-0.04,-0.04
271.16,0.42,0.50,0.42,0.50,-0.49,-0.39,-0.69,-0.07,-0.07,-0.08
273.87,0.41,0.53,0.41,0.53,-0.52,-0.38,-0.69,-0.11,-0.11,-0.12
276.61,0.40,0.56,0.40,0.55,-0.55,-0.38,-0.69,-0.15,-0.15,-0.15
279.38,0.39,0.57,0.39,0.57,-0.57,-0.38,-0.69,-0.18,-0.18,-0.19
282.17,0.36,0.58,0.36,0.58,-0.58,-0.38,-0.69,-0.22,-0.21,-0.22
284.99,0.34,0.59,0.34,0.59,-0.59,-0.37,-0.69,-0.25,-0.25,-0.25
287.84,0.31,0.59,0.31,0.59,-0.59,-0.37,-0.68,-0.28,-0.28,-0.28
290.72,0.28,0.59,0.28,0.59,-0.59,-0.37,-0.68,-0.31,-0.31,-0.31
293.63,0.25,0.59,0.25,0.58,-0.59,-0.37,-0.68,-0.33,-0.33,-0.33
296.57,0.22,0.58,0.22,0.58,-0.59,-0.37,-0.68,-0.36,-0.36,-0.36
299.53,0.19,0.58,0.19,0.58,-0.58,-0.37,-0.68,-0.39,-0.39,-0.39
302.53,0.16,0.58,0.16,0.58,-0.58,-0.37,-0.68,-0.42,-0.42,-0.42
305.55,0.13,0.58,0.13,0.58,-0.59,-0.36,-0.67,-0.46,-0.46,-0.45
308.61,0.10,0.59,0.10,0.59,-0.59,-0.36,-0.67,-0.49,-0.49,-0.49
311.69,0.07,0.59,0.07,0.59,-0.59,-0.36,-0.67,-0.52,-0.52,-0.52
314.81,0.04,0.60,0.04,0.59,-0.59,-0.37,-0.67,-0.55,-0.55,-0.55
317.96,0.01,0.60,0.01,0.60,-0.60,-0.37,-0.67,-0.58,-0.58,-0.58
321.14,-0.02,0.60,-0.02,0.60,-0.60,-0.37,-0.67,-0.62,-0.62,-0.62
324.35,-0.05,0.60,-0.05,0.60,-0.60,-0.37,-0.67,-0.65,-0.65,-0.65
327.59,-0.07,0.60,-0.07,0.60,-0.60,-0.37,-0.68,-0.67,-0.67,-0.68
330.87,-0.10,0.60,-0.10,0.60,-0.60,-0.37,-0.68,-0.70,-0.70,-0.71
334.18,-0.13,0.61,-0.13,0.61,-0.60,-0.37,-0.68,-0.73,-0.73,-0.73
337.52,-0.16,0.61,-0.16,0.61,-0.61,-0.38,-0.68,-0.76,-0.76,-0.76
340.90,-0.18,0.61,-0.18,0.61,-0.61,-0.38,-0.69,-0.79,-0.79,-0.79
344.30,-0.21,0.61,-0.21,0.61,-0.61,-0.38,-0.69,-0.82,-0.82,-0.82
347.75,-0.24,0.62,-0.24,0.62,-0.62,-0.38,-0.69,-0.85,-0.85,-0.85
351.23,-0.26,0.62,-0.26,0.62,-0.62,-0.39,-0.70,-0.88,-0.88,-0.88
354.74,-0.29,0.63,-0.29,0.63,-0.63,-0.39,-0.70,-0.91,-0.91,-0.92
358.28,-0.31,0.63,-0.31,0.63,-0.63,-0.39,-0.71,-0.94,-0.94,-0.94
361.87,-0.33,0.64,-0.33,0.64,-0.64,-0.40,-0.71,-0.98,-0.98,-0.98
365.49,-0.36,0.65,-0.36,0.65,-0.65,-0.40,-0.72,-1.01,-1.01,-1.01
369.14,-0.38,0.66,-0.38,0.66,-0.66,-0.41,-0.73,-1.04,-1.04,-1.04
372.83,-0.41,0.67,-0.41,0.67,-0.67,-0.41,-0.74,-1.08,-1.08,-1.08
376.56,-0.43,0.68,-0.43,0.68,-0.69,-0.42,-0.74,-1.11,-1.11,-1.11
380.33,-0.45,0.70,-0.45,0.70,-0.70,-0.43,-0.75,-1.15,-1.15,-1.15
384.13,-0.47,0.71,-0.47,0.71,-0.72,-0.43,-0.76,-1.19,-1.19,-1.18
387.97,-0.49,0.73,-0.49,0.73,-0.73,-0.44,-0.77,-1.23,-1.23,-1.22
391.85,-0.52,0.74,-0.52,0.74,-0.75,-0.45,-0.78,-1.26,-1.26,-1.26
395.77,-0.54,0.76,-0.54,0.76,-0.76,-0.45,-0.79,-1.30,-1.30,-1.29
399.73,-0.56,0.77,-0.56,0.77,-0.77,-0.46,-0.80,-1.33,-1.33,-1.33
403.72,-0.58,0.78,-0.58,0.78,-0.78,-0.47,-0.81,-1.36,-1.36,-1.36
407.76,-0.60,0.79,-0.60,0.79,-0.78,-0.48,-0.82,-1.38,-1.38,-1.39
411.84,-0.62,0.79,-0.62,0.78,-0.77,-0.49,-0.84,-1.39,-1.39,-1.40
415.96,-0.64,0.77,-0.64,0.77,-0.75,-0.50,-0.85,-1.39,-1.39,-1.40
420.12,-0.65,0.74,-0.65,0.74,-0.73,-0.51,-0.86,-1.39,-1.39,-1.40
424.32,-0.67,0.71,-0.67,0.71,-0.71,-0.52,-0.87,-1.38,-1.38,-1.38
428.56,-0.69,0.67,-0.69,0.67,-0.68,-0.53,-0.88,-1.37,-1.37,-1.36
432.85,-0.71,0.64,-0.71,0.64,-0.66,-0.54,-0.90,-1.36,-1.36,-1.35
437.18,-0.73,0.62,-0.73,0.62,-0.64,-0.55,-0.91,-1.36,-1.36,-1.35
441.55,-0.74,0.61,-0.74,0.61,-0.62,-0.57,-0.92,-1.37,-1.37,-1.35
445.96,-0.76,0.61,-0.76,0.61,-0.62,-0.58,-0.93,-1.38,-1.38,-1.37
450.42,-0.77,0.62,-0.77,0.62,-0.62,-0.60,-0.94,-1.39,-1.39,-1.39
454.93,-0.79,0.63,-0.79,0.63,-0.63,-0.61,-0.95,-1.42,-1.42,-1.42
459.48,-0.80,0.65,-0.80,0.65,-0.64,-0.63,-0.97,-1.45,-1.45,-1.45
464.07,-0.82,0.66,-0.82,0.66,-0.66,-0.64,-0.98,-1.48,-1.48,-1.48
468.71,-0.84,0.68,-0.84,0.68,-0.68,-0.66,-0.99,-1.51,-1.51,-1.52
473.40,-0.85,0.70,-0.85,0.70,-0.69,-0.68,-1.00,-1.55,-1.55,-1.55
478.13,-0.87,0.71,-0.87,0.71,-0.71,-0.70,-1.01,-1.58,-1.58,-1.58
482.91,-0.88,0.73,-0.88,0.73,-0.73,-0.72,-1.02,-1.61,-1.61,-1.61
487.74,-0.89,0.75,-0.89,0.75,-0.75,-0.74,-1.02,-1.64,-1.64,-1.64
492.62,-0.91,0.77,-0.91,0.77,-0.77,-0.76,-1.03,-1.67,-1.67,-1.67
497.55,-0.92,0.79,-0.92,0.79,-0.78,-0.78,-1.04,-1.70,-1.70,-1.70
502.52,-0.93,0.80,-0.93,0.80,-0.80,-0.81,-1.05,-1.73,-1.73,-1.74
507.55,-0.94,0.82,-0.94,0.82,-0.82,-0.83,-1.05,-1.76,-1.76,-1.77
512.62,-0.95,0.84,-0.95,0.84,-0.84,-0.86,-1.06,-1.79,-1.79,-1.79
517.75,-0.96,0.86,-0.96,0.86,-0.86,-0.88,-1.06,-1.82,-1.82,-1.82
