frequency,raw,error,smoothed,error_smoothed,equalization,parametric_eq,fixed_band_eq,equalized_raw,equalized_smoothed,target
20.00,11.99,-0.04,11.99,-0.06,0.06,0.79,0.57,12.05,12.05,12.03
20.20,12.00,-0.06,12.00,-0.03,0.03,0.80,0.58,12.02,12.02,12.06
20.40,12.00,-0.02,12.00,-0.00,0.00,0.81,0.60,12.00,12.00,12.02
20.61,12.00,0.04,11.99,0.01,-0.01,0.83,0.62,11.99,11.99,11.96
20.81,11.98,0.02,11.98,0.02,-0.01,0.84,0.63,11.97,11.97,11.96
21.02,11.95,-0.01,11.95,-0.00,0.01,0.85,0.65,11.96,11.96,11.96
21.23,11.92,-0.04,11.92,-0.04,0.03,0.87,0.67,11.95,11.95,11.96
21.44,11.88,-0.08,11.88,-0.07,0.06,0.88,0.68,11.95,11.95,11.96
21.66,11.85,-0.11,11.85,-0.11,0.11,0.89,0.70,11.96,11.96,11.96
21.87,11.82,-0.14,11.82,-0.16,0.17,0.91,0.72,11.98,11.98,11.96
22.09,11.79,-0.23,11.79,-0.23,0.23,0.92,0.74,12.03,12.03,12.02
22.31,11.77,-0.32,11.77,-0.32,0.31,0.93,0.76,12.08,12.08,12.10
22.54,11.76,-0.41,11.76,-0.41,0.40,0.95,0.78,12.15,12.15,12.17
22.76,11.75,-0.50,11.75,-0.50,0.49,0.96,0.80,12.25,12.25,12.25
22.99,11.75,-0.61,11.75,-0.61,0.61,0.97,0.83,12.36,12.36,12.35
23.22,11.74,-0.73,11.74,-0.73,0.75,0.98,0.85,12.49,12.49,12.47
23.45,11.73,-0.89,11.73,-0.86,0.91,0.99,0.87,12.65,12.65,12.63
23.69,11.72,-1.00,11.72,-1.02,1.09,1.00,0.89,12.82,12.82,12.72
23.92,11.71,-1.17,11.71,-1.21,1.29,1.01,0.92,13.00,13.00,12.88
24.16,11.69,-1.43,11.69,-1.41,1.47,1.02,0.94,13.16,13.16,13.12
24.40,11.67,-1.63,11.67,-1.61,1.61,1.03,0.97,13.28,13.28,13.30
24.65,11.64,-1.76,11.64,-1.77,1.69,1.03,0.99,13.32,13.32,13.40
24.89,11.61,-1.85,11.61,-1.87,1.68,1.03,1.02,13.29,13.29,13.46
25.14,11.58,-1.88,11.58,-1.86,1.60,1.04,1.04,13.18,13.18,13.46
25.39,11.54,-1.76,11.54,-1.67,1.47,1.04,1.07,13.01,13.01,13.30
25.65,11.50,-1.36,11.50,-1.34,1.31,1.04,1.09,12.81,12.81,12.86
25.91,11.46,-0.88,11.46,-0.97,1.13,1.04,1.12,12.59,12.59,12.35
26.16,11.42,-0.66,11.42,-0.69,0.96,1.04,1.15,12.37,12.37,12.08
26.43,11.37,-0.59,11.37,-0.59,0.82,1.04,1.18,12.18,12.18,11.96
26.69,11.31,-0.64,11.31,-0.64,0.73,1.06,1.20,12.04,12.04,11.96
26.96,11.26,-0.73,11.26,-0.72,0.70,1.07,1.23,11.96,11.96,12.00
27.23,11.22,-0.84,11.22,-0.81,0.73,1.10,1.26,11.95,11.95,12.06
27.50,11.18,-0.88,11.18,-0.89,0.81,1.13,1.28,11.99,11.99,12.06
27.77,11.15,-0.97,11.15,-0.97,0.92,1.17,1.31,12.07,12.07,12.11
28.05,11.12,-1.05,11.12,-1.05,1.04,1.21,1.34,12.16,12.16,12.17
28.33,11.09,-1.15,11.09,-1.13,1.16,1.26,1.36,12.25,12.25,12.24
28.62,11.05,-1.21,11.05,-1.22,1.27,1.30,1.39,12.32,12.32,12.26
28.90,11.01,-1.30,11.01,-1.34,1.38,1.35,1.41,12.39,12.39,12.31
29.19,10.96,-1.50,10.95,-1.48,1.49,1.40,1.44,12.45,12.44,12.45
29.48,10.90,-1.63,10.90,-1.61,1.59,1.44,1.46,12.49,12.49,12.53
29.78,10.85,-1.71,10.85,-1.72,1.66,1.48,1.49,12.51,12.51,12.56
30.08,10.80,-1.77,10.81,-1.80,1.72,1.52,1.51,12.52,12.53,12.57
30.38,10.77,-1.86,10.78,-1.83,1.76,1.56,1.53,12.53,12.54,12.63
30.68,10.76,-1.85,10.76,-1.83,1.78,1.60,1.56,12.54,12.54,12.61
30.99,10.75,-1.79,10.75,-1.80,1.80,1.63,1.58,12.55,12.55,12.54
31.30,10.73,-1.75,10.73,-1.76,1.82,1.67,1.60,12.55,12.55,12.48
31.61,10.70,-1.76,10.69,-1.77,1.87,1.70,1.62,12.57,12.57,12.46
31.93,10.64,-1.84,10.64,-1.85,1.96,1.74,1.64,12.60,12.59,12.48
32.24,10.56,-1.98,10.56,-1.97,2.07,1.77,1.66,12.63,12.63,12.55
32.57,10.48,-2.13,10.48,-2.13,2.19,1.80,1.67,12.67,12.68,12.61
32.89,10.41,-2.30,10.41,-2.32,2.31,1.83,1.69,12.72,12.73,12.71
33.22,10.36,-2.51,10.36,-2.51,2.42,1.86,1.71,12.78,12.78,12.87
33.55,10.32,-2.68,10.33,-2.65,2.50,1.90,1.72,12.82,12.83,13.00
33.89,10.31,-2.71,10.31,-2.69,2.54,1.93,1.74,12.86,12.86,13.02
34.23,10.31,-2.63,10.31,-2.61,2.55,1.96,1.76,12.86,12.85,12.94
34.57,10.30,-2.44,10.30,-2.48,2.51,1.99,1.77,12.81,12.81,12.74
34.92,10.28,-2.34,10.28,-2.36,2.44,2.02,1.79,12.72,12.72,12.62
35.27,10.25,-2.29,10.25,-2.28,2.35,2.05,1.81,12.60,12.60,12.55
35.62,10.23,-2.25,10.23,-2.24,2.24,2.08,1.82,12.47,12.47,12.48
35.97,10.22,-2.19,10.22,-2.18,2.15,2.11,1.84,12.36,12.37,12.40
36.33,10.22,-2.12,10.22,-2.11,2.08,2.14,1.86,12.30,12.30,12.34
36.70,10.22,-2.05,10.23,-2.04,2.04,2.17,1.88,12.27,12.27,12.28
37.06,10.22,-1.98,10.22,-1.99,2.04,2.20,1.90,12.26,12.26,12.21
37.43,10.19,-1.97,10.19,-1.98,2.07,2.23,1.92,12.26,12.25,12.16
37.81,10.13,-2.03,10.13,-2.04,2.12,2.25,1.94,12.25,12.25,12.16
38.19,10.07,-2.15,10.07,-2.15,2.19,2.28,1.96,12.26,12.26,12.22
38.57,10.00,-2.29,10.00,-2.28,2.28,2.31,1.98,12.27,12.28,12.29
38.95,9.94,-2.41,9.94,-2.42,2.37,2.33,2.01,12.31,12.31,12.35
39.34,9.89,-2.53,9.89,-2.53,2.45,2.35,2.03,12.34,12.34,12.43
39.74,9.85,-2.61,9.85,-2.60,2.52,2.38,2.06,12.38,12.37,12.46
40.14,9.81,-2.64,9.81,-2.63,2.58,2.40,2.09,12.40,12.39,12.45
40.54,9.77,-2.62,9.77,-2.62,2.63,2.41,2.12,12.40,12.40,12.39
40.94,9.73,-2.59,9.73,-2.59,2.65,2.43,2.15,12.38,12.38,12.32
41.35,9.69,-2.57,9.69,-2.58,2.66,2.44,2.19,12.35,12.36,12.26
41.76,9.66,-2.60,9.67,-2.61,2.66,2.45,2.22,12.32,12.33,12.26
42.18,9.65,-2.66,9.65,-2.66,2.64,2.46,2.26,12.29,12.29,12.31
42.60,9.64,-2.71,9.64,-2.68,2.61,2.46,2.30,12.25,12.25,12.34
43.03,9.62,-2.65,9.62,-2.64,2.56,2.45,2.34,12.19,12.19,12.27
43.46,9.61,-2.53,9.61,-2.54,2.49,2.44,2.38,12.10,12.10,12.14
43.90,9.59,-2.41,9.59,-2.42,2.39,2.43,2.42,11.99,11.99,12.00
44.33,9.58,-2.30,9.58,-2.33,2.28,2.40,2.47,11.86,11.86,11.88
44.78,9.56,-2.24,9.55,-2.20,2.18,2.38,2.52,11.73,11.73,11.80
45.23,9.53,-2.10,9.52,-2.06,2.09,2.35,2.57,11.62,11.62,11.63
45.68,9.49,-1.88,9.49,-1.96,2.05,2.33,2.62,11.54,11.54,11.37
46.13,9.45,-1.91,9.45,-1.91,2.05,2.31,2.67,11.50,11.50,11.36
46.60,9.41,-1.99,9.41,-1.98,2.09,2.31,2.73,11.50,11.50,11.40
47.06,9.37,-2.11,9.37,-2.15,2.16,2.32,2.78,11.53,11.54,11.49
47.53,9.34,-2.35,9.34,-2.32,2.27,2.36,2.84,11.60,11.60,11.69
48.01,9.30,-2.50,9.30,-2.49,2.40,2.42,2.90,11.70,11.70,11.80
48.49,9.26,-2.62,9.26,-2.63,2.55,2.50,2.96,11.81,11.81,11.87
48.97,9.20,-2.74,9.20,-2.72,2.71,2.59,3.03,11.91,11.91,11.94
49.46,9.14,-2.82,9.14,-2.82,2.87,2.69,3.09,12.01,12.01,11.96
49.96,9.07,-2.92,9.06,-2.94,3.01,2.79,3.15,12.07,12.07,11.98
50.46,8.97,-3.08,8.97,-3.08,3.14,2.89,3.22,12.11,12.11,12.05
50.96,8.88,-3.24,8.88,-3.24,3.25,2.98,3.29,12.13,12.13,12.12
51.47,8.78,-3.38,8.78,-3.37,3.34,3.07,3.36,12.12,12.12,12.16
51.99,8.69,-3.47,8.70,-3.45,3.39,3.15,3.42,12.09,12.09,12.16
52.51,8.63,-3.47,8.63,-3.48,3.40,3.23,3.49,12.03,12.03,12.10
53.03,8.57,-3.45,8.58,-3.47,3.36,3.30,3.56,11.94,11.94,12.03
53.56,8.54,-3.40,8.54,-3.40,3.29,3.37,3.63,11.84,11.83,11.94
54.10,8.52,-3.29,8.52,-3.23,3.19,3.43,3.69,11.71,11.71,11.81
54.64,8.50,-3.05,8.50,-3.04,3.08,3.49,3.76,11.58,11.58,11.55
55.18,8.48,-2.78,8.48,-2.87,2.97,3.54,3.82,11.46,11.45,11.26
55.74,8.46,-2.80,8.46,-2.79,2.89,3.59,3.88,11.35,11.35,11.26
56.29,8.43,-2.83,8.43,-2.79,2.84,3.64,3.94,11.27,11.27,11.26
56.86,8.40,-2.86,8.40,-2.85,2.85,3.68,4.00,11.25,11.25,11.26
57.42,8.36,-2.90,8.36,-2.91,2.92,3.73,4.05,11.27,11.28,11.26
58.00,8.31,-3.01,8.30,-3.02,3.06,3.77,4.10,11.36,11.36,11.31
58.58,8.23,-3.17,8.23,-3.18,3.25,3.81,4.15,11.48,11.48,11.40
59.16,8.14,-3.41,8.14,-3.39,3.47,3.85,4.19,11.61,11.61,11.55
59.76,8.03,-3.65,8.03,-3.67,3.70,3.89,4.23,11.74,11.74,11.68
60.35,7.91,-3.94,7.91,-3.96,3.94,3.92,4.26,11.84,11.84,11.84
60.96,7.77,-4.28,7.76,-4.23,4.15,3.95,4.29,11.92,11.92,12.04
61.57,7.62,-4.44,7.61,-4.43,4.34,3.99,4.32,11.96,11.95,12.06
62.18,7.47,-4.55,7.47,-4.57,4.48,4.02,4.34,11.94,11.94,12.02
62.80,7.33,-4.62,7.33,-4.63,4.56,4.05,4.35,11.89,11.90,11.95
63.43,7.23,-4.65,7.23,-4.64,4.60,4.08,4.36,11.83,11.82,11.89
64.07,7.15,-4.62,7.17,-4.60,4.58,4.11,4.37,11.74,11.75,11.78
64.71,7.14,-4.51,7.14,-4.52,4.54,4.13,4.37,11.68,11.69,11.65
65.35,7.15,-4.43,7.15,-4.45,4.49,4.16,4.36,11.64,11.64,11.58
66.01,7.17,-4.39,7.16,-4.39,4.45,4.18,4.36,11.61,11.61,11.56
66.67,7.16,-4.38,7.16,-4.36,4.42,4.21,4.34,11.58,11.58,11.54
67.33,7.13,-4.33,7.13,-4.37,4.41,4.23,4.33,11.54,11.54,11.47
68.01,7.07,-4.39,7.07,-4.39,4.42,4.25,4.31,11.50,11.49,11.46
68.69,6.98,-4.45,6.98,-4.43,4.44,4.27,4.28,11.42,11.43,11.43
69.37,6.89,-4.47,6.89,-4.50,4.47,4.29,4.26,11.36,11.36,11.36
70.07,6.81,-4.55,6.82,-4.53,4.48,4.31,4.23,11.30,11.30,11.36
70.77,6.77,-4.56,6.77,-4.54,4.48,4.32,4.20,11.25,11.25,11.33
71.48,6.74,-4.52,6.74,-4.52,4.45,4.34,4.17,11.20,11.20,11.26
72.19,6.73,-4.46,6.73,-4.47,4.41,4.35,4.14,11.14,11.14,11.19
72.91,6.72,-4.40,6.72,-4.39,4.37,4.37,4.10,11.09,11.09,11.12
73.64,6.70,-4.34,6.70,-4.31,4.34,4.38,4.07,11.04,11.04,11.03
74.38,6.67,-4.23,6.67,-4.25,4.35,4.39,4.04,11.02,11.02,10.90
75.12,6.64,-4.22,6.64,-4.23,4.38,4.40,4.00,11.02,11.02,10.86
75.87,6.60,-4.28,6.60,-4.28,4.43,4.41,3.97,11.03,11.03,10.88
76.63,6.56,-4.39,6.56,-4.43,4.48,4.42,3.94,11.03,11.03,10.94
77.40,6.52,-4.61,6.52,-4.59,4.51,4.42,3.91,11.02,11.02,11.12
78.17,6.47,-4.77,6.47,-4.72,4.52,4.43,3.88,10.99,10.99,11.24
78.95,6.42,-4.75,6.42,-4.76,4.52,4.44,3.85,10.94,10.94,11.17
79.74,6.37,-4.67,6.37,-4.64,4.51,4.44,3.82,10.89,10.88,11.04
80.54,6.32,-4.50,6.32,-4.45,4.51,4.44,3.80,10.83,10.83,10.82
81.35,6.26,-4.22,6.26,-4.29,4.51,4.44,3.78,10.77,10.77,10.48
82.16,6.20,-4.19,6.20,-4.22,4.50,4.44,3.76,10.70,10.70,10.40
82.98,6.14,-4.28,6.14,-4.31,4.48,4.44,3.74,10.62,10.62,10.42
83.81,6.07,-4.49,6.07,-4.50,4.46,4.44,3.73,10.54,10.54,10.56
84.65,6.00,-4.70,6.00,-4.64,4.43,4.44,3.72,10.44,10.44,10.70
85.50,5.93,-4.70,5.93,-4.66,4.40,4.44,3.71,10.33,10.33,10.63
86.35,5.86,-4.54,5.86,-4.53,4.35,4.43,3.70,10.21,10.21,10.40
87.22,5.79,-4.28,5.79,-4.32,4.28,4.43,3.70,10.06,10.06,10.07
88.09,5.71,-4.10,5.71,-4.10,4.19,4.42,3.70,9.90,9.90,9.81
88.97,5.64,-3.96,5.64,-3.94,4.10,4.42,3.70,9.74,9.74,9.60
89.86,5.57,-3.82,5.57,-3.86,4.02,4.41,3.71,9.59,9.59,9.39
90.76,5.50,-3.85,5.50,-3.86,3.98,4.40,3.71,9.48,9.48,9.36
91.66,5.44,-3.94,5.44,-3.94,3.98,4.39,3.72,9.42,9.42,9.39
92.58,5.38,-4.07,5.38,-4.08,4.02,4.38,3.74,9.40,9.40,9.45
93.51,5.32,-4.20,5.32,-4.18,4.10,4.37,3.75,9.42,9.42,9.52
94.44,5.26,-4.27,5.26,-4.25,4.19,4.36,3.77,9.44,9.44,9.53
95.39,5.20,-4.26,5.20,-4.27,4.25,4.35,3.79,9.45,9.45,9.46
96.34,5.14,-4.25,5.14,-4.29,4.29,4.34,3.82,9.43,9.43,9.39
97.30,5.09,-4.31,5.09,-4.33,4.30,4.33,3.84,9.39,9.39,9.40
98.28,5.05,-4.40,5.06,-4.36,4.28,4.31,3.87,9.33,9.34,9.45
99.26,5.03,-4.36,5.03,-4.32,4.25,4.30,3.90,9.28,9.28,9.38
100.25,5.00,-4.22,4.99,-4.23,4.24,4.28,3.94,9.23,9.23,9.22
101.25,4.95,-4.10,4.94,-4.15,4.24,4.27,3.97,9.19,9.18,9.05
102.27,4.87,-4.13,4.86,-4.13,4.27,4.25,4.00,9.13,9.13,9.00
103.29,4.77,-4.19,4.77,-4.19,4.30,4.24,4.04,9.07,9.07,8.96
104.32,4.66,-4.30,4.67,-4.29,4.33,4.22,4.08,8.99,8.99,8.96
105.37,4.57,-4.39,4.57,-4.39,4.34,4.20,4.12,8.91,8.91,8.96
106.42,4.48,-4.48,4.48,-4.50,4.35,4.18,4.15,8.83,8.83,8.96
107.48,4.40,-4.53,4.41,-4.52,4.35,4.17,4.19,8.76,8.76,8.93
108.56,4.34,-4.54,4.34,-4.44,4.35,4.15,4.23,8.69,8.69,8.88
109.64,4.28,-4.25,4.28,-4.30,4.33,4.13,4.27,8.61,8.61,8.54
110.74,4.23,-4.09,4.23,-4.16,4.29,4.11,4.30,8.52,8.52,8.32
111.85,4.17,-4.09,4.17,-4.09,4.25,4.09,4.34,8.42,8.42,8.27
112.97,4.12,-4.14,4.12,-4.13,4.20,4.07,4.37,8.32,8.32,8.26
114.10,4.07,-4.19,4.07,-4.18,4.15,4.05,4.40,8.22,8.22,8.26
115.24,4.03,-4.21,4.03,-4.21,4.11,4.04,4.43,8.14,8.14,8.25
116.39,4.01,-4.18,4.00,-4.18,4.08,4.02,4.46,8.09,8.09,8.19
117.55,3.98,-4.12,3.99,-4.10,4.05,4.00,4.48,8.04,8.04,8.10
118.73,3.98,-4.00,3.98,-4.00,4.01,3.98,4.50,8.00,8.00,7.99
119.92,3.99,-3.88,3.99,-3.92,3.96,3.96,4.51,7.95,7.95,7.87
121.12,3.99,-3.87,3.99,-3.86,3.90,3.94,4.52,7.89,7.89,7.86
122.33,4.00,-3.85,4.00,-3.83,3.84,3.92,4.52,7.84,7.84,7.84
123.55,3.99,-3.79,3.99,-3.80,3.81,3.90,4.53,7.80,7.80,7.78
124.79,3.98,-3.78,3.98,-3.77,3.79,3.88,4.52,7.78,7.77,7.76
126.03,3.95,-3.76,3.95,-3.76,3.80,3.86,4.51,7.75,7.74,7.71
127.29,3.89,-3.76,3.89,-3.79,3.81,3.84,4.50,7.70,7.70,7.66
128.57,3.82,-3.84,3.82,-3.83,3.83,3.82,4.48,7.65,7.65,7.66
129.85,3.74,-3.87,3.74,-3.86,3.84,3.80,4.46,7.58,7.58,7.62
131.15,3.66,-3.88,3.67,-3.86,3.84,3.78,4.44,7.50,7.50,7.54
132.46,3.59,-3.82,3.60,-3.84,3.82,3.76,4.40,7.41,7.41,7.41
133.79,3.53,-3.79,3.53,-3.80,3.77,3.74,4.37,7.30,7.30,7.32
135.12,3.48,-3.76,3.48,-3.75,3.69,3.72,4.33,7.17,7.17,7.25
136.48,3.43,-3.68,3.43,-3.67,3.60,3.70,4.29,7.03,7.03,7.11
137.84,3.39,-3.55,3.38,-3.54,3.49,3.69,4.25,6.88,6.88,6.93
139.22,3.33,-3.39,3.33,-3.39,3.40,3.67,4.20,6.73,6.73,6.73
140.61,3.28,-3.24,3.28,-3.26,3.34,3.65,4.15,6.61,6.61,6.52
142.02,3.22,-3.19,3.22,-3.19,3.31,3.63,4.10,6.53,6.53,6.41
143.44,3.16,-3.20,3.16,-3.19,3.32,3.61,4.05,6.48,6.48,6.36
144.87,3.10,-3.26,3.10,-3.27,3.36,3.60,4.00,6.46,6.46,6.36
146.32,3.04,-3.39,3.04,-3.40,3.42,3.58,3.95,6.46,6.46,6.43
147.78,2.98,-3.55,2.98,-3.57,3.49,3.56,3.89,6.47,6.48,6.54
149.26,2.93,-3.73,2.93,-3.70,3.56,3.54,3.84,6.49,6.49,6.66
150.75,2.88,-3.78,2.88,-3.75,3.62,3.53,3.78,6.50,6.50,6.66
152.26,2.82,-3.71,2.82,-3.72,3.66,3.51,3.73,6.48,6.48,6.53
153.78,2.76,-3.62,2.76,-3.64,3.68,3.49,3.68,6.44,6.44,6.38
155.32,2.71,-3.58,2.71,-3.58,3.66,3.48,3.63,6.37,6.37,6.29
156.88,2.66,-3.56,2.66,-3.57,3.61,3.46,3.58,6.27,6.27,6.22
158.44,2.61,-3.55,2.61,-3.57,3.55,3.45,3.53,6.16,6.16,6.16
160.03,2.56,-3.59,2.56,-3.53,3.49,3.43,3.48,6.05,6.05,6.16
161.63,2.52,-3.48,2.52,-3.48,3.45,3.42,3.44,5.97,5.97,6.00
163.24,2.47,-3.38,2.47,-3.41,3.43,3.40,3.39,5.90,5.90,5.85
164.88,2.42,-3.34,2.42,-3.33,3.42,3.39,3.35,5.84,5.84,5.77
166.53,2.37,-3.34,2.37,-3.34,3.41,3.37,3.31,5.78,5.78,5.71
168.19,2.32,-3.35,2.32,-3.39,3.40,3.36,3.28,5.72,5.73,5.67
169.87,2.27,-3.48,2.27,-3.42,3.39,3.35,3.24,5.67,5.67,5.75
171.57,2.23,-3.45,2.23,-3.46,3.38,3.33,3.21,5.61,5.61,5.68
173.29,2.19,-3.43,2.19,-3.44,3.37,3.32,3.18,5.56,5.56,5.62
175.02,2.14,-3.41,2.14,-3.37,3.35,3.31,3.15,5.50,5.50,5.56
176.77,2.10,-3.29,2.10,-3.32,3.33,3.29,3.13,5.42,5.42,5.38
178.54,2.05,-3.26,2.05,-3.28,3.29,3.28,3.10,5.34,5.34,5.31
180.32,2.00,-3.25,2.00,-3.24,3.26,3.27,3.08,5.26,5.26,5.25
182.13,1.95,-3.24,1.95,-3.21,3.24,3.26,3.06,5.19,5.19,5.19
183.95,1.89,-3.17,1.89,-3.18,3.23,3.24,3.05,5.12,5.12,5.06
185.79,1.84,-3.14,1.84,-3.19,3.23,3.23,3.03,5.07,5.07,4.99
187.65,1.79,-3.26,1.79,-3.24,3.24,3.22,3.02,5.03,5.03,5.05
189.52,1.75,-3.31,1.75,-3.30,3.26,3.21,3.01,5.00,5.00,5.06
191.42,1.70,-3.34,1.70,-3.33,3.28,3.20,3.00,4.98,4.98,5.05
193.33,1.66,-3.32,1.66,-3.31,3.30,3.18,3.00,4.96,4.96,4.98
195.27,1.62,-3.28,1.62,-3.30,3.32,3.17,3.00,4.94,4.93,4.90
197.22,1.57,-3.29,1.57,-3.30,3.33,3.16,3.00,4.90,4.90,4.86
199.19,1.52,-3.34,1.52,-3.31,3.33,3.15,3.00,4.85,4.85,4.85
201.18,1.46,-3.32,1.46,-3.32,3.32,3.14,3.00,4.79,4.79,4.79
203.19,1.41,-3.31,1.41,-3.31,3.30,3.13,3.00,4.71,4.71,4.72
205.23,1.37,-3.28,1.37,-3.29,3.26,3.12,3.01,4.63,4.63,4.65
207.28,1.33,-3.26,1.33,-3.24,3.20,3.11,3.01,4.53,4.53,4.58
209.35,1.29,-3.18,1.29,-3.19,3.13,3.10,3.02,4.42,4.42,4.47
211.44,1.25,-3.09,1.25,-3.11,3.07,3.09,3.02,4.32,4.32,4.34
213.56,1.21,-3.06,1.21,-2.98,3.00,3.08,3.03,4.22,4.22,4.27
215.69,1.18,-2.86,1.18,-2.88,2.95,3.07,3.04,4.13,4.13,4.03
217.85,1.14,-2.75,1.13,-2.83,2.92,3.05,3.05,4.05,4.05,3.89
220.03,1.09,-2.87,1.09,-2.83,2.90,3.04,3.06,3.99,3.99,3.96
222.23,1.04,-2.92,1.04,-2.90,2.91,3.03,3.07,3.96,3.96,3.96
224.45,1.00,-2.96,1.00,-2.97,2.94,3.02,3.07,3.94,3.94,3.96
226.70,0.95,-3.01,0.95,-3.01,2.99,3.01,3.08,3.94,3.94,3.96
228.96,0.91,-3.05,0.91,-3.05,3.05,3.00,3.09,3.95,3.95,3.96
231.25,0.86,-3.10,0.86,-3.10,3.09,2.99,3.09,3.95,3.95,3.96
233.57,0.82,-3.14,0.82,-3.15,3.12,2.98,3.09,3.94,3.94,3.96
235.90,0.78,-3.18,0.78,-3.15,3.12,2.97,3.10,3.90,3.90,3.96
238.26,0.73,-3.14,0.73,-3.13,3.09,2.96,3.10,3.83,3.83,3.87
240.64,0.69,-3.05,0.69,-3.09,3.05,2.95,3.09,3.75,3.75,3.74
243.05,0.65,-3.03,0.65,-3.01,3.00,2.93,3.09,3.66,3.66,3.68
245.48,0.61,-2.95,0.61,-2.93,2.95,2.92,3.08,3.56,3.56,3.56
247.93,0.57,-2.85,0.57,-2.86,2.89,2.91,3.07,3.45,3.45,3.41
250.41,0.52,-2.77,0.52,-2.77,2.83,2.90,3.06,3.35,3.35,3.29
252.92,0.48,-2.73,0.48,-2.74,2.77,2.89,3.05,3.25,3.25,3.21
255.45,0.44,-2.72,0.44,-2.73,2.72,2.87,3.03,3.16,3.16,3.16
258.00,0.41,-2.75,0.41,-2.73,2.68,2.86,3.01,3.09,3.09,3.16
260.58,0.37,-2.72,0.37,-2.70,2.67,2.85,2.99,3.04,3.04,3.09
263.19,0.34,-2.66,0.34,-2.65,2.68,2.84,2.97,3.02,3.01,3.00
265.82,0.30,-2.57,0.30,-2.63,2.70,2.83,2.95,3.00,3.00,2.87
268.48,0.26,-2.66,0.27,-2.64,2.72,2.81,2.92,2.99,2.99,2.92
271.16,0.23,-2.73,0.23,-2.71,2.74,2.80,2.89,2.97,2.97,2.96
273.87,0.19,-2.77,0.19,-2.80,2.74,2.79,2.86,2.94,2.94,2.96
276.61,0.16,-2.87,0.16,-2.84,2.74,2.77,2.83,2.90,2.90,3.02
279.38,0.12,-2.87,0.12,-2.83,2.74,2.76,2.80,2.86,2.86,2.99
282.17,0.09,-2.76,0.09,-2.77,2.73,2.75,2.76,2.82,2.82,2.85
284.99,0.06,-2.65,0.05,-2.67,2.72,2.73,2.73,2.77,2.77,2.71
287.84,0.02,-2.59,0.02,-2.60,2.70,2.72,2.69,2.71,2.71,2.61
290.72,-0.02,-2.58,-0.02,-2.59,2.66,2.70,2.66,2.64,2.64,2.56
293.63,-0.05,-2.61,-0.05,-2.61,2.63,2.69,2.62,2.57,2.57,2.56
296.57,-0.09,-2.65,-0.09,-2.65,2.60,2.67,2.59,2.51,2.51,2.56
299.53,-0.13,-2.66,-0.13,-2.65,2.58,2.66,2.55,2.45,2.45,2.53
302.53,-0.17,-2.64,-0.17,-2.61,2.58,2.64,2.52,2.41,2.41,2.47
305.55,-0.20,-2.54,-0.20,-2.56,2.58,2.63,2.48,2.37,2.37,2.33
308.61,-0.24,-2.50,-0.24,-2.53,2.58,2.61,2.45,2.34,2.34,2.26
311.69,-0.28,-2.54,-0.28,-2.53,2.58,2.60,2.42,2.30,2.30,2.26
314.81,-0.31,-2.57,-0.31,-2.55,2.57,2.58,2.39,2.26,2.26,2.26
317.96,-0.34,-2.56,-0.34,-2.56,2.55,2.57,2.36,2.21,2.21,2.22
321.14,-0.37,-2.53,-0.37,-2.56,2.51,2.55,2.33,2.14,2.14,2.16
324.35,-0.40,-2.56,-0.40,-2.56,2.47,2.53,2.30,2.07,2.07,2.16
327.59,-0.43,-2.54,-0.43,-2.50,2.42,2.52,2.27,1.99,1.99,2.11
330.87,-0.46,-2.45,-0.46,-2.40,2.37,2.50,2.25,1.91,1.91,1.99
334.18,-0.50,-2.22,-0.50,-2.29,2.33,2.49,2.22,1.84,1.84,1.72
337.52,-0.53,-2.19,-0.53,-2.19,2.31,2.47,2.20,1.78,1.78,1.66
340.90,-0.57,-2.21,-0.57,-2.16,2.30,2.45,2.18,1.73,1.73,1.64
344.30,-0.60,-2.17,-0.60,-2.23,2.30,2.44,2.16,1.70,1.70,1.57
347.75,-0.63,-2.30,-0.63,-2.31,2.30,2.42,2.14,1.66,1.66,1.67
351.23,-0.67,-2.43,-0.67,-2.39,2.31,2.40,2.12,1.64,1.64,1.76
354.74,-0.70,-2.46,-0.70,-2.45,2.33,2.38,2.11,1.63,1.63,1.76
358.28,-0.73,-2.42,-0.73,-2.42,2.34,2.37,2.09,1.61,1.61,1.69
361.87,-0.76,-2.34,-0.76,-2.34,2.34,2.35,2.08,1.58,1.58,1.58
365.49,-0.78,-2.24,-0.79,-2.26,2.31,2.33,2.07,1.53,1.53,1.45
369.14,-0.82,-2.21,-0.82,-2.22,2.26,2.32,2.06,1.45,1.45,1.39
372.83,-0.85,-2.21,-0.85,-2.21,2.21,2.30,2.06,1.36,1.36,1.36
376.56,-0.88,-2.22,-0.88,-2.18,2.15,2.28,2.05,1.27,1.27,1.34
380.33,-0.92,-2.13,-0.92,-2.14,2.12,2.27,2.05,1.20,1.20,1.21
384.13,-0.95,-2.06,-0.95,-2.08,2.10,2.25,2.04,1.15,1.15,1.12
387.97,-0.98,-2.04,-0.98,-2.05,2.10,2.23,2.04,1.12,1.12,1.06
391.85,-1.01,-2.07,-1.01,-2.06,2.11,2.21,2.04,1.11,1.11,1.06
395.77,-1.04,-2.10,-1.04,-2.10,2.13,2.20,2.04,1.09,1.09,1.06
399.73,-1.06,-2.15,-1.06,-2.17,2.15,2.18,2.05,1.08,1.08,1.09
403.72,-1.09,-2.24,-1.09,-2.22,2.17,2.16,2.05,1.09,1.09,1.15
407.76,-1.11,-2.27,-1.11,-2.25,2.20,2.15,2.05,1.10,1.10,1.16
411.84,-1.13,-2.26,-1.13,-2.25,2.24,2.13,2.06,1.11,1.11,1.13
415.96,-1.15,-2.21,-1.15,-2.24,2.26,2.11,2.06,1.11,1.11,1.06
420.12,-1.18,-2.23,-1.18,-2.24,2.28,2.10,2.07,1.10,1.10,1.06
424.32,-1.20,-2.26,-1.20,-2.25,2.27,2.08,2.08,1.07,1.08,1.06
428.56,-1.22,-2.28,-1.22,-2.28,2.26,2.06,2.09,1.04,1.04,1.06
432.85,-1.23,-2.29,-1.23,-2.28,2.24,2.05,2.09,1.01,1.01,1.06
437.18,-1.25,-2.26,-1.25,-2.26,2.22,2.03,2.10,0.97,0.97,1.01
441.55,-1.26,-2.21,-1.26,-2.21,2.21,2.02,2.11,0.94,0.94,0.95
445.96,-1.28,-2.16,-1.28,-2.15,2.19,2.00,2.12,0.91,0.91,0.88
450.42,-1.30,-2.11,-1.30,-2.11,2.16,1.98,2.12,0.86,0.86,0.81
454.93,-1.32,-2.08,-1.32,-2.10,2.13,1.97,2.13,0.81,0.81,0.76
459.48,-1.35,-2.11,-1.35,-2.12,2.10,1.95,2.13,0.75,0.75,0.76
464.07,-1.38,-2.14,-1.38,-2.11,2.07,1.94,2.14,0.70,0.70,0.76
468.71,-1.40,-2.11,-1.40,-2.08,2.05,1.92,2.14,0.65,0.65,0.71
473.40,-1.42,-1.99,-1.42,-2.04,2.04,1.91,2.15,0.62,0.62,0.58
478.13,-1.43,-1.99,-1.43,-2.01,2.03,1.89,2.15,0.60,0.60,0.56
482.91,-1.45,-2.01,-1.45,-1.99,2.02,1.88,2.15,0.58,0.58,0.56
487.74,-1.46,-2.02,-1.46,-1.99,2.01,1.86,2.15,0.55,0.55,0.56
492.62,-1.47,-1.96,-1.47,-2.00,2.00,1.85,2.15,0.53,0.53,0.49
497.55,-1.48,-1.98,-1.48,-2.00,1.98,1.84,2.14,0.50,0.50,0.50
502.52,-1.49,-2.04,-1.49,-2.00,1.96,1.82,2.14,0.47,0.47,0.55
507.55,-1.51,-1.99,-1.51,-1.99,1.94,1.81,2.13,0.43,0.43,0.48
512.62,-1.52,-1.93,-1.52,-1.94,1.92,1.79,2.12,0.40,0.40,0.41
