frequency,raw,error,smoothed,error_smoothed,equalization,parametric_eq,fixed_band_eq,equalized_raw,equalized_smoothed,target
20.00,5.86,-0.21,5.86,-0.21,0.20,0.85,0.89,6.07,6.07,6.08
20.20,5.86,-0.25,5.86,-0.25,0.25,0.87,0.91,6.12,6.12,6.12
20.40,5.86,-0.30,5.87,-0.30,0.30,0.89,0.94,6.16,6.17,6.16
20.61,5.87,-0.34,5.87,-0.34,0.35,0.91,0.96,6.21,6.21,6.21
20.81,5.87,-0.39,5.87,-0.39,0.40,0.93,0.99,6.27,6.27,6.26
21.02,5.87,-0.44,5.87,-0.44,0.45,0.95,1.02,6.31,6.31,6.31
21.23,5.86,-0.49,5.86,-0.49,0.50,0.97,1.05,6.36,6.36,6.36
21.44,5.86,-0.54,5.86,-0.54,0.55,0.99,1.08,6.40,6.40,6.40
21.66,5.85,-0.60,5.85,-0.60,0.60,1.02,1.11,6.45,6.45,6.45
21.87,5.84,-0.65,5.84,-0.65,0.65,1.04,1.14,6.49,6.49,6.50
22.09,5.84,-0.70,5.84,-0.71,0.70,1.06,1.17,6.54,6.54,6.54
22.31,5.84,-0.76,5.84,-0.75,0.75,1.09,1.20,6.58,6.58,6.59
22.54,5.84,-0.80,5.84,-0.80,0.79,1.11,1.23,6.63,6.63,6.64
22.76,5.85,-0.84,5.85,-0.84,0.83,1.14,1.27,6.68,6.68,6.69
22.99,5.86,-0.88,5.86,-0.88,0.88,1.17,1.30,6.74,6.74,6.74
23.22,5.88,-0.92,5.88,-0.92,0.92,1.19,1.34,6.79,6.79,6.79
23.45,5.89,-0.96,5.89,-0.96,0.96,1.22,1.38,6.85,6.85,6.85
23.69,5.89,-1.01,5.89,-1.01,1.02,1.25,1.41,6.90,6.90,6.90
23.92,5.88,-1.06,5.88,-1.07,1.08,1.28,1.45,6.96,6.96,6.95
24.16,5.87,-1.13,5.87,-1.13,1.14,1.31,1.49,7.01,7.01,7.00
24.40,5.84,-1.22,5.84,-1.21,1.22,1.34,1.53,7.07,7.07,7.06
24.65,5.81,-1.31,5.81,-1.31,1.31,1.37,1.57,7.12,7.12,7.11
24.89,5.76,-1.41,5.76,-1.41,1.41,1.40,1.61,7.17,7.17,7.17
25.14,5.70,-1.51,5.70,-1.51,1.52,1.44,1.65,7.22,7.22,7.22
25.39,5.64,-1.62,5.64,-1.62,1.63,1.47,1.70,7.27,7.27,7.26
25.65,5.57,-1.73,5.57,-1.73,1.73,1.51,1.74,7.31,7.30,7.30
25.91,5.51,-1.84,5.50,-1.84,1.83,1.54,1.78,7.34,7.34,7.34
26.16,5.44,-1.93,5.44,-1.93,1.92,1.58,1.82,7.36,7.36,7.38
26.43,5.40,-2.02,5.40,-2.01,1.99,1.62,1.87,7.39,7.39,7.41
26.69,5.38,-2.08,5.37,-2.08,2.05,1.66,1.91,7.42,7.42,7.45
26.96,5.37,-2.12,5.37,-2.12,2.09,1.70,1.95,7.46,7.46,7.49
27.23,5.39,-2.14,5.40,-2.14,2.12,1.74,2.00,7.51,7.52,7.53
27.50,5.44,-2.14,5.43,-2.14,2.14,1.78,2.04,7.58,7.58,7.58
27.77,5.47,-2.15,5.47,-2.15,2.17,1.82,2.08,7.64,7.64,7.62
28.05,5.51,-2.16,5.50,-2.16,2.20,1.86,2.12,7.71,7.70,7.67
28.33,5.51,-2.19,5.51,-2.20,2.24,1.91,2.16,7.75,7.75,7.71
28.62,5.50,-2.24,5.50,-2.25,2.29,1.95,2.20,7.79,7.78,7.74
28.90,5.46,-2.31,5.46,-2.32,2.34,2.00,2.24,7.80,7.80,7.78
29.19,5.42,-2.39,5.42,-2.39,2.39,2.05,2.27,7.81,7.80,7.81
29.48,5.37,-2.46,5.38,-2.46,2.43,2.09,2.31,7.80,7.80,7.84
29.78,5.37,-2.50,5.36,-2.50,2.45,2.14,2.34,7.81,7.81,7.87
30.08,5.38,-2.52,5.39,-2.51,2.44,2.19,2.38,7.82,7.83,7.90
30.38,5.44,-2.49,5.45,-2.48,2.42,2.24,2.41,7.86,7.87,7.93
30.68,5.54,-2.42,5.54,-2.42,2.38,2.29,2.44,7.92,7.92,7.95
30.99,5.64,-2.33,5.64,-2.34,2.34,2.34,2.46,7.99,7.98,7.98
31.30,5.74,-2.26,5.74,-2.27,2.31,2.39,2.49,8.05,8.05,8.00
31.61,5.80,-2.23,5.79,-2.23,2.31,2.45,2.51,8.10,8.10,8.02
31.93,5.81,-2.24,5.80,-2.25,2.33,2.50,2.54,8.14,8.13,8.05
32.24,5.76,-2.31,5.76,-2.31,2.38,2.55,2.56,8.14,8.14,8.07
32.57,5.68,-2.42,5.67,-2.43,2.46,2.60,2.58,8.14,8.13,8.10
32.89,5.56,-2.57,5.56,-2.57,2.55,2.66,2.60,8.11,8.12,8.13
33.22,5.45,-2.71,5.45,-2.70,2.66,2.71,2.61,8.11,8.11,8.16
33.55,5.35,-2.83,5.36,-2.82,2.76,2.76,2.63,8.11,8.12,8.18
33.89,5.30,-2.91,5.31,-2.90,2.85,2.81,2.64,8.15,8.16,8.21
34.23,5.29,-2.95,5.29,-2.95,2.92,2.87,2.66,8.21,8.21,8.24
34.57,5.29,-2.97,5.29,-2.97,2.97,2.92,2.67,8.27,8.26,8.27
34.92,5.31,-2.98,5.31,-2.99,3.00,2.97,2.69,8.31,8.31,8.30
35.27,5.33,-3.00,5.33,-3.00,3.01,3.02,2.70,8.34,8.34,8.33
35.62,5.35,-3.01,5.35,-3.01,3.00,3.07,2.71,8.36,8.36,8.36
35.97,5.38,-3.02,5.38,-3.01,3.00,3.12,2.73,8.38,8.38,8.39
36.33,5.41,-3.01,5.41,-3.01,3.00,3.16,2.74,8.41,8.41,8.42
36.70,5.44,-3.01,5.44,-3.00,3.02,3.21,2.75,8.46,8.46,8.45
37.06,5.46,-3.01,5.45,-3.01,3.04,3.25,2.77,8.50,8.50,8.47
37.43,5.44,-3.04,5.44,-3.05,3.08,3.30,2.79,8.53,8.52,8.48
37.81,5.38,-3.11,5.39,-3.11,3.14,3.34,2.80,8.52,8.52,8.50
38.19,5.31,-3.19,5.31,-3.20,3.21,3.38,2.82,8.52,8.51,8.51
38.57,5.22,-3.30,5.22,-3.29,3.29,3.41,2.84,8.50,8.51,8.51
38.95,5.13,-3.40,5.13,-3.39,3.38,3.45,2.86,8.51,8.51,8.52
39.34,5.04,-3.49,5.04,-3.49,3.49,3.49,2.89,8.53,8.53,8.53
39.74,4.97,-3.58,4.97,-3.58,3.59,3.52,2.91,8.56,8.56,8.55
40.14,4.90,-3.67,4.90,-3.68,3.69,3.55,2.94,8.59,8.59,8.57
40.54,4.83,-3.77,4.83,-3.77,3.77,3.58,2.97,8.60,8.60,8.60
40.94,4.78,-3.85,4.78,-3.85,3.83,3.61,3.00,8.61,8.61,8.63
41.35,4.75,-3.91,4.75,-3.91,3.87,3.64,3.03,8.61,8.62,8.66
41.76,4.74,-3.94,4.74,-3.93,3.88,3.67,3.07,8.62,8.63,8.68
42.18,4.77,-3.91,4.77,-3.92,3.88,3.69,3.11,8.65,8.65,8.68
42.60,4.81,-3.87,4.81,-3.87,3.86,3.72,3.15,8.67,8.67,8.69
43.03,4.87,-3.81,4.87,-3.82,3.83,3.74,3.19,8.70,8.70,8.68
43.46,4.92,-3.76,4.92,-3.76,3.79,3.76,3.23,8.72,8.71,8.68
43.90,4.96,-3.72,4.96,-3.72,3.76,3.79,3.28,8.72,8.72,8.68
44.33,4.98,-3.71,4.98,-3.71,3.74,3.81,3.33,8.73,8.72,8.69
44.78,4.97,-3.72,4.97,-3.72,3.74,3.83,3.39,8.72,8.71,8.69
45.23,4.95,-3.75,4.95,-3.75,3.76,3.85,3.44,8.71,8.71,8.70
45.68,4.91,-3.79,4.91,-3.79,3.79,3.87,3.50,8.70,8.70,8.70
46.13,4.87,-3.84,4.87,-3.84,3.83,3.90,3.56,8.70,8.70,8.71
46.60,4.83,-3.89,4.83,-3.89,3.88,3.92,3.62,8.71,8.71,8.72
47.06,4.78,-3.94,4.78,-3.94,3.93,3.94,3.69,8.72,8.72,8.72
47.53,4.74,-3.99,4.74,-3.99,3.98,3.96,3.76,8.73,8.73,8.73
48.01,4.70,-4.04,4.70,-4.04,4.03,3.98,3.83,8.73,8.73,8.74
48.49,4.67,-4.09,4.67,-4.08,4.07,4.01,3.90,8.74,8.74,8.75
48.97,4.64,-4.12,4.64,-4.12,4.11,4.03,3.97,8.75,8.75,8.76
49.46,4.62,-4.15,4.62,-4.15,4.15,4.05,4.05,8.77,8.77,8.77
49.96,4.60,-4.17,4.60,-4.17,4.18,4.08,4.13,8.78,8.78,8.77
50.46,4.57,-4.20,4.57,-4.20,4.21,4.10,4.21,8.78,8.78,8.77
50.96,4.54,-4.23,4.54,-4.23,4.24,4.13,4.28,8.78,8.78,8.77
51.47,4.50,-4.27,4.50,-4.27,4.26,4.15,4.36,8.76,8.76,8.76
51.99,4.46,-4.30,4.46,-4.30,4.28,4.17,4.45,8.74,8.74,8.76
52.51,4.43,-4.32,4.43,-4.32,4.30,4.20,4.53,8.73,8.73,8.75
53.03,4.40,-4.33,4.40,-4.33,4.32,4.23,4.61,8.72,8.73,8.73
53.56,4.38,-4.33,4.38,-4.33,4.34,4.25,4.68,8.72,8.72,8.72
54.10,4.36,-4.34,4.36,-4.34,4.35,4.28,4.76,8.71,8.71,8.70
54.64,4.33,-4.35,4.33,-4.35,4.36,4.30,4.84,8.70,8.69,8.68
55.18,4.30,-4.37,4.30,-4.37,4.37,4.33,4.91,8.67,8.67,8.67
55.74,4.26,-4.39,4.27,-4.39,4.38,4.35,4.98,8.64,8.64,8.65
56.29,4.24,-4.40,4.24,-4.40,4.39,4.38,5.05,8.63,8.63,8.65
56.86,4.23,-4.41,4.23,-4.41,4.40,4.41,5.11,8.62,8.63,8.64
57.42,4.22,-4.41,4.22,-4.41,4.41,4.43,5.17,8.63,8.63,8.63
58.00,4.22,-4.40,4.21,-4.41,4.42,4.46,5.23,8.64,8.63,8.62
58.58,4.19,-4.42,4.19,-4.42,4.43,4.48,5.27,8.63,8.63,8.61
59.16,4.16,-4.44,4.16,-4.44,4.45,4.50,5.32,8.61,8.61,8.60
59.76,4.12,-4.47,4.12,-4.47,4.48,4.53,5.35,8.59,8.59,8.59
60.35,4.07,-4.50,4.07,-4.50,4.50,4.55,5.38,8.57,8.57,8.57
60.96,4.02,-4.53,4.02,-4.54,4.53,4.57,5.40,8.55,8.55,8.56
61.57,3.97,-4.56,3.97,-4.56,4.56,4.59,5.42,8.53,8.53,8.54
62.18,3.92,-4.59,3.92,-4.59,4.59,4.61,5.42,8.51,8.51,8.52
62.80,3.88,-4.62,3.88,-4.62,4.61,4.63,5.42,8.49,8.49,8.49
63.43,3.83,-4.64,3.83,-4.64,4.64,4.64,5.41,8.47,8.47,8.47
64.07,3.79,-4.66,3.79,-4.66,4.65,4.66,5.40,8.44,8.44,8.44
64.71,3.75,-4.67,3.75,-4.67,4.67,4.67,5.37,8.42,8.42,8.42
65.35,3.71,-4.68,3.71,-4.68,4.68,4.69,5.34,8.39,8.39,8.39
66.01,3.67,-4.69,3.67,-4.69,4.69,4.70,5.30,8.36,8.36,8.36
66.67,3.64,-4.70,3.64,-4.70,4.69,4.71,5.26,8.33,8.33,8.33
67.33,3.61,-4.70,3.61,-4.70,4.70,4.72,5.20,8.30,8.30,8.31
68.01,3.58,-4.70,3.57,-4.70,4.70,4.73,5.15,8.28,8.28,8.28
68.69,3.54,-4.70,3.54,-4.70,4.71,4.73,5.09,8.25,8.25,8.24
69.37,3.50,-4.71,3.50,-4.71,4.72,4.74,5.02,8.22,8.22,8.21
70.07,3.45,-4.72,3.45,-4.72,4.73,4.74,4.95,8.19,8.18,8.17
70.77,3.40,-4.73,3.40,-4.73,4.74,4.75,4.87,8.14,8.14,8.14
71.48,3.35,-4.75,3.35,-4.75,4.75,4.75,4.80,8.10,8.10,8.10
72.19,3.30,-4.77,3.30,-4.76,4.75,4.75,4.72,8.05,8.05,8.07
72.91,3.26,-4.77,3.26,-4.77,4.75,4.74,4.64,8.01,8.01,8.03
73.64,3.23,-4.76,3.23,-4.76,4.74,4.74,4.55,7.97,7.98,7.99
74.38,3.21,-4.74,3.21,-4.74,4.73,4.74,4.47,7.94,7.94,7.95
75.12,3.20,-4.71,3.20,-4.71,4.72,4.73,4.39,7.91,7.91,7.91
75.87,3.18,-4.68,3.18,-4.68,4.70,4.72,4.30,7.88,7.88,7.86
76.63,3.16,-4.66,3.16,-4.66,4.67,4.72,4.22,7.84,7.84,7.83
77.40,3.14,-4.64,3.14,-4.64,4.65,4.71,4.14,7.79,7.79,7.79
78.17,3.12,-4.63,3.12,-4.63,4.62,4.69,4.05,7.74,7.74,7.74
78.95,3.09,-4.61,3.09,-4.61,4.60,4.68,3.97,7.69,7.69,7.70
79.74,3.06,-4.58,3.06,-4.58,4.57,4.66,3.89,7.63,7.63,7.64
80.54,3.03,-4.55,3.03,-4.55,4.55,4.65,3.82,7.58,7.58,7.59
81.35,3.00,-4.52,3.00,-4.52,4.53,4.63,3.74,7.53,7.53,7.53
82.16,2.97,-4.50,2.97,-4.50,4.51,4.61,3.67,7.48,7.48,7.47
82.98,2.93,-4.48,2.93,-4.48,4.50,4.58,3.59,7.43,7.43,7.41
83.81,2.89,-4.47,2.89,-4.47,4.49,4.56,3.52,7.38,7.38,7.36
84.65,2.84,-4.48,2.84,-4.48,4.49,4.53,3.46,7.32,7.32,7.31
85.50,2.78,-4.48,2.78,-4.48,4.48,4.50,3.39,7.26,7.26,7.26
86.35,2.71,-4.49,2.71,-4.49,4.48,4.47,3.33,7.19,7.19,7.20
87.22,2.66,-4.49,2.66,-4.49,4.47,4.44,3.27,7.12,7.12,7.14
88.09,2.61,-4.47,2.61,-4.47,4.45,4.40,3.21,7.06,7.06,7.08
88.97,2.57,-4.44,2.57,-4.44,4.43,4.36,3.16,7.01,7.01,7.01
89.86,2.54,-4.41,2.54,-4.41,4.41,4.33,3.10,6.95,6.95,6.95
90.76,2.52,-4.36,2.52,-4.37,4.38,4.28,3.05,6.89,6.89,6.88
91.66,2.49,-4.33,2.49,-4.33,4.34,4.24,3.00,6.83,6.83,6.81
92.58,2.45,-4.29,2.45,-4.29,4.30,4.20,2.96,6.76,6.76,6.75
93.51,2.41,-4.26,2.42,-4.26,4.26,4.15,2.91,6.67,6.67,6.68
94.44,2.37,-4.23,2.37,-4.22,4.21,4.10,2.87,6.59,6.59,6.60
95.39,2.33,-4.18,2.33,-4.18,4.16,4.05,2.83,6.50,6.50,6.52
96.34,2.29,-4.13,2.29,-4.12,4.11,4.00,2.80,6.40,6.40,6.42
97.30,2.26,-4.06,2.26,-4.06,4.06,3.95,2.76,6.31,6.31,6.31
98.28,2.22,-3.99,2.22,-3.99,4.00,3.89,2.73,6.23,6.23,6.21
99.26,2.19,-3.93,2.19,-3.93,3.95,3.84,2.70,6.14,6.14,6.12
100.25,2.16,-3.88,2.16,-3.88,3.89,3.78,2.67,6.05,6.05,6.04
101.25,2.12,-3.84,2.12,-3.84,3.84,3.72,2.64,5.97,5.97,5.97
102.27,2.09,-3.79,2.09,-3.79,3.79,3.66,2.62,5.88,5.88,5.88
103.29,2.05,-3.74,2.05,-3.74,3.74,3.60,2.59,5.80,5.80,5.79
104.32,2.01,-3.69,2.01,-3.69,3.69,3.54,2.57,5.71,5.71,5.70
105.37,1.97,-3.64,1.97,-3.64,3.64,3.48,2.55,5.61,5.61,5.61
106.42,1.93,-3.58,1.93,-3.58,3.58,3.42,2.52,5.50,5.50,5.51
107.48,1.89,-3.52,1.89,-3.52,3.50,3.36,2.50,5.39,5.39,5.41
108.56,1.85,-3.44,1.85,-3.44,3.42,3.29,2.48,5.27,5.27,5.28
109.64,1.81,-3.34,1.81,-3.34,3.33,3.23,2.46,5.14,5.14,5.15
110.74,1.77,-3.24,1.77,-3.24,3.24,3.16,2.44,5.00,5.00,5.00
111.85,1.73,-3.13,1.73,-3.13,3.13,3.09,2.42,4.86,4.86,4.85
112.97,1.69,-3.02,1.69,-3.02,3.03,3.03,2.40,4.72,4.72,4.71
114.10,1.66,-2.91,1.66,-2.91,2.91,2.96,2.38,4.57,4.57,4.57
115.24,1.63,-2.80,1.63,-2.80,2.80,2.89,2.36,4.43,4.43,4.43
116.39,1.60,-2.69,1.60,-2.69,2.69,2.82,2.33,4.29,4.29,4.30
117.55,1.57,-2.59,1.57,-2.59,2.58,2.75,2.31,4.15,4.14,4.16
118.73,1.53,-2.48,1.53,-2.48,2.47,2.68,2.29,4.00,4.00,4.01
119.92,1.48,-2.37,1.48,-2.37,2.37,2.61,2.26,3.85,3.85,3.86
121.12,1.44,-2.27,1.44,-2.27,2.27,2.54,2.23,3.71,3.71,3.70
122.33,1.39,-2.17,1.39,-2.17,2.19,2.47,2.20,3.58,3.58,3.56
123.55,1.35,-2.09,1.35,-2.09,2.12,2.39,2.17,3.48,3.48,3.44
124.79,1.32,-2.03,1.32,-2.04,2.07,2.32,2.14,3.38,3.38,3.35
126.03,1.29,-2.00,1.29,-2.00,2.02,2.25,2.10,3.31,3.31,3.29
127.29,1.26,-1.99,1.26,-1.98,1.98,2.17,2.07,3.24,3.24,3.25
128.57,1.24,-1.96,1.24,-1.96,1.94,2.09,2.03,3.18,3.18,3.21
129.85,1.22,-1.93,1.22,-1.93,1.91,2.01,1.99,3.13,3.13,3.15
131.15,1.20,-1.89,1.20,-1.89,1.86,1.94,1.95,3.06,3.06,3.09
132.46,1.17,-1.83,1.17,-1.83,1.81,1.85,1.90,2.99,2.99,3.00
133.79,1.14,-1.76,1.14,-1.76,1.75,1.77,1.86,2.90,2.90,2.90
135.12,1.10,-1.68,1.10,-1.68,1.69,1.69,1.81,2.79,2.79,2.78
136.48,1.06,-1.60,1.06,-1.60,1.61,1.60,1.76,2.68,2.68,2.66
137.84,1.02,-1.52,1.02,-1.53,1.53,1.51,1.71,2.55,2.55,2.55
139.22,0.98,-1.45,0.98,-1.45,1.45,1.43,1.66,2.43,2.43,2.43
140.61,0.94,-1.37,0.94,-1.37,1.36,1.33,1.61,2.30,2.30,2.31
142.02,0.90,-1.28,0.90,-1.28,1.27,1.24,1.56,2.17,2.17,2.18
143.44,0.86,-1.18,0.86,-1.18,1.17,1.14,1.50,2.04,2.04,2.05
144.87,0.83,-1.08,0.83,-1.08,1.07,1.04,1.45,1.90,1.90,1.91
146.32,0.79,-0.97,0.79,-0.97,0.97,0.94,1.39,1.76,1.76,1.76
147.78,0.75,-0.87,0.75,-0.86,0.87,0.83,1.33,1.62,1.62,1.61
149.26,0.71,-0.76,0.71,-0.76,0.77,0.73,1.28,1.48,1.48,1.47
150.75,0.68,-0.65,0.68,-0.66,0.66,0.62,1.22,1.34,1.34,1.33
152.26,0.65,-0.56,0.65,-0.56,0.56,0.52,1.16,1.20,1.21,1.20
153.78,0.62,-0.46,0.62,-0.46,0.45,0.41,1.10,1.07,1.07,1.08
155.32,0.59,-0.37,0.59,-0.36,0.35,0.31,1.05,0.94,0.94,0.96
156.88,0.57,-0.26,0.57,-0.26,0.25,0.21,0.99,0.81,0.81,0.82
158.44,0.54,-0.15,0.54,-0.15,0.15,0.12,0.93,0.69,0.69,0.69
160.03,0.50,-0.04,0.50,-0.05,0.06,0.03,0.87,0.56,0.56,0.55
161.63,0.47,0.05,0.47,0.05,-0.03,-0.04,0.81,0.44,0.44,0.42
163.24,0.43,0.13,0.43,0.13,-0.11,-0.12,0.75,0.32,0.32,0.30
164.88,0.39,0.20,0.39,0.20,-0.19,-0.19,0.70,0.20,0.20,0.19
166.53,0.35,0.26,0.35,0.26,-0.27,-0.25,0.64,0.08,0.08,0.08
168.19,0.30,0.33,0.30,0.33,-0.34,-0.32,0.58,-0.04,-0.04,-0.02
169.87,0.26,0.40,0.26,0.40,-0.41,-0.38,0.52,-0.15,-0.15,-0.14
171.57,0.22,0.47,0.22,0.47,-0.48,-0.45,0.46,-0.26,-0.26,-0.25
173.29,0.18,0.54,0.18,0.54,-0.54,-0.51,0.41,-0.36,-0.36,-0.36
175.02,0.15,0.62,0.15,0.61,-0.61,-0.58,0.35,-0.46,-0.46,-0.47
176.77,0.11,0.68,0.11,0.68,-0.67,-0.65,0.29,-0.56,-0.56,-0.56
178.54,0.08,0.74,0.08,0.74,-0.74,-0.72,0.24,-0.66,-0.66,-0.66
180.32,0.04,0.80,0.04,0.80,-0.79,-0.79,0.18,-0.75,-0.75,-0.76
182.13,0.00,0.86,0.00,0.85,-0.85,-0.86,0.12,-0.84,-0.84,-0.85
183.95,-0.03,0.90,-0.03,0.90,-0.90,-0.93,0.07,-0.93,-0.93,-0.94
185.79,-0.06,0.95,-0.06,0.95,-0.95,-0.99,0.01,-1.01,-1.01,-1.01
187.65,-0.09,1.00,-0.08,1.00,-1.00,-1.06,-0.05,-1.09,-1.09,-1.08
189.52,-0.10,1.05,-0.10,1.05,-1.06,-1.12,-0.10,-1.16,-1.16,-1.14
191.42,-0.10,1.10,-0.10,1.10,-1.12,-1.19,-0.16,-1.22,-1.22,-1.20
193.33,-0.09,1.16,-0.09,1.17,-1.18,-1.24,-0.21,-1.27,-1.27,-1.25
195.27,-0.07,1.24,-0.07,1.24,-1.25,-1.29,-0.27,-1.31,-1.31,-1.31
197.22,-0.04,1.31,-0.04,1.31,-1.31,-1.34,-0.32,-1.35,-1.35,-1.36
199.19,-0.01,1.38,-0.02,1.38,-1.37,-1.38,-0.38,-1.38,-1.38,-1.39
201.18,0.01,1.43,0.01,1.43,-1.42,-1.42,-0.43,-1.41,-1.41,-1.42
203.19,0.02,1.47,0.02,1.47,-1.46,-1.45,-0.48,-1.44,-1.44,-1.45
205.23,0.02,1.50,0.02,1.50,-1.49,-1.47,-0.54,-1.46,-1.46,-1.47
207.28,0.02,1.51,0.02,1.51,-1.50,-1.49,-0.59,-1.48,-1.48,-1.49
209.35,0.01,1.51,0.01,1.51,-1.51,-1.49,-0.64,-1.50,-1.50,-1.50
211.44,-0.01,1.50,-0.01,1.50,-1.50,-1.50,-0.69,-1.51,-1.51,-1.51
213.56,-0.03,1.49,-0.03,1.49,-1.49,-1.49,-0.74,-1.52,-1.52,-1.52
215.69,-0.06,1.46,-0.06,1.47,-1.47,-1.48,-0.78,-1.53,-1.53,-1.52
217.85,-0.08,1.44,-0.08,1.44,-1.45,-1.46,-0.83,-1.53,-1.53,-1.53
220.03,-0.11,1.42,-0.11,1.42,-1.42,-1.44,-0.87,-1.53,-1.53,-1.53
222.23,-0.14,1.39,-0.14,1.39,-1.39,-1.41,-0.92,-1.52,-1.52,-1.52
224.45,-0.17,1.35,-0.17,1.35,-1.35,-1.38,-0.96,-1.52,-1.52,-1.52
226.70,-0.19,1.32,-0.19,1.32,-1.32,-1.34,-0.99,-1.51,-1.51,-1.51
228.96,-0.22,1.28,-0.22,1.28,-1.28,-1.30,-1.03,-1.50,-1.50,-1.50
231.25,-0.25,1.23,-0.25,1.23,-1.24,-1.26,-1.06,-1.49,-1.49,-1.48
233.57,-0.28,1.19,-0.28,1.19,-1.19,-1.21,-1.09,-1.47,-1.47,-1.47
235.90,-0.30,1.14,-0.30,1.14,-1.15,-1.16,-1.12,-1.45,-1.45,-1.45
238.26,-0.33,1.10,-0.33,1.10,-1.10,-1.11,-1.14,-1.43,-1.43,-1.42
240.64,-0.35,1.05,-0.35,1.05,-1.05,-1.06,-1.16,-1.40,-1.40,-1.40
243.05,-0.37,1.00,-0.37,1.00,-1.00,-1.01,-1.18,-1.38,-1.38,-1.38
245.48,-0.40,0.95,-0.40,0.95,-0.95,-0.95,-1.20,-1.35,-1.35,-1.35
247.93,-0.43,0.90,-0.43,0.90,-0.90,-0.90,-1.21,-1.33,-1.33,-1.33
250.41,-0.45,0.85,-0.45,0.85,-0.85,-0.85,-1.22,-1.30,-1.30,-1.30
252.92,-0.48,0.80,-0.48,0.80,-0.80,-0.79,-1.22,-1.28,-1.27,-1.27
255.45,-0.50,0.75,-0.50,0.75,-0.75,-0.74,-1.22,-1.24,-1.24,-1.24
258.00,-0.52,0.69,-0.52,0.69,-0.69,-0.69,-1.22,-1.21,-1.21,-1.21
260.58,-0.54,0.64,-0.54,0.64,-0.64,-0.64,-1.22,-1.18,-1.18,-1.18
263.19,-0.56,0.59,-0.56,0.59,-0.58,-0.59,-1.21,-1.14,-1.14,-1.15
265.82,-0.58,0.53,-0.58,0.53,-0.53,-0.54,-1.20,-1.11,-1.11,-1.11
268.48,-0.60,0.48,-0.60,0.48,-0.48,-0.49,-1.18,-1.08,-1.08,-1.08
271.16,-0.62,0.43,-0.62,0.43,-0.44,-0.44,-1.16,-1.06,-1.06,-1.05
273.87,-0.64,0.39,-0.64,0.39,-0.40,-0.40,-1.15,-1.03,-1.03,-1.03
276.61,-0.66,0.35,-0.66,0.35,-0.36,-0.35,-1.12,-1.01,-1.01,-1.01
279.38,-0.67,0.32,-0.67,0.32,-0.32,-0.31,-1.10,-0.99,-0.99,-0.99
282.17,-0.69,0.29,-0.69,0.29,-0.28,-0.27,-1.07,-0.97,-0.97,-0.98
284.99,-0.71,0.26,-0.71,0.26,-0.25,-0.23,-1.05,-0.96,-0.96,-0.97
287.84,-0.73,0.22,-0.73,0.22,-0.22,-0.18,-1.02,-0.94,-0.94,-0.95
290.72,-0.75,0.18,-0.75,0.18,-0.18,-0.15,-0.98,-0.93,-0.93,-0.93
293.63,-0.77,0.14,-0.77,0.14,-0.15,-0.11,-0.95,-0.92,-0.92,-0.91
296.57,-0.79,0.11,-0.79,0.11,-0.11,-0.07,-0.92,-0.90,-0.90,-0.90
299.53,-0.81,0.07,-0.81,0.07,-0.07,-0.03,-0.88,-0.87,-0.87,-0.88
302.53,-0.82,0.03,-0.82,0.03,-0.02,0.00,-0.85,-0.85,-0.85,-0.85
305.55,-0.84,-0.02,-0.84,-0.02,0.02,0.04,-0.81,-0.82,-0.82,-0.82
308.61,-0.85,-0.07,-0.85,-0.07,0.07,0.07,-0.78,-0.78,-0.78,-0.79
311.69,-0.87,-0.11,-0.87,-0.11,0.12,0.10,-0.74,-0.75,-0.75,-0.76
314.81,-0.89,-0.16,-0.89,-0.16,0.16,0.13,-0.70,-0.72,-0.72,-0.72
317.96,-0.90,-0.21,-0.90,-0.21,0.20,0.16,-0.66,-0.70,-0.70,-0.69
321.14,-0.92,-0.25,-0.92,-0.25,0.25,0.19,-0.63,-0.67,-0.67,-0.66
324.35,-0.93,-0.29,-0.93,-0.29,0.28,0.22,-0.59,-0.65,-0.65,-0.64
327.59,-0.94,-0.32,-0.94,-0.32,0.31,0.25,-0.55,-0.63,-0.63,-0.63
330.87,-0.96,-0.34,-0.96,-0.34,0.34,0.28,-0.51,-0.62,-0.62,-0.62
334.18,-0.97,-0.36,-0.97,-0.36,0.36,0.31,-0.48,-0.61,-0.61,-0.61
337.52,-0.99,-0.38,-0.99,-0.38,0.38,0.33,-0.44,-0.61,-0.61,-0.61
340.90,-1.00,-0.40,-1.00,-0.40,0.40,0.36,-0.40,-0.60,-0.60,-0.60
344.30,-1.01,-0.41,-1.02,-0.41,0.41,0.38,-0.36,-0.60,-0.60,-0.60
347.75,-1.03,-0.42,-1.03,-0.42,0.42,0.40,-0.33,-0.61,-0.61,-0.61
351.23,-1.04,-0.43,-1.04,-0.43,0.43,0.42,-0.29,-0.61,-0.61,-0.61
354.74,-1.06,-0.44,-1.06,-0.44,0.44,0.44,-0.25,-0.61,-0.61,-0.62
358.28,-1.07,-0.45,-1.07,-0.45,0.45,0.46,-0.22,-0.62,-0.62,-0.62
361.87,-1.09,-0.46,-1.09,-0.46,0.46,0.48,-0.18,-0.62,-0.62,-0.62
365.49,-1.10,-0.47,-1.10,-0.47,0.47,0.50,-0.15,-0.63,-0.63,-0.63
369.14,-1.11,-0.48,-1.11,-0.48,0.48,0.51,-0.11,-0.63,-0.63,-0.63
372.83,-1.12,-0.49,-1.12,-0.49,0.49,0.52,-0.07,-0.63,-0.63,-0.64
376.56,-1.14,-0.50,-1.14,-0.50,0.50,0.54,-0.04,-0.64,-0.64,-0.64
380.33,-1.15,-0.51,-1.15,-0.51,0.51,0.55,-0.01,-0.64,-0.64,-0.64
384.13,-1.16,-0.52,-1.16,-0.52,0.51,0.56,0.03,-0.65,-0.65,-0.64
387.97,-1.17,-0.52,-1.17,-0.52,0.52,0.56,0.06,-0.65,-0.65,-0.65
391.85,-1.18,-0.52,-1.18,-0.52,0.52,0.57,0.10,-0.66,-0.66,-0.66
395.77,-1.19,-0.52,-1.19,-0.52,0.52,0.58,0.13,-0.66,-0.67,-0.66
399.73,-1.20,-0.52,-1.20,-0.52,0.52,0.58,0.16,-0.67,-0.67,-0.68
403.72,-1.21,-0.52,-1.21,-0.52,0.52,0.58,0.19,-0.69,-0.69,-0.69
407.76,-1.22,-0.52,-1.22,-0.52,0.52,0.58,0.23,-0.70,-0.70,-0.70
411.84,-1.23,-0.52,-1.23,-0.52,0.52,0.58,0.26,-0.71,-0.71,-0.71
415.96,-1.24,-0.51,-1.24,-0.51,0.52,0.58,0.29,-0.72,-0.72,-0.72
420.12,-1.25,-0.51,-1.25,-0.51,0.51,0.57,0.32,-0.74,-0.74,-0.74
424.32,-1.26,-0.51,-1.26,-0.51,0.51,0.57,0.35,-0.75,-0.75,-0.75
428.56,-1.27,-0.50,-1.27,-0.50,0.50,0.56,0.38,-0.77,-0.77,-0.76
432.85,-1.28,-0.50,-1.28,-0.50,0.50,0.55,0.40,-0.78,-0.78,-0.78
437.18,-1.28,-0.49,-1.28,-0.49,0.49,0.55,0.43,-0.79,-0.79,-0.79
441.55,-1.29,-0.48,-1.29,-0.48,0.48,0.54,0.45,-0.80,-0.80,-0.81
445.96,-1.29,-0.48,-1.29,-0.48,0.48,0.53,0.48,-0.82,-0.82,-0.82
450.42,-1.30,-0.47,-1.30,-0.47,0.47,0.52,0.50,-0.83,-0.83,-0.83
454.93,-1.30,-0.46,-1.30,-0.46,0.47,0.50,0.52,-0.84,-0.84,-0.84
459.48,-1.31,-0.46,-1.31,-0.46,0.46,0.49,0.54,-0.85,-0.85,-0.85
464.07,-1.32,-0.46,-1.32,-0.46,0.46,0.48,0.56,-0.86,-0.86,-0.86
468.71,-1.32,-0.45,-1.32,-0.45,0.45,0.47,0.58,-0.87,-0.87,-0.87
473.40,-1.33,-0.45,-1.33,-0.45,0.45,0.45,0.59,-0.89,-0.89,-0.88
478.13,-1.34,-0.44,-1.34,-0.44,0.44,0.44,0.61,-0.90,-0.90,-0.90
482.91,-1.34,-0.43,-1.34,-0.43,0.43,0.43,0.62,-0.91,-0.91,-0.91
487.74,-1.35,-0.42,-1.35,-0.42,0.42,0.41,0.63,-0.93,-0.93,-0.93
492.62,-1.36,-0.41,-1.36,-0.41,0.41,0.40,0.64,-0.94,-0.94,-0.94
497.55,-1.36,-0.40,-1.36,-0.40,0.40,0.38,0.64,-0.96,-0.96,-0.96
502.52,-1.37,-0.39,-1.37,-0.39,0.39,0.37,0.65,-0.97,-0.97,-0.97
507.55,-1.37,-0.38,-1.37,-0.38,0.38,0.35,0.65,-0.99,-0.99,-0.99
512.62,-1.37,-0.37,-1.37,-0.37,0.37,0.34,0.65,-1.00,-1.00,-1.00
517.75,-1.37,-0.36,-1.37,-0.36,0.36,0.33,0.65,-1.01,-1.01,-1.02
522.93,-1.38,-0.35,-1.38,-0.35,0.35,0.31,0.64,-1.03,-1.03,-1.03
