frequency,raw,error,smoothed,error_smoothed,equalization,parametric_eq,fixed_band_eq,equalized_raw,equalized_smoothed,target
20.00,8.04,-2.40,8.04,-2.40,2.42,2.84,1.11,10.45,10.45,10.44
20.20,8.07,-2.45,8.07,-2.45,2.46,2.84,1.14,10.53,10.53,10.52
20.40,8.10,-2.50,8.10,-2.50,2.50,2.84,1.17,10.60,10.60,10.60
20.61,8.14,-2.54,8.14,-2.54,2.53,2.78,1.21,10.67,10.67,10.68
20.81,8.19,-2.56,8.19,-2.56,2.55,2.72,1.24,10.74,10.74,10.75
21.02,8.25,-2.58,8.25,-2.58,2.57,2.65,1.28,10.81,10.81,10.83
21.23,8.31,-2.59,8.31,-2.59,2.58,2.58,1.31,10.88,10.89,10.90
21.44,8.38,-2.59,8.38,-2.59,2.58,2.52,1.35,10.96,10.96,10.96
21.66,8.45,-2.57,8.45,-2.58,2.57,2.47,1.39,11.02,11.02,11.02
21.87,8.52,-2.56,8.52,-2.56,2.56,2.43,1.43,11.08,11.08,11.08
22.09,8.60,-2.54,8.60,-2.54,2.54,2.40,1.47,11.14,11.14,11.14
22.31,8.67,-2.52,8.67,-2.52,2.52,2.38,1.52,11.19,11.19,11.19
22.54,8.74,-2.49,8.74,-2.49,2.50,2.37,1.56,11.23,11.23,11.23
22.76,8.80,-2.47,8.80,-2.47,2.47,2.37,1.61,11.28,11.28,11.28
22.99,8.86,-2.45,8.86,-2.46,2.46,2.37,1.65,11.32,11.31,11.31
23.22,8.91,-2.44,8.91,-2.44,2.44,2.39,1.70,11.35,11.35,11.35
23.45,8.95,-2.43,8.95,-2.43,2.43,2.41,1.75,11.38,11.38,11.38
23.69,8.97,-2.43,8.97,-2.43,2.43,2.43,1.80,11.40,11.40,11.40
23.92,8.99,-2.43,8.99,-2.43,2.44,2.46,1.84,11.43,11.43,11.42
24.16,9.00,-2.44,9.00,-2.44,2.45,2.49,1.90,11.45,11.45,11.44
24.40,8.99,-2.46,8.99,-2.46,2.47,2.52,1.95,11.46,11.46,11.45
24.65,8.96,-2.49,8.96,-2.49,2.50,2.55,2.00,11.47,11.47,11.46
24.89,8.93,-2.53,8.92,-2.53,2.54,2.58,2.05,11.47,11.47,11.46
25.14,8.88,-2.58,8.88,-2.58,2.58,2.61,2.11,11.46,11.46,11.46
25.39,8.82,-2.63,8.82,-2.63,2.62,2.65,2.16,11.44,11.44,11.45
25.65,8.76,-2.67,8.76,-2.67,2.66,2.67,2.22,11.42,11.42,11.44
25.91,8.71,-2.71,8.71,-2.71,2.70,2.70,2.27,11.41,11.41,11.42
26.16,8.65,-2.74,8.66,-2.74,2.73,2.73,2.32,11.39,11.39,11.40
26.43,8.61,-2.77,8.61,-2.77,2.77,2.75,2.38,11.37,11.37,11.37
26.69,8.56,-2.79,8.56,-2.79,2.80,2.77,2.43,11.35,11.35,11.34
26.96,8.50,-2.81,8.50,-2.81,2.82,2.79,2.49,11.33,11.32,11.31
27.23,8.45,-2.83,8.45,-2.83,2.84,2.80,2.54,11.29,11.29,11.28
27.50,8.39,-2.86,8.39,-2.86,2.86,2.81,2.59,11.25,11.25,11.24
27.77,8.33,-2.88,8.33,-2.88,2.87,2.82,2.64,11.20,11.20,11.21
28.05,8.28,-2.89,8.28,-2.89,2.88,2.82,2.69,11.15,11.16,11.17
28.33,8.25,-2.89,8.25,-2.89,2.87,2.83,2.73,11.12,11.12,11.14
28.62,8.23,-2.88,8.23,-2.87,2.86,2.83,2.78,11.09,11.09,11.10
28.90,8.22,-2.85,8.22,-2.85,2.84,2.83,2.82,11.07,11.07,11.07
29.19,8.23,-2.81,8.23,-2.81,2.82,2.82,2.86,11.05,11.05,11.04
29.48,8.24,-2.78,8.24,-2.78,2.79,2.82,2.90,11.03,11.03,11.02
29.78,8.24,-2.75,8.24,-2.75,2.76,2.82,2.93,11.01,11.01,10.99
30.08,8.25,-2.72,8.25,-2.73,2.73,2.81,2.96,10.98,10.98,10.98
30.38,8.26,-2.70,8.26,-2.70,2.69,2.81,2.99,10.95,10.95,10.96
30.68,8.27,-2.68,8.28,-2.68,2.66,2.80,3.02,10.94,10.94,10.95
30.99,8.30,-2.65,8.30,-2.64,2.63,2.80,3.04,10.93,10.93,10.95
31.30,8.33,-2.61,8.33,-2.61,2.61,2.80,3.06,10.94,10.94,10.94
31.61,8.36,-2.58,8.36,-2.58,2.59,2.79,3.08,10.95,10.95,10.94
31.93,8.39,-2.56,8.38,-2.56,2.58,2.79,3.09,10.97,10.97,10.95
32.24,8.39,-2.56,8.39,-2.56,2.59,2.79,3.10,10.98,10.98,10.96
32.57,8.39,-2.58,8.39,-2.58,2.60,2.79,3.10,10.99,10.99,10.97
32.89,8.37,-2.61,8.37,-2.61,2.62,2.79,3.11,10.99,10.98,10.98
33.22,8.34,-2.65,8.34,-2.65,2.64,2.80,3.11,10.98,10.98,10.99
33.55,8.31,-2.70,8.31,-2.70,2.67,2.80,3.11,10.98,10.99,11.01
33.89,8.29,-2.74,8.29,-2.73,2.71,2.81,3.10,11.00,11.00,11.02
34.23,8.28,-2.76,8.28,-2.76,2.74,2.82,3.10,11.02,11.02,11.04
34.57,8.27,-2.79,8.27,-2.79,2.79,2.82,3.09,11.06,11.06,11.05
34.92,8.26,-2.81,8.25,-2.81,2.84,2.83,3.08,11.09,11.09,11.07
35.27,8.23,-2.85,8.23,-2.86,2.89,2.85,3.07,11.12,11.12,11.08
35.62,8.18,-2.91,8.18,-2.92,2.95,2.86,3.06,11.13,11.13,11.09
35.97,8.11,-2.99,8.11,-2.99,3.01,2.87,3.04,11.12,11.12,11.10
36.33,8.03,-3.08,8.03,-3.08,3.07,2.89,3.03,11.10,11.10,11.11
36.70,7.96,-3.16,7.96,-3.16,3.13,2.90,3.02,11.08,11.08,11.12
37.06,7.90,-3.22,7.91,-3.21,3.17,2.92,3.00,11.07,11.07,11.12
37.43,7.88,-3.24,7.88,-3.24,3.20,2.93,2.99,11.07,11.08,11.12
37.81,7.89,-3.24,7.89,-3.24,3.21,2.95,2.98,11.10,11.10,11.12
38.19,7.90,-3.22,7.90,-3.22,3.21,2.97,2.97,11.12,11.12,11.12
38.57,7.93,-3.19,7.93,-3.19,3.21,2.99,2.96,11.14,11.14,11.12
38.95,7.94,-3.17,7.94,-3.17,3.21,3.01,2.95,11.15,11.15,11.12
39.34,7.94,-3.17,7.94,-3.17,3.20,3.03,2.94,11.15,11.14,11.11
39.74,7.93,-3.18,7.92,-3.18,3.21,3.05,2.94,11.13,11.13,11.10
40.14,7.89,-3.20,7.89,-3.20,3.22,3.07,2.93,11.11,11.11,11.10
40.54,7.85,-3.24,7.86,-3.23,3.23,3.09,2.93,11.08,11.08,11.09
40.94,7.82,-3.26,7.82,-3.26,3.24,3.11,2.93,11.06,11.06,11.08
41.35,7.79,-3.28,7.79,-3.28,3.26,3.14,2.93,11.05,11.05,11.07
41.76,7.77,-3.29,7.78,-3.29,3.26,3.16,2.93,11.04,11.04,11.06
42.18,7.77,-3.28,7.77,-3.28,3.27,3.18,2.94,11.04,11.04,11.05
42.60,7.77,-3.27,7.77,-3.27,3.27,3.20,2.95,11.04,11.04,11.04
43.03,7.77,-3.25,7.77,-3.26,3.27,3.22,2.96,11.04,11.03,11.02
43.46,7.76,-3.25,7.76,-3.25,3.27,3.24,2.97,11.03,11.02,11.01
43.90,7.73,-3.26,7.73,-3.26,3.28,3.26,2.98,11.01,11.01,10.99
44.33,7.70,-3.27,7.69,-3.28,3.29,3.28,3.00,10.99,10.99,10.97
44.78,7.65,-3.30,7.65,-3.30,3.32,3.30,3.02,10.96,10.96,10.95
45.23,7.59,-3.34,7.59,-3.34,3.34,3.32,3.04,10.93,10.93,10.93
45.68,7.53,-3.38,7.53,-3.38,3.37,3.34,3.07,10.90,10.90,10.91
46.13,7.47,-3.41,7.47,-3.41,3.39,3.36,3.09,10.87,10.87,10.88
46.60,7.42,-3.43,7.43,-3.43,3.41,3.38,3.12,10.84,10.84,10.86
47.06,7.39,-3.44,7.39,-3.44,3.42,3.39,3.15,10.81,10.81,10.83
47.53,7.37,-3.44,7.37,-3.43,3.42,3.41,3.18,10.79,10.79,10.81
48.01,7.36,-3.42,7.36,-3.42,3.41,3.42,3.22,10.78,10.78,10.78
48.49,7.36,-3.39,7.36,-3.39,3.40,3.44,3.26,10.76,10.76,10.75
48.97,7.36,-3.37,7.36,-3.37,3.38,3.45,3.29,10.74,10.74,10.73
49.46,7.35,-3.36,7.35,-3.36,3.37,3.46,3.33,10.72,10.72,10.70
49.96,7.33,-3.35,7.33,-3.35,3.36,3.47,3.38,10.69,10.69,10.68
50.46,7.30,-3.35,7.30,-3.35,3.35,3.48,3.42,10.66,10.66,10.65
50.96,7.27,-3.35,7.27,-3.35,3.35,3.49,3.46,10.63,10.63,10.62
51.47,7.24,-3.36,7.24,-3.36,3.36,3.50,3.51,10.59,10.59,10.60
51.99,7.20,-3.37,7.20,-3.37,3.36,3.51,3.55,10.57,10.57,10.57
52.51,7.17,-3.38,7.17,-3.38,3.38,3.51,3.60,10.54,10.54,10.54
53.03,7.13,-3.39,7.13,-3.39,3.39,3.52,3.64,10.52,10.52,10.52
53.56,7.10,-3.40,7.10,-3.40,3.40,3.52,3.69,10.50,10.50,10.49
54.10,7.06,-3.41,7.06,-3.41,3.41,3.52,3.73,10.47,10.47,10.47
54.64,7.02,-3.42,7.02,-3.42,3.42,3.52,3.77,10.44,10.44,10.44
55.18,6.98,-3.43,6.98,-3.43,3.43,3.52,3.81,10.41,10.41,10.42
55.74,6.95,-3.44,6.95,-3.44,3.44,3.52,3.85,10.39,10.39,10.39
56.29,6.92,-3.45,6.92,-3.45,3.44,3.52,3.89,10.36,10.36,10.37
56.86,6.89,-3.45,6.89,-3.45,3.45,3.51,3.92,10.34,10.34,10.34
57.42,6.86,-3.45,6.86,-3.45,3.46,3.51,3.95,10.32,10.32,10.32
58.00,6.84,-3.45,6.84,-3.46,3.46,3.50,3.98,10.30,10.29,10.29
58.58,6.81,-3.46,6.81,-3.46,3.46,3.50,4.01,10.27,10.27,10.26
59.16,6.77,-3.46,6.77,-3.46,3.46,3.49,4.03,10.24,10.24,10.24
59.76,6.74,-3.47,6.74,-3.47,3.47,3.48,4.04,10.21,10.21,10.21
60.35,6.70,-3.47,6.71,-3.47,3.47,3.47,4.05,10.18,10.18,10.18
60.96,6.67,-3.48,6.67,-3.48,3.48,3.47,4.06,10.14,10.14,10.15
61.57,6.63,-3.48,6.63,-3.48,3.48,3.46,4.06,10.11,10.11,10.11
62.18,6.59,-3.48,6.59,-3.48,3.48,3.45,4.05,10.07,10.07,10.07
62.80,6.55,-3.48,6.55,-3.48,3.48,3.43,4.04,10.03,10.03,10.04
63.43,6.51,-3.48,6.51,-3.48,3.48,3.42,4.02,9.99,9.99,9.99
64.07,6.47,-3.48,6.47,-3.48,3.48,3.41,4.00,9.95,9.95,9.95
64.71,6.43,-3.47,6.43,-3.47,3.47,3.40,3.98,9.91,9.91,9.91
65.35,6.40,-3.47,6.40,-3.47,3.46,3.39,3.95,9.86,9.86,9.86
66.01,6.36,-3.46,6.36,-3.46,3.45,3.38,3.91,9.81,9.81,9.81
66.67,6.32,-3.44,6.32,-3.44,3.44,3.37,3.87,9.77,9.77,9.77
67.33,6.28,-3.43,6.28,-3.43,3.43,3.36,3.82,9.72,9.72,9.72
68.01,6.25,-3.42,6.25,-3.42,3.42,3.35,3.77,9.67,9.67,9.67
68.69,6.21,-3.41,6.21,-3.41,3.41,3.34,3.72,9.62,9.62,9.62
69.37,6.17,-3.40,6.17,-3.40,3.41,3.34,3.66,9.57,9.57,9.57
70.07,6.13,-3.40,6.13,-3.40,3.40,3.33,3.60,9.52,9.52,9.52
70.77,6.09,-3.39,6.09,-3.39,3.39,3.33,3.54,9.48,9.48,9.48
71.48,6.05,-3.39,6.05,-3.39,3.39,3.33,3.48,9.43,9.43,9.44
72.19,6.01,-3.38,6.01,-3.38,3.38,3.33,3.41,9.39,9.39,9.39
72.91,5.97,-3.38,5.97,-3.38,3.38,3.33,3.35,9.35,9.35,9.35
73.64,5.93,-3.38,5.93,-3.38,3.39,3.33,3.28,9.32,9.32,9.31
74.38,5.89,-3.39,5.89,-3.39,3.39,3.34,3.21,9.28,9.28,9.28
75.12,5.85,-3.39,5.85,-3.39,3.39,3.35,3.14,9.24,9.24,9.24
75.87,5.80,-3.40,5.80,-3.40,3.40,3.36,3.07,9.21,9.21,9.21
76.63,5.76,-3.41,5.76,-3.41,3.41,3.37,3.00,9.17,9.17,9.17
77.40,5.72,-3.42,5.72,-3.42,3.42,3.39,2.93,9.14,9.14,9.14
78.17,5.67,-3.43,5.67,-3.43,3.43,3.40,2.86,9.10,9.10,9.10
78.95,5.63,-3.43,5.63,-3.43,3.43,3.42,2.79,9.06,9.06,9.06
79.74,5.59,-3.44,5.59,-3.44,3.44,3.44,2.72,9.03,9.03,9.03
80.54,5.55,-3.44,5.55,-3.44,3.44,3.45,2.66,8.99,8.99,8.99
81.35,5.50,-3.44,5.50,-3.44,3.44,3.46,2.59,8.94,8.94,8.94
82.16,5.46,-3.44,5.46,-3.44,3.44,3.46,2.53,8.90,8.90,8.90
82.98,5.42,-3.43,5.42,-3.43,3.43,3.46,2.47,8.85,8.85,8.85
83.81,5.38,-3.42,5.38,-3.42,3.41,3.45,2.40,8.79,8.79,8.79
84.65,5.33,-3.40,5.33,-3.40,3.39,3.44,2.34,8.72,8.72,8.73
85.50,5.29,-3.37,5.29,-3.37,3.36,3.41,2.29,8.66,8.66,8.66
86.35,5.26,-3.33,5.26,-3.33,3.32,3.37,2.23,8.58,8.58,8.59
87.22,5.23,-3.29,5.23,-3.28,3.28,3.32,2.18,8.51,8.51,8.51
88.09,5.20,-3.23,5.20,-3.23,3.23,3.26,2.12,8.43,8.43,8.43
88.97,5.16,-3.17,5.16,-3.17,3.18,3.19,2.07,8.34,8.34,8.33
89.86,5.13,-3.11,5.12,-3.11,3.12,3.11,2.02,8.25,8.24,8.24
90.76,5.08,-3.05,5.08,-3.05,3.06,3.02,1.97,8.14,8.14,8.13
91.66,5.03,-2.99,5.03,-2.99,2.99,2.93,1.93,8.02,8.02,8.02
92.58,4.97,-2.92,4.97,-2.92,2.92,2.83,1.88,7.90,7.90,7.90
93.51,4.92,-2.85,4.92,-2.85,2.85,2.74,1.84,7.77,7.77,7.78
94.44,4.87,-2.77,4.87,-2.77,2.76,2.64,1.80,7.64,7.64,7.65
95.39,4.83,-2.69,4.83,-2.68,2.68,2.54,1.76,7.50,7.50,7.51
96.34,4.78,-2.59,4.78,-2.59,2.58,2.44,1.72,7.37,7.37,7.37
97.30,4.75,-2.49,4.75,-2.49,2.48,2.35,1.68,7.23,7.23,7.23
98.28,4.71,-2.38,4.71,-2.38,2.38,2.25,1.64,7.09,7.09,7.09
99.26,4.67,-2.27,4.67,-2.27,2.28,2.16,1.61,6.95,6.95,6.94
100.25,4.62,-2.17,4.62,-2.17,2.18,2.08,1.58,6.81,6.80,6.79
101.25,4.57,-2.07,4.57,-2.07,2.08,1.99,1.54,6.65,6.65,6.64
102.27,4.51,-1.98,4.51,-1.98,1.98,1.91,1.51,6.50,6.50,6.49
103.29,4.46,-1.89,4.46,-1.89,1.88,1.83,1.48,6.34,6.34,6.34
104.32,4.40,-1.79,4.40,-1.79,1.79,1.75,1.45,6.19,6.19,6.19
105.37,4.35,-1.70,4.35,-1.70,1.69,1.68,1.42,6.04,6.04,6.04
106.42,4.29,-1.60,4.29,-1.60,1.59,1.60,1.39,5.89,5.89,5.89
107.48,4.24,-1.50,4.24,-1.50,1.50,1.53,1.36,5.74,5.74,5.74
108.56,4.20,-1.40,4.20,-1.40,1.40,1.47,1.33,5.60,5.60,5.60
109.64,4.15,-1.30,4.15,-1.30,1.30,1.40,1.31,5.45,5.45,5.45
110.74,4.11,-1.20,4.11,-1.20,1.21,1.33,1.28,5.32,5.32,5.31
111.85,4.06,-1.11,4.06,-1.11,1.12,1.27,1.25,5.18,5.18,5.17
112.97,4.01,-1.02,4.01,-1.02,1.03,1.21,1.22,5.04,5.04,5.04
114.10,3.96,-0.94,3.96,-0.94,0.94,1.15,1.19,4.91,4.91,4.91
115.24,3.91,-0.87,3.91,-0.87,0.87,1.09,1.16,4.78,4.78,4.78
116.39,3.86,-0.79,3.86,-0.79,0.79,1.03,1.13,4.65,4.65,4.66
117.55,3.81,-0.72,3.81,-0.72,0.72,0.98,1.10,4.53,4.54,4.54
118.73,3.77,-0.66,3.77,-0.66,0.66,0.92,1.07,4.42,4.42,4.43
119.92,3.72,-0.59,3.72,-0.59,0.59,0.86,1.04,4.32,4.32,4.32
121.12,3.68,-0.54,3.68,-0.54,0.54,0.81,1.01,4.21,4.21,4.21
122.33,3.63,-0.48,3.63,-0.48,0.49,0.75,0.97,4.12,4.12,4.11
123.55,3.58,-0.44,3.58,-0.44,0.44,0.70,0.94,4.02,4.02,4.02
124.79,3.53,-0.39,3.53,-0.39,0.40,0.65,0.90,3.93,3.93,3.93
126.03,3.48,-0.36,3.48,-0.36,0.36,0.59,0.86,3.84,3.84,3.84
127.29,3.43,-0.32,3.43,-0.32,0.32,0.54,0.83,3.76,3.76,3.76
128.57,3.38,-0.29,3.38,-0.29,0.29,0.49,0.79,3.68,3.68,3.68
129.85,3.33,-0.27,3.33,-0.27,0.27,0.43,0.74,3.60,3.60,3.60
131.15,3.28,-0.24,3.28,-0.24,0.24,0.38,0.70,3.53,3.53,3.52
132.46,3.23,-0.22,3.23,-0.22,0.22,0.32,0.66,3.45,3.45,3.45
133.79,3.18,-0.19,3.18,-0.19,0.19,0.27,0.61,3.38,3.38,3.38
135.12,3.13,-0.17,3.13,-0.17,0.17,0.22,0.57,3.31,3.31,3.31
136.48,3.08,-0.15,3.08,-0.15,0.15,0.16,0.52,3.23,3.23,3.23
137.84,3.03,-0.13,3.03,-0.13,0.13,0.11,0.47,3.16,3.16,3.16
139.22,2.98,-0.10,2.98,-0.10,0.10,0.05,0.42,3.08,3.08,3.09
140.61,2.94,-0.07,2.94,-0.07,0.07,-0.01,0.37,3.01,3.01,3.01
142.02,2.89,-0.05,2.89,-0.05,0.04,-0.06,0.32,2.93,2.93,2.93
143.44,2.84,-0.01,2.84,-0.01,0.01,-0.12,0.27,2.85,2.85,2.85
144.87,2.79,0.02,2.79,0.02,-0.02,-0.18,0.21,2.77,2.77,2.77
146.32,2.74,0.05,2.74,0.06,-0.05,-0.24,0.16,2.69,2.69,2.68
147.78,2.69,0.09,2.69,0.09,-0.09,-0.30,0.10,2.60,2.60,2.59
149.26,2.63,0.13,2.63,0.13,-0.13,-0.36,0.05,2.50,2.50,2.50
150.75,2.57,0.17,2.57,0.17,-0.17,-0.42,-0.01,2.40,2.40,2.40
152.26,2.51,0.21,2.51,0.21,-0.21,-0.48,-0.07,2.30,2.30,2.30
153.78,2.45,0.26,2.45,0.26,-0.26,-0.55,-0.13,2.20,2.20,2.20
155.32,2.39,0.30,2.39,0.30,-0.30,-0.61,-0.19,2.09,2.09,2.09
156.88,2.33,0.36,2.33,0.36,-0.35,-0.68,-0.25,1.98,1.98,1.97
158.44,2.26,0.41,2.26,0.41,-0.40,-0.75,-0.31,1.86,1.86,1.85
160.03,2.20,0.47,2.20,0.47,-0.46,-0.82,-0.37,1.73,1.73,1.73
161.63,2.13,0.53,2.13,0.53,-0.53,-0.89,-0.44,1.61,1.61,1.61
163.24,2.08,0.60,2.08,0.60,-0.60,-0.96,-0.50,1.47,1.47,1.48
164.88,2.03,0.68,2.03,0.68,-0.69,-1.04,-0.57,1.34,1.34,1.35
166.53,1.99,0.78,1.99,0.78,-0.78,-1.11,-0.63,1.21,1.20,1.21
168.19,1.96,0.89,1.96,0.89,-0.90,-1.19,-0.70,1.07,1.07,1.08
169.87,1.95,1.01,1.95,1.01,-1.02,-1.27,-0.76,0.93,0.93,0.94
171.57,1.95,1.15,1.95,1.15,-1.16,-1.35,-0.83,0.79,0.79,0.80
173.29,1.96,1.30,1.96,1.30,-1.31,-1.43,-0.90,0.66,0.65,0.66
175.02,1.98,1.46,1.98,1.46,-1.46,-1.51,-0.97,0.51,0.52,0.52
176.77,2.00,1.62,2.00,1.62,-1.63,-1.60,-1.04,0.38,0.38,0.38
178.54,2.02,1.79,2.02,1.79,-1.79,-1.68,-1.11,0.24,0.24,0.24
180.32,2.04,1.95,2.04,1.95,-1.94,-1.77,-1.18,0.10,0.10,0.09
182.13,2.05,2.10,2.05,2.10,-2.09,-1.86,-1.26,-0.04,-0.04,-0.05
183.95,2.04,2.23,2.04,2.23,-2.22,-1.94,-1.33,-0.18,-0.18,-0.20
185.79,2.01,2.35,2.01,2.35,-2.33,-2.03,-1.41,-0.32,-0.32,-0.34
187.65,1.97,2.45,1.97,2.45,-2.43,-2.12,-1.48,-0.46,-0.46,-0.48
189.52,1.92,2.53,1.92,2.53,-2.52,-2.21,-1.56,-0.60,-0.60,-0.61
191.42,1.86,2.59,1.86,2.60,-2.59,-2.30,-1.63,-0.74,-0.74,-0.74
193.33,1.80,2.65,1.79,2.65,-2.66,-2.39,-1.71,-0.86,-0.86,-0.86
195.27,1.73,2.71,1.73,2.70,-2.71,-2.47,-1.79,-0.98,-0.98,-0.97
197.22,1.67,2.75,1.67,2.75,-2.77,-2.56,-1.87,-1.10,-1.09,-1.08
199.19,1.62,2.80,1.63,2.81,-2.82,-2.64,-1.94,-1.20,-1.19,-1.18
201.18,1.59,2.86,1.59,2.86,-2.87,-2.72,-2.02,-1.28,-1.28,-1.27
203.19,1.56,2.91,1.56,2.91,-2.91,-2.79,-2.10,-1.36,-1.36,-1.36
205.23,1.53,2.96,1.53,2.96,-2.96,-2.86,-2.18,-1.43,-1.43,-1.44
207.28,1.50,3.01,1.50,3.01,-3.00,-2.93,-2.26,-1.50,-1.50,-1.51
209.35,1.47,3.04,1.47,3.04,-3.03,-2.99,-2.33,-1.56,-1.56,-1.57
211.44,1.44,3.06,1.44,3.06,-3.06,-3.05,-2.41,-1.62,-1.62,-1.63
213.56,1.40,3.08,1.40,3.08,-3.08,-3.10,-2.48,-1.68,-1.68,-1.68
215.69,1.37,3.09,1.37,3.10,-3.09,-3.15,-2.56,-1.73,-1.73,-1.73
217.85,1.33,3.10,1.33,3.10,-3.10,-3.18,-2.63,-1.77,-1.77,-1.77
220.03,1.30,3.10,1.30,3.10,-3.10,-3.22,-2.69,-1.80,-1.80,-1.81
222.23,1.26,3.10,1.26,3.10,-3.10,-3.24,-2.76,-1.84,-1.84,-1.84
224.45,1.22,3.09,1.22,3.09,-3.09,-3.26,-2.82,-1.87,-1.87,-1.87
226.70,1.18,3.08,1.18,3.08,-3.08,-3.26,-2.88,-1.90,-1.90,-1.90
228.96,1.14,3.06,1.14,3.06,-3.07,-3.27,-2.94,-1.93,-1.93,-1.92
231.25,1.10,3.05,1.10,3.05,-3.06,-3.26,-2.99,-1.95,-1.95,-1.95
233.57,1.07,3.04,1.07,3.04,-3.04,-3.25,-3.04,-1.98,-1.98,-1.97
235.90,1.03,3.03,1.03,3.03,-3.03,-3.23,-3.08,-2.00,-2.00,-2.00
238.26,0.99,3.01,0.99,3.01,-3.01,-3.20,-3.12,-2.02,-2.02,-2.02
240.64,0.96,3.00,0.96,3.00,-3.00,-3.17,-3.15,-2.04,-2.04,-2.04
243.05,0.92,2.98,0.92,2.98,-2.98,-3.13,-3.18,-2.06,-2.06,-2.06
245.48,0.88,2.96,0.88,2.96,-2.96,-3.09,-3.20,-2.07,-2.07,-2.08
247.93,0.85,2.94,0.85,2.94,-2.94,-3.05,-3.21,-2.09,-2.09,-2.09
250.41,0.81,2.91,0.81,2.91,-2.91,-3.00,-3.22,-2.10,-2.10,-2.10
252.92,0.77,2.88,0.77,2.88,-2.88,-2.95,-3.22,-2.11,-2.11,-2.11
255.45,0.73,2.85,0.73,2.85,-2.85,-2.89,-3.22,-2.11,-2.12,-2.11
258.00,0.70,2.81,0.70,2.81,-2.81,-2.84,-3.21,-2.12,-2.12,-2.12
260.58,0.66,2.78,0.66,2.78,-2.78,-2.78,-3.20,-2.12,-2.12,-2.12
263.19,0.63,2.74,0.63,2.74,-2.74,-2.72,-3.18,-2.11,-2.11,-2.11
265.82,0.59,2.70,0.59,2.70,-2.70,-2.66,-3.16,-2.11,-2.11,-2.11
268.48,0.56,2.65,0.56,2.65,-2.66,-2.60,-3.13,-2.10,-2.10,-2.10
271.16,0.52,2.61,0.52,2.61,-2.61,-2.54,-3.09,-2.09,-2.09,-2.09
273.87,0.49,2.57,0.49,2.57,-2.57,-2.49,-3.06,-2.08,-2.08,-2.07
276.61,0.46,2.52,0.46,2.52,-2.52,-2.43,-3.01,-2.06,-2.06,-2.06
279.38,0.43,2.47,0.43,2.47,-2.47,-2.37,-2.97,-2.04,-2.04,-2.04
282.17,0.40,2.43,0.40,2.43,-2.42,-2.32,-2.92,-2.02,-2.02,-2.03
284.99,0.37,2.38,0.37,2.38,-2.37,-2.26,-2.87,-2.00,-2.00,-2.01
287.84,0.34,2.32,0.34,2.32,-2.32,-2.21,-2.82,-1.98,-1.98,-1.98
290.72,0.31,2.26,0.31,2.26,-2.26,-2.16,-2.76,-1.96,-1.96,-1.96
293.63,0.27,2.21,0.27,2.21,-2.21,-2.12,-2.70,-1.93,-1.93,-1.93
296.57,0.24,2.15,0.24,2.15,-2.15,-2.07,-2.65,-1.91,-1.91,-1.91
299.53,0.21,2.09,0.21,2.09,-2.09,-2.03,-2.59,-1.88,-1.88,-1.88
302.53,0.18,2.03,0.18,2.03,-2.03,-1.98,-2.53,-1.85,-1.85,-1.85
305.55,0.15,1.98,0.15,1.98,-1.98,-1.94,-2.47,-1.83,-1.83,-1.83
308.61,0.12,1.93,0.12,1.93,-1.93,-1.90,-2.41,-1.81,-1.81,-1.81
311.69,0.10,1.88,0.10,1.88,-1.89,-1.87,-2.35,-1.79,-1.79,-1.79
314.81,0.07,1.84,0.07,1.84,-1.85,-1.83,-2.29,-1.78,-1.78,-1.77
317.96,0.04,1.81,0.04,1.81,-1.81,-1.80,-2.23,-1.77,-1.77,-1.77
321.14,0.01,1.78,0.01,1.78,-1.78,-1.77,-2.17,-1.77,-1.77,-1.77
324.35,-0.02,1.75,-0.02,1.75,-1.75,-1.74,-2.11,-1.77,-1.77,-1.77
327.59,-0.04,1.73,-0.04,1.73,-1.73,-1.71,-2.05,-1.78,-1.78,-1.78
330.87,-0.07,1.71,-0.07,1.71,-1.71,-1.68,-1.99,-1.79,-1.79,-1.79
334.18,-0.10,1.70,-0.10,1.70,-1.70,-1.65,-1.94,-1.80,-1.80,-1.80
337.52,-0.13,1.68,-0.13,1.68,-1.68,-1.63,-1.88,-1.81,-1.81,-1.81
340.90,-0.15,1.66,-0.15,1.66,-1.66,-1.60,-1.83,-1.82,-1.82,-1.82
344.30,-0.18,1.65,-0.18,1.65,-1.64,-1.58,-1.78,-1.82,-1.82,-1.83
347.75,-0.21,1.62,-0.21,1.62,-1.62,-1.56,-1.73,-1.83,-1.83,-1.83
351.23,-0.23,1.60,-0.23,1.60,-1.60,-1.54,-1.68,-1.83,-1.83,-1.83
354.74,-0.25,1.57,-0.25,1.57,-1.57,-1.51,-1.63,-1.82,-1.82,-1.83
358.28,-0.28,1.54,-0.28,1.54,-1.54,-1.49,-1.58,-1.81,-1.81,-1.82
361.87,-0.30,1.51,-0.30,1.51,-1.50,-1.47,-1.53,-1.80,-1.80,-1.81
365.49,-0.32,1.47,-0.32,1.47,-1.47,-1.45,-1.49,-1.79,-1.79,-1.79
369.14,-0.35,1.43,-0.35,1.43,-1.43,-1.43,-1.45,-1.78,-1.78,-1.78
372.83,-0.37,1.39,-0.37,1.39,-1.39,-1.41,-1.41,-1.76,-1.76,-1.76
376.56,-0.39,1.35,-0.39,1.35,-1.36,-1.39,-1.36,-1.75,-1.75,-1.75
380.33,-0.41,1.32,-0.41,1.32,-1.32,-1.37,-1.33,-1.73,-1.73,-1.73
384.13,-0.43,1.29,-0.43,1.29,-1.29,-1.35,-1.29,-1.71,-1.71,-1.71
387.97,-0.45,1.25,-0.45,1.25,-1.25,-1.33,-1.25,-1.70,-1.70,-1.70
391.85,-0.47,1.22,-0.47,1.22,-1.23,-1.30,-1.21,-1.69,-1.69,-1.69
395.77,-0.49,1.20,-0.49,1.20,-1.20,-1.28,-1.18,-1.69,-1.69,-1.68
399.73,-0.50,1.18,-0.50,1.18,-1.18,-1.26,-1.15,-1.68,-1.68,-1.68
403.72,-0.52,1.16,-0.52,1.16,-1.16,-1.24,-1.11,-1.69,-1.69,-1.68
407.76,-0.54,1.15,-0.54,1.15,-1.15,-1.22,-1.08,-1.69,-1.69,-1.69
411.84,-0.56,1.14,-0.56,1.14,-1.14,-1.20,-1.05,-1.70,-1.70,-1.70
415.96,-0.57,1.14,-0.57,1.14,-1.14,-1.17,-1.03,-1.71,-1.71,-1.71
420.12,-0.59,1.14,-0.59,1.14,-1.14,-1.15,-1.00,-1.73,-1.72,-1.72
424.32,-0.60,1.14,-0.60,1.14,-1.13,-1.13,-0.97,-1.74,-1.74,-1.74
428.56,-0.61,1.13,-0.61,1.13,-1.13,-1.11,-0.95,-1.74,-1.74,-1.75
432.85,-0.63,1.13,-0.63,1.13,-1.12,-1.09,-0.92,-1.75,-1.75,-1.76
437.18,-0.64,1.12,-0.64,1.12,-1.11,-1.07,-0.90,-1.75,-1.75,-1.76
441.55,-0.65,1.10,-0.65,1.10,-1.09,-1.05,-0.87,-1.75,-1.75,-1.75
445.96,-0.67,1.08,-0.67,1.08,-1.07,-1.03,-0.85,-1.74,-1.74,-1.74
450.42,-0.68,1.05,-0.68,1.05,-1.04,-1.01,-0.83,-1.72,-1.72,-1.73
454.93,-0.69,1.01,-0.69,1.01,-1.01,-0.99,-0.81,-1.70,-1.70,-1.71
459.48,-0.71,0.98,-0.71,0.98,-0.98,-0.97,-0.79,-1.69,-1.69,-1.69
464.07,-0.73,0.94,-0.73,0.94,-0.94,-0.96,-0.78,-1.67,-1.67,-1.67
468.71,-0.74,0.91,-0.74,0.91,-0.91,-0.94,-0.76,-1.65,-1.65,-1.65
473.40,-0.76,0.88,-0.76,0.88,-0.88,-0.92,-0.74,-1.64,-1.64,-1.64
478.13,-0.77,0.86,-0.77,0.86,-0.86,-0.91,-0.73,-1.64,-1.64,-1.63
482.91,-0.79,0.84,-0.79,0.84,-0.85,-0.89,-0.71,-1.64,-1.64,-1.63
487.74,-0.80,0.84,-0.80,0.84,-0.84,-0.88,-0.70,-1.64,-1.64,-1.64
492.62,-0.82,0.84,-0.82,0.84,-0.84,-0.86,-0.69,-1.66,-1.66,-1.65
497.55,-0.83,0.84,-0.83,0.84,-0.84,-0.85,-0.68,-1.68,-1.68,-1.68
