frequency,raw,error,smoothed,error_smoothed,equalization,parametric_eq,fixed_band_eq,equalized_raw,equalized_smoothed,target
20.00,4.36,-3.25,4.36,-3.25,3.26,-0.04,0.93,7.62,7.62,7.61
20.20,4.40,-3.22,4.40,-3.22,3.22,-0.05,0.96,7.62,7.62,7.61
20.40,4.43,-3.18,4.43,-3.18,3.18,-0.05,0.99,7.62,7.61,7.61
20.61,4.47,-3.15,4.47,-3.15,3.14,-0.05,1.02,7.61,7.61,7.61
20.81,4.50,-3.11,4.51,-3.11,3.10,-0.05,1.05,7.61,7.61,7.61
21.02,4.54,-3.07,4.54,-3.07,3.06,-0.05,1.08,7.61,7.61,7.61
21.23,4.58,-3.03,4.59,-3.03,3.02,-0.05,1.12,7.61,7.61,7.61
21.44,4.63,-2.98,4.63,-2.98,2.98,-0.05,1.15,7.61,7.61,7.61
21.66,4.68,-2.93,4.68,-2.93,2.93,-0.05,1.19,7.61,7.61,7.61
21.87,4.73,-2.89,4.73,-2.89,2.89,-0.05,1.22,7.61,7.61,7.61
22.09,4.78,-2.84,4.78,-2.84,2.84,-0.06,1.26,7.62,7.62,7.61
22.31,4.83,-2.79,4.83,-2.79,2.79,-0.06,1.30,7.62,7.62,7.61
22.54,4.87,-2.74,4.87,-2.74,2.75,-0.06,1.34,7.62,7.62,7.61
22.76,4.91,-2.70,4.91,-2.70,2.71,-0.06,1.38,7.62,7.62,7.61
22.99,4.95,-2.67,4.95,-2.67,2.67,-0.06,1.42,7.62,7.62,7.61
23.22,4.98,-2.63,4.98,-2.63,2.63,-0.06,1.47,7.61,7.62,7.61
23.45,5.01,-2.60,5.01,-2.60,2.60,-0.06,1.51,7.61,7.61,7.61
23.69,5.05,-2.57,5.05,-2.57,2.56,-0.06,1.55,7.61,7.61,7.61
23.92,5.08,-2.53,5.08,-2.53,2.53,-0.06,1.60,7.61,7.61,7.61
24.16,5.12,-2.50,5.12,-2.50,2.49,-0.07,1.64,7.61,7.61,7.61
24.40,5.15,-2.46,5.15,-2.46,2.46,-0.07,1.69,7.61,7.61,7.61
24.65,5.19,-2.43,5.19,-2.43,2.43,-0.07,1.74,7.62,7.62,7.61
24.89,5.22,-2.39,5.22,-2.39,2.40,-0.07,1.78,7.62,7.62,7.61
25.14,5.25,-2.36,5.25,-2.36,2.37,-0.07,1.83,7.62,7.62,7.61
25.39,5.28,-2.33,5.28,-2.33,2.34,-0.07,1.88,7.62,7.62,7.61
25.65,5.30,-2.31,5.30,-2.31,2.32,-0.07,1.93,7.62,7.62,7.61
25.91,5.32,-2.29,5.32,-2.29,2.29,-0.08,1.97,7.61,7.61,7.61
26.16,5.34,-2.27,5.34,-2.27,2.27,-0.08,2.02,7.61,7.61,7.61
26.43,5.36,-2.25,5.36,-2.25,2.24,-0.08,2.07,7.60,7.60,7.61
26.69,5.39,-2.22,5.39,-2.22,2.21,-0.08,2.11,7.60,7.60,7.61
26.96,5.42,-2.19,5.42,-2.19,2.18,-0.08,2.16,7.61,7.61,7.61
27.23,5.46,-2.16,5.46,-2.16,2.15,-0.08,2.20,7.61,7.61,7.61
27.50,5.49,-2.12,5.49,-2.12,2.12,-0.09,2.24,7.62,7.62,7.61
27.77,5.52,-2.09,5.52,-2.09,2.10,-0.09,2.28,7.62,7.62,7.61
28.05,5.55,-2.06,5.55,-2.06,2.07,-0.09,2.32,7.62,7.62,7.61
28.33,5.57,-2.04,5.57,-2.04,2.05,-0.09,2.35,7.62,7.62,7.61
28.62,5.58,-2.03,5.58,-2.03,2.03,-0.09,2.39,7.61,7.61,7.60
28.90,5.59,-2.02,5.59,-2.02,2.02,-0.10,2.41,7.61,7.61,7.61
29.19,5.60,-2.01,5.60,-2.01,2.01,-0.10,2.44,7.61,7.61,7.61
29.48,5.61,-2.01,5.61,-2.00,2.00,-0.10,2.46,7.61,7.61,7.62
29.78,5.64,-1.99,5.64,-1.99,1.99,-0.10,2.48,7.62,7.62,7.63
30.08,5.66,-1.97,5.66,-1.97,1.97,-0.10,2.49,7.63,7.63,7.64
30.38,5.69,-1.95,5.69,-1.95,1.95,-0.11,2.51,7.64,7.64,7.64
30.68,5.71,-1.93,5.71,-1.93,1.93,-0.11,2.51,7.65,7.64,7.65
30.99,5.73,-1.91,5.73,-1.91,1.91,-0.11,2.51,7.64,7.64,7.64
31.30,5.76,-1.88,5.76,-1.88,1.88,-0.11,2.51,7.64,7.64,7.64
31.61,5.78,-1.85,5.78,-1.85,1.85,-0.12,2.50,7.63,7.63,7.63
31.93,5.80,-1.82,5.80,-1.82,1.82,-0.12,2.49,7.62,7.62,7.62
32.24,5.83,-1.79,5.83,-1.79,1.79,-0.12,2.48,7.62,7.62,7.61
32.57,5.85,-1.75,5.85,-1.75,1.76,-0.12,2.46,7.61,7.61,7.60
32.89,5.87,-1.72,5.87,-1.72,1.73,-0.13,2.43,7.60,7.60,7.59
33.22,5.89,-1.69,5.89,-1.69,1.70,-0.13,2.40,7.59,7.59,7.59
33.55,5.91,-1.67,5.91,-1.67,1.67,-0.13,2.37,7.58,7.58,7.58
33.89,5.93,-1.65,5.93,-1.65,1.65,-0.13,2.34,7.58,7.58,7.58
34.23,5.95,-1.63,5.95,-1.63,1.63,-0.14,2.30,7.59,7.59,7.58
34.57,5.97,-1.61,5.97,-1.61,1.62,-0.14,2.25,7.59,7.59,7.58
34.92,5.98,-1.59,5.98,-1.60,1.60,-0.14,2.21,7.59,7.58,7.58
35.27,5.99,-1.59,5.98,-1.59,1.58,-0.15,2.16,7.57,7.57,7.57
35.62,5.99,-1.58,5.99,-1.58,1.56,-0.15,2.12,7.55,7.55,7.56
35.97,5.99,-1.56,5.99,-1.56,1.54,-0.15,2.06,7.53,7.53,7.55
36.33,6.01,-1.53,6.01,-1.53,1.52,-0.16,2.01,7.53,7.53,7.54
36.70,6.04,-1.48,6.04,-1.48,1.49,-0.16,1.96,7.53,7.54,7.53
37.06,6.08,-1.44,6.07,-1.44,1.47,-0.16,1.90,7.54,7.54,7.51
37.43,6.10,-1.40,6.09,-1.41,1.44,-0.17,1.85,7.54,7.53,7.50
37.81,6.10,-1.39,6.10,-1.39,1.40,-0.17,1.79,7.51,7.50,7.49
38.19,6.10,-1.37,6.10,-1.37,1.36,-0.17,1.73,7.46,7.46,7.48
38.57,6.11,-1.35,6.12,-1.34,1.30,-0.18,1.67,7.41,7.42,7.46
38.95,6.16,-1.29,6.16,-1.29,1.23,-0.18,1.62,7.39,7.39,7.45
39.34,6.22,-1.21,6.22,-1.21,1.16,-0.19,1.56,7.38,7.38,7.43
39.74,6.30,-1.11,6.31,-1.11,1.09,-0.19,1.50,7.39,7.40,7.42
40.14,6.39,-1.01,6.39,-1.01,1.04,-0.19,1.44,7.43,7.43,7.40
40.54,6.47,-0.91,6.46,-0.92,1.00,-0.20,1.39,7.47,7.46,7.38
40.94,6.48,-0.88,6.48,-0.89,0.99,-0.20,1.33,7.47,7.46,7.36
41.35,6.44,-0.90,6.44,-0.91,0.99,-0.21,1.28,7.44,7.43,7.34
41.76,6.35,-0.97,6.34,-0.98,1.01,-0.21,1.22,7.36,7.35,7.32
42.18,6.23,-1.07,6.23,-1.07,1.03,-0.22,1.17,7.26,7.26,7.30
42.60,6.12,-1.16,6.13,-1.14,1.05,-0.22,1.11,7.17,7.19,7.28
43.03,6.07,-1.18,6.09,-1.16,1.06,-0.23,1.06,7.14,7.15,7.25
43.46,6.10,-1.13,6.10,-1.13,1.06,-0.23,1.01,7.16,7.16,7.23
43.90,6.16,-1.05,6.16,-1.05,1.03,-0.24,0.95,7.19,7.19,7.20
44.33,6.23,-0.95,6.22,-0.96,1.00,-0.24,0.90,7.22,7.22,7.18
44.78,6.27,-0.88,6.27,-0.88,0.95,-0.25,0.85,7.22,7.22,7.15
45.23,6.30,-0.83,6.29,-0.83,0.89,-0.25,0.80,7.19,7.19,7.13
45.68,6.29,-0.81,6.29,-0.81,0.84,-0.26,0.76,7.13,7.13,7.10
46.13,6.27,-0.80,6.27,-0.80,0.79,-0.26,0.71,7.07,7.07,7.07
46.60,6.25,-0.80,6.25,-0.79,0.75,-0.27,0.66,7.00,7.01,7.05
47.06,6.25,-0.77,6.25,-0.77,0.72,-0.28,0.62,6.97,6.97,7.02
47.53,6.26,-0.72,6.27,-0.71,0.69,-0.28,0.57,6.95,6.96,6.99
48.01,6.31,-0.64,6.31,-0.65,0.66,-0.29,0.53,6.97,6.97,6.95
48.49,6.34,-0.58,6.33,-0.59,0.62,-0.30,0.48,6.97,6.95,6.92
48.97,6.34,-0.55,6.33,-0.55,0.58,-0.30,0.44,6.92,6.91,6.89
49.46,6.31,-0.54,6.32,-0.54,0.54,-0.31,0.39,6.85,6.86,6.85
49.96,6.29,-0.53,6.30,-0.52,0.50,-0.32,0.35,6.79,6.80,6.82
50.46,6.30,-0.48,6.30,-0.48,0.46,-0.33,0.31,6.76,6.76,6.78
50.96,6.32,-0.43,6.32,-0.43,0.42,-0.33,0.27,6.74,6.74,6.75
51.47,6.34,-0.38,6.33,-0.38,0.38,-0.34,0.23,6.72,6.71,6.71
51.99,6.34,-0.33,6.34,-0.33,0.34,-0.35,0.19,6.68,6.68,6.68
52.51,6.35,-0.29,6.35,-0.29,0.30,-0.36,0.15,6.65,6.65,6.64
53.03,6.35,-0.25,6.35,-0.25,0.26,-0.37,0.11,6.61,6.61,6.60
53.56,6.34,-0.22,6.34,-0.22,0.22,-0.37,0.07,6.57,6.57,6.56
54.10,6.33,-0.19,6.33,-0.19,0.19,-0.38,0.03,6.52,6.52,6.52
54.64,6.32,-0.16,6.32,-0.16,0.16,-0.39,-0.00,6.48,6.48,6.48
55.18,6.31,-0.13,6.31,-0.13,0.12,-0.40,-0.04,6.44,6.44,6.44
55.74,6.30,-0.10,6.30,-0.10,0.09,-0.41,-0.08,6.39,6.39,6.40
56.29,6.29,-0.06,6.29,-0.06,0.05,-0.42,-0.11,6.34,6.34,6.36
56.86,6.29,-0.02,6.29,-0.02,0.01,-0.43,-0.15,6.29,6.30,6.31
57.42,6.30,0.03,6.30,0.04,-0.04,-0.44,-0.18,6.26,6.26,6.27
58.00,6.32,0.10,6.31,0.09,-0.09,-0.45,-0.22,6.23,6.22,6.22
58.58,6.32,0.14,6.32,0.14,-0.14,-0.47,-0.25,6.18,6.18,6.18
59.16,6.32,0.19,6.32,0.19,-0.19,-0.48,-0.29,6.13,6.13,6.13
59.76,6.33,0.24,6.33,0.24,-0.24,-0.49,-0.32,6.09,6.09,6.08
60.35,6.33,0.29,6.33,0.29,-0.28,-0.50,-0.35,6.05,6.05,6.04
60.96,6.33,0.34,6.32,0.33,-0.32,-0.52,-0.39,6.01,6.00,5.99
61.57,6.30,0.36,6.30,0.36,-0.36,-0.53,-0.42,5.94,5.94,5.94
62.18,6.27,0.38,6.28,0.39,-0.40,-0.54,-0.45,5.87,5.88,5.89
62.80,6.26,0.42,6.26,0.42,-0.44,-0.56,-0.49,5.82,5.82,5.84
63.43,6.25,0.46,6.25,0.46,-0.48,-0.57,-0.52,5.78,5.77,5.79
64.07,6.25,0.51,6.25,0.51,-0.51,-0.59,-0.55,5.74,5.74,5.74
64.71,6.25,0.56,6.25,0.56,-0.55,-0.60,-0.58,5.70,5.70,5.69
65.35,6.24,0.61,6.24,0.61,-0.59,-0.62,-0.62,5.65,5.65,5.63
66.01,6.23,0.65,6.23,0.64,-0.63,-0.64,-0.65,5.60,5.60,5.58
66.67,6.20,0.67,6.20,0.67,-0.67,-0.65,-0.68,5.53,5.53,5.53
67.33,6.17,0.70,6.18,0.70,-0.71,-0.67,-0.71,5.46,5.46,5.48
68.01,6.15,0.73,6.16,0.74,-0.76,-0.69,-0.74,5.39,5.40,5.42
68.69,6.17,0.80,6.16,0.80,-0.81,-0.71,-0.78,5.36,5.35,5.37
69.37,6.17,0.86,6.16,0.85,-0.86,-0.73,-0.81,5.31,5.30,5.31
70.07,6.17,0.92,6.17,0.91,-0.92,-0.75,-0.84,5.25,5.25,5.25
70.77,6.16,0.96,6.17,0.97,-0.97,-0.77,-0.88,5.18,5.20,5.20
71.48,6.17,1.03,6.17,1.03,-1.02,-0.79,-0.91,5.15,5.15,5.14
72.19,6.19,1.10,6.18,1.09,-1.07,-0.82,-0.95,5.11,5.10,5.08
72.91,6.17,1.15,6.17,1.14,-1.12,-0.84,-0.98,5.05,5.05,5.02
73.64,6.13,1.17,6.13,1.17,-1.16,-0.86,-1.02,4.97,4.97,4.96
74.38,6.09,1.18,6.09,1.18,-1.20,-0.89,-1.05,4.89,4.89,4.90
75.12,6.04,1.20,6.05,1.21,-1.23,-0.92,-1.09,4.81,4.82,4.84
75.87,6.03,1.25,6.04,1.26,-1.26,-0.94,-1.13,4.77,4.78,4.78
76.63,6.04,1.31,6.04,1.31,-1.30,-0.97,-1.17,4.73,4.73,4.72
77.40,6.05,1.38,6.01,1.34,-1.35,-1.00,-1.21,4.70,4.66,4.67
78.17,5.97,1.37,5.98,1.38,-1.39,-1.04,-1.25,4.58,4.59,4.60
78.95,5.92,1.37,5.97,1.42,-1.44,-1.07,-1.29,4.48,4.53,4.54
79.74,5.98,1.50,5.96,1.48,-1.48,-1.10,-1.33,4.50,4.48,4.48
80.54,5.99,1.57,5.97,1.55,-1.53,-1.14,-1.38,4.46,4.44,4.42
81.35,5.96,1.61,5.96,1.61,-1.57,-1.18,-1.42,4.39,4.39,4.35
82.16,5.91,1.62,5.91,1.62,-1.61,-1.22,-1.47,4.30,4.30,4.29
82.98,5.86,1.64,5.87,1.64,-1.65,-1.26,-1.52,4.21,4.21,4.23
83.81,5.83,1.66,5.85,1.68,-1.70,-1.30,-1.56,4.13,4.15,4.17
84.65,5.85,1.75,5.83,1.73,-1.75,-1.34,-1.61,4.10,4.09,4.10
85.50,5.84,1.80,5.83,1.79,-1.80,-1.39,-1.67,4.04,4.03,4.04
86.35,5.81,1.83,5.83,1.85,-1.85,-1.44,-1.72,3.96,3.98,3.98
87.22,5.82,1.91,5.82,1.91,-1.91,-1.49,-1.77,3.91,3.91,3.91
88.09,5.83,1.99,5.83,1.98,-1.98,-1.54,-1.83,3.86,3.85,3.85
88.97,5.83,2.05,5.84,2.05,-2.04,-1.60,-1.89,3.79,3.79,3.78
89.86,5.83,2.11,5.84,2.12,-2.10,-1.66,-1.94,3.73,3.74,3.72
90.76,5.84,2.18,5.84,2.17,-2.16,-1.72,-2.00,3.68,3.67,3.66
91.66,5.83,2.23,5.82,2.22,-2.22,-1.78,-2.07,3.61,3.60,3.60
92.58,5.80,2.27,5.81,2.27,-2.28,-1.85,-2.13,3.53,3.53,3.54
93.51,5.78,2.31,5.79,2.32,-2.33,-1.92,-2.19,3.45,3.46,3.47
94.44,5.79,2.38,5.79,2.38,-2.39,-2.00,-2.26,3.40,3.40,3.40
95.39,5.79,2.45,5.78,2.44,-2.45,-2.07,-2.32,3.34,3.34,3.34
96.34,5.78,2.50,5.78,2.51,-2.51,-2.15,-2.39,3.28,3.28,3.28
97.30,5.77,2.56,5.78,2.57,-2.56,-2.23,-2.46,3.21,3.21,3.21
98.28,5.78,2.63,5.77,2.62,-2.62,-2.32,-2.53,3.15,3.15,3.15
99.26,5.77,2.69,5.77,2.68,-2.68,-2.41,-2.60,3.10,3.09,3.09
100.25,5.76,2.74,5.76,2.74,-2.73,-2.50,-2.67,3.03,3.03,3.03
101.25,5.75,2.78,5.75,2.78,-2.78,-2.59,-2.75,2.96,2.96,2.96
102.27,5.73,2.83,5.73,2.83,-2.83,-2.69,-2.82,2.90,2.90,2.90
103.29,5.71,2.87,5.72,2.88,-2.88,-2.79,-2.89,2.84,2.84,2.84
104.32,5.70,2.92,5.70,2.92,-2.92,-2.89,-2.96,2.78,2.78,2.78
105.37,5.68,2.96,5.68,2.96,-2.96,-2.98,-3.04,2.72,2.72,2.72
106.42,5.65,3.00,5.65,2.99,-3.00,-3.08,-3.11,2.66,2.66,2.66
107.48,5.62,3.03,5.62,3.03,-3.03,-3.18,-3.18,2.59,2.59,2.59
108.56,5.60,3.06,5.60,3.07,-3.07,-3.27,-3.25,2.53,2.53,2.53
109.64,5.58,3.10,5.58,3.10,-3.10,-3.36,-3.32,2.47,2.47,2.47
110.74,5.56,3.14,5.55,3.14,-3.14,-3.44,-3.39,2.42,2.41,2.41
111.85,5.53,3.17,5.53,3.18,-3.17,-3.53,-3.45,2.36,2.36,2.36
112.97,5.50,3.21,5.51,3.21,-3.21,-3.59,-3.51,2.30,2.30,2.30
114.10,5.48,3.24,5.48,3.24,-3.24,-3.66,-3.58,2.24,2.24,2.24
115.24,5.45,3.27,5.45,3.27,-3.27,-3.71,-3.63,2.18,2.18,2.18
116.39,5.42,3.30,5.42,3.30,-3.30,-3.76,-3.69,2.12,2.12,2.12
117.55,5.39,3.33,5.39,3.33,-3.34,-3.79,-3.74,2.06,2.06,2.06
118.73,5.37,3.37,5.37,3.37,-3.37,-3.82,-3.78,2.00,2.00,2.00
119.92,5.34,3.40,5.34,3.40,-3.40,-3.83,-3.82,1.94,1.94,1.94
121.12,5.31,3.43,5.31,3.43,-3.43,-3.84,-3.86,1.88,1.88,1.88
122.33,5.29,3.46,5.29,3.46,-3.46,-3.84,-3.90,1.83,1.83,1.82
123.55,5.26,3.50,5.26,3.49,-3.49,-3.83,-3.93,1.78,1.77,1.77
124.79,5.22,3.52,5.23,3.52,-3.51,-3.82,-3.95,1.71,1.71,1.71
126.03,5.19,3.54,5.19,3.54,-3.54,-3.80,-3.97,1.65,1.65,1.65
127.29,5.16,3.56,5.16,3.56,-3.57,-3.77,-3.99,1.59,1.59,1.60
128.57,5.13,3.58,5.13,3.59,-3.59,-3.75,-4.00,1.54,1.54,1.54
129.85,5.10,3.61,5.10,3.61,-3.61,-3.72,-4.00,1.48,1.49,1.49
131.15,5.07,3.64,5.07,3.64,-3.64,-3.69,-4.01,1.43,1.43,1.43
132.46,5.04,3.66,5.03,3.66,-3.66,-3.67,-4.01,1.38,1.37,1.37
133.79,4.99,3.68,5.00,3.69,-3.69,-3.64,-4.00,1.31,1.32,1.32
135.12,4.97,3.71,4.97,3.71,-3.71,-3.62,-3.99,1.27,1.26,1.26
136.48,4.95,3.74,4.94,3.73,-3.73,-3.60,-3.98,1.22,1.21,1.21
137.84,4.90,3.75,4.90,3.75,-3.75,-3.58,-3.97,1.16,1.16,1.15
139.22,4.86,3.76,4.86,3.76,-3.76,-3.56,-3.95,1.10,1.10,1.10
140.61,4.82,3.78,4.82,3.78,-3.78,-3.55,-3.93,1.04,1.04,1.04
142.02,4.78,3.79,4.78,3.79,-3.80,-3.54,-3.91,0.98,0.98,0.99
143.44,4.74,3.81,4.75,3.81,-3.81,-3.54,-3.89,0.93,0.93,0.93
144.87,4.71,3.84,4.71,3.83,-3.83,-3.54,-3.87,0.88,0.88,0.88
146.32,4.68,3.85,4.68,3.85,-3.85,-3.54,-3.85,0.83,0.83,0.83
147.78,4.65,3.87,4.65,3.87,-3.87,-3.54,-3.82,0.77,0.77,0.77
149.26,4.61,3.89,4.61,3.89,-3.90,-3.56,-3.80,0.72,0.72,0.72
150.75,4.58,3.92,4.59,3.92,-3.92,-3.57,-3.78,0.66,0.67,0.67
152.26,4.57,3.95,4.56,3.95,-3.94,-3.59,-3.76,0.62,0.62,0.62
153.78,4.54,3.98,4.54,3.97,-3.97,-3.60,-3.74,0.57,0.57,0.56
155.32,4.51,4.00,4.51,4.00,-4.00,-3.63,-3.72,0.51,0.51,0.51
156.88,4.48,4.02,4.48,4.02,-4.03,-3.65,-3.70,0.45,0.45,0.46
158.44,4.46,4.05,4.46,4.05,-4.06,-3.68,-3.69,0.40,0.40,0.41
160.03,4.45,4.10,4.44,4.09,-4.09,-3.71,-3.67,0.36,0.35,0.35
161.63,4.42,4.12,4.42,4.12,-4.12,-3.75,-3.66,0.30,0.30,0.30
163.24,4.40,4.15,4.40,4.15,-4.15,-3.78,-3.65,0.25,0.25,0.25
164.88,4.38,4.18,4.38,4.18,-4.18,-3.82,-3.65,0.20,0.20,0.20
166.53,4.35,4.20,4.35,4.21,-4.20,-3.86,-3.64,0.15,0.15,0.15
168.19,4.32,4.23,4.33,4.23,-4.22,-3.90,-3.64,0.10,0.11,0.10
169.87,4.30,4.26,4.29,4.24,-4.24,-3.94,-3.64,0.06,0.05,0.05
171.57,4.25,4.25,4.25,4.25,-4.26,-3.99,-3.65,-0.01,-0.01,-0.00
173.29,4.20,4.25,4.21,4.26,-4.27,-4.03,-3.65,-0.07,-0.06,-0.05
175.02,4.17,4.28,4.17,4.27,-4.28,-4.08,-3.66,-0.11,-0.11,-0.10
176.77,4.14,4.29,4.14,4.29,-4.29,-4.12,-3.67,-0.15,-0.15,-0.15
178.54,4.10,4.31,4.10,4.31,-4.30,-4.17,-3.69,-0.20,-0.20,-0.20
180.32,4.06,4.31,4.06,4.31,-4.31,-4.21,-3.71,-0.25,-0.25,-0.25
182.13,4.02,4.32,4.02,4.32,-4.32,-4.26,-3.73,-0.30,-0.30,-0.30
183.95,3.97,4.32,3.98,4.33,-4.33,-4.31,-3.75,-0.36,-0.35,-0.35
185.79,3.94,4.34,3.94,4.34,-4.34,-4.35,-3.78,-0.40,-0.40,-0.40
187.65,3.91,4.36,3.91,4.35,-4.35,-4.39,-3.81,-0.44,-0.44,-0.44
189.52,3.87,4.36,3.87,4.36,-4.36,-4.43,-3.84,-0.49,-0.49,-0.49
191.42,3.84,4.37,3.83,4.37,-4.37,-4.48,-3.87,-0.53,-0.53,-0.54
193.33,3.80,4.38,3.79,4.38,-4.38,-4.51,-3.91,-0.58,-0.58,-0.58
195.27,3.74,4.38,3.75,4.38,-4.38,-4.55,-3.95,-0.64,-0.63,-0.63
197.22,3.71,4.39,3.71,4.39,-4.39,-4.58,-3.99,-0.67,-0.68,-0.68
199.19,3.67,4.39,3.67,4.39,-4.39,-4.62,-4.03,-0.72,-0.73,-0.72
201.18,3.63,4.39,3.63,4.40,-4.40,-4.64,-4.08,-0.77,-0.77,-0.77
203.19,3.58,4.39,3.59,4.40,-4.40,-4.67,-4.12,-0.82,-0.81,-0.81
205.23,3.56,4.41,3.55,4.40,-4.40,-4.69,-4.17,-0.84,-0.85,-0.85
207.28,3.52,4.41,3.52,4.41,-4.40,-4.71,-4.22,-0.88,-0.88,-0.89
209.35,3.47,4.40,3.48,4.41,-4.40,-4.73,-4.27,-0.93,-0.92,-0.93
211.44,3.44,4.40,3.43,4.40,-4.40,-4.74,-4.32,-0.96,-0.97,-0.97
213.56,3.39,4.39,3.39,4.39,-4.40,-4.75,-4.36,-1.01,-1.01,-1.00
215.69,3.34,4.38,3.34,4.39,-4.39,-4.75,-4.41,-1.05,-1.05,-1.04
217.85,3.30,4.38,3.30,4.38,-4.39,-4.75,-4.46,-1.09,-1.09,-1.08
220.03,3.27,4.38,3.27,4.38,-4.38,-4.75,-4.51,-1.12,-1.12,-1.12
222.23,3.23,4.38,3.22,4.38,-4.38,-4.74,-4.55,-1.15,-1.16,-1.15
224.45,3.19,4.38,3.18,4.37,-4.37,-4.73,-4.59,-1.19,-1.19,-1.19
226.70,3.13,4.35,3.15,4.37,-4.36,-4.71,-4.63,-1.24,-1.22,-1.22
228.96,3.12,4.38,3.11,4.36,-4.35,-4.70,-4.66,-1.23,-1.25,-1.25
231.25,3.08,4.36,3.06,4.35,-4.34,-4.67,-4.70,-1.27,-1.28,-1.28
233.57,3.00,4.31,3.02,4.33,-4.33,-4.65,-4.72,-1.33,-1.31,-1.31
235.90,2.96,4.31,2.97,4.31,-4.31,-4.62,-4.75,-1.35,-1.35,-1.34
238.26,2.93,4.30,2.92,4.29,-4.30,-4.59,-4.76,-1.37,-1.38,-1.37
240.64,2.88,4.28,2.88,4.28,-4.28,-4.55,-4.78,-1.40,-1.40,-1.40
243.05,2.83,4.26,2.84,4.26,-4.26,-4.52,-4.78,-1.43,-1.43,-1.43
245.48,2.80,4.25,2.80,4.25,-4.25,-4.47,-4.78,-1.45,-1.45,-1.45
247.93,2.76,4.23,2.76,4.23,-4.23,-4.43,-4.78,-1.47,-1.47,-1.47
250.41,2.72,4.22,2.71,4.21,-4.20,-4.39,-4.77,-1.48,-1.49,-1.50
252.92,2.66,4.18,2.67,4.19,-4.18,-4.34,-4.75,-1.52,-1.52,-1.52
255.45,2.62,4.15,2.62,4.16,-4.16,-4.30,-4.73,-1.55,-1.54,-1.54
258.00,2.59,4.14,2.57,4.13,-4.14,-4.25,-4.70,-1.55,-1.57,-1.56
260.58,2.53,4.11,2.53,4.11,-4.12,-4.20,-4.67,-1.59,-1.59,-1.58
263.19,2.48,4.08,2.49,4.09,-4.09,-4.15,-4.63,-1.61,-1.60,-1.60
265.82,2.46,4.07,2.45,4.07,-4.07,-4.10,-4.58,-1.61,-1.62,-1.61
268.48,2.42,4.05,2.42,4.05,-4.04,-4.05,-4.53,-1.62,-1.62,-1.63
271.16,2.38,4.03,2.38,4.03,-4.02,-3.99,-4.47,-1.63,-1.64,-1.65
273.87,2.34,3.99,2.34,3.99,-3.99,-3.94,-4.42,-1.65,-1.65,-1.66
276.61,2.29,3.96,2.29,3.96,-3.96,-3.89,-4.35,-1.67,-1.67,-1.67
279.38,2.24,3.92,2.24,3.92,-3.93,-3.84,-4.28,-1.69,-1.69,-1.68
282.17,2.19,3.89,2.19,3.89,-3.90,-3.79,-4.21,-1.70,-1.70,-1.69
284.99,2.14,3.85,2.15,3.86,-3.86,-3.74,-4.14,-1.72,-1.71,-1.71
287.84,2.12,3.83,2.11,3.83,-3.83,-3.69,-4.07,-1.71,-1.71,-1.72
290.72,2.08,3.81,2.07,3.80,-3.79,-3.64,-3.99,-1.71,-1.72,-1.73
293.63,2.03,3.76,2.03,3.76,-3.75,-3.59,-3.92,-1.72,-1.72,-1.73
296.57,1.99,3.72,1.99,3.72,-3.72,-3.55,-3.84,-1.73,-1.73,-1.73
299.53,1.95,3.67,1.95,3.68,-3.68,-3.50,-3.76,-1.74,-1.74,-1.73
302.53,1.91,3.65,1.91,3.64,-3.65,-3.46,-3.68,-1.74,-1.74,-1.73
305.55,1.87,3.61,1.86,3.61,-3.61,-3.41,-3.60,-1.75,-1.75,-1.74
308.61,1.82,3.57,1.82,3.58,-3.58,-3.37,-3.52,-1.76,-1.76,-1.76
311.69,1.77,3.54,1.78,3.54,-3.54,-3.33,-3.45,-1.77,-1.77,-1.77
314.81,1.74,3.52,1.74,3.51,-3.51,-3.29,-3.37,-1.77,-1.77,-1.78
317.96,1.70,3.48,1.70,3.48,-3.48,-3.25,-3.29,-1.78,-1.78,-1.78
321.14,1.65,3.44,1.65,3.44,-3.44,-3.21,-3.22,-1.79,-1.79,-1.79
324.35,1.61,3.40,1.61,3.40,-3.40,-3.17,-3.15,-1.80,-1.79,-1.79
327.59,1.57,3.36,1.57,3.36,-3.36,-3.14,-3.07,-1.79,-1.79,-1.79
330.87,1.53,3.32,1.53,3.32,-3.32,-3.10,-3.01,-1.79,-1.79,-1.79
334.18,1.50,3.28,1.49,3.28,-3.27,-3.07,-2.94,-1.77,-1.78,-1.79
337.52,1.45,3.23,1.45,3.23,-3.22,-3.03,-2.87,-1.77,-1.77,-1.78
340.90,1.41,3.17,1.41,3.18,-3.18,-3.00,-2.81,-1.77,-1.76,-1.76
344.30,1.37,3.12,1.37,3.12,-3.13,-2.97,-2.74,-1.76,-1.76,-1.75
347.75,1.33,3.08,1.33,3.07,-3.08,-2.94,-2.68,-1.75,-1.75,-1.74
351.23,1.29,3.03,1.29,3.03,-3.03,-2.90,-2.63,-1.74,-1.74,-1.74
354.74,1.25,2.99,1.25,2.99,-2.99,-2.87,-2.57,-1.74,-1.74,-1.73
358.28,1.21,2.94,1.21,2.94,-2.95,-2.84,-2.52,-1.73,-1.73,-1.73
361.87,1.17,2.90,1.17,2.90,-2.90,-2.81,-2.46,-1.73,-1.73,-1.73
365.49,1.13,2.86,1.13,2.86,-2.86,-2.78,-2.41,-1.73,-1.73,-1.73
369.14,1.09,2.82,1.09,2.82,-2.82,-2.74,-2.36,-1.72,-1.72,-1.73
372.83,1.05,2.77,1.05,2.78,-2.77,-2.71,-2.32,-1.72,-1.72,-1.72
376.56,1.01,2.72,1.01,2.73,-2.73,-2.67,-2.27,-1.72,-1.71,-1.72
380.33,0.98,2.68,0.97,2.68,-2.68,-2.64,-2.23,-1.71,-1.71,-1.70
384.13,0.94,2.63,0.94,2.63,-2.63,-2.60,-2.19,-1.70,-1.70,-1.69
387.97,0.90,2.58,0.90,2.58,-2.59,-2.56,-2.15,-1.69,-1.69,-1.68
391.85,0.86,2.54,0.86,2.54,-2.54,-2.52,-2.11,-1.68,-1.68,-1.68
395.77,0.82,2.49,0.82,2.49,-2.49,-2.48,-2.08,-1.67,-1.67,-1.67
399.73,0.78,2.44,0.78,2.44,-2.44,-2.44,-2.04,-1.66,-1.66,-1.66
403.72,0.74,2.39,0.74,2.39,-2.39,-2.40,-2.01,-1.65,-1.65,-1.65
407.76,0.70,2.34,0.70,2.33,-2.34,-2.35,-1.98,-1.64,-1.64,-1.63
411.84,0.66,2.28,0.66,2.28,-2.29,-2.31,-1.95,-1.63,-1.63,-1.62
415.96,0.62,2.23,0.62,2.23,-2.24,-2.26,-1.92,-1.62,-1.62,-1.61
420.12,0.58,2.19,0.59,2.19,-2.19,-2.21,-1.89,-1.60,-1.60,-1.60
424.32,0.55,2.15,0.55,2.14,-2.14,-2.16,-1.86,-1.59,-1.59,-1.59
428.56,0.52,2.10,0.51,2.10,-2.09,-2.11,-1.83,-1.58,-1.58,-1.58
432.85,0.48,2.05,0.48,2.05,-2.05,-2.06,-1.81,-1.57,-1.57,-1.57
437.18,0.43,1.99,0.44,2.00,-2.00,-2.01,-1.78,-1.56,-1.56,-1.56
441.55,0.40,1.95,0.40,1.95,-1.95,-1.95,-1.76,-1.54,-1.55,-1.54
445.96,0.37,1.90,0.37,1.90,-1.90,-1.90,-1.73,-1.52,-1.53,-1.53
450.42,0.34,1.85,0.34,1.85,-1.85,-1.85,-1.70,-1.51,-1.51,-1.51
454.93,0.30,1.80,0.30,1.79,-1.79,-1.79,-1.68,-1.49,-1.49,-1.49
459.48,0.26,1.74,0.26,1.74,-1.74,-1.74,-1.65,-1.48,-1.48,-1.48
464.07,0.22,1.69,0.23,1.69,-1.69,-1.68,-1.63,-1.47,-1.47,-1.46
468.71,0.19,1.64,0.19,1.64,-1.64,-1.63,-1.60,-1.45,-1.45,-1.45
473.40,0.16,1.59,0.16,1.59,-1.59,-1.57,-1.57,-1.43,-1.43,-1.43
478.13,0.12,1.54,0.12,1.54,-1.54,-1.52,-1.55,-1.42,-1.42,-1.42
482.91,0.09,1.49,0.09,1.49,-1.49,-1.46,-1.52,-1.40,-1.40,-1.40
487.74,0.05,1.44,0.06,1.44,-1.44,-1.41,-1.49,-1.39,-1.38,-1.38
492.62,0.03,1.39,0.03,1.39,-1.39,-1.35,-1.46,-1.36,-1.36,-1.36
497.55,0.00,1.35,-0.00,1.34,-1.34,-1.30,-1.43,-1.34,-1.35,-1.35
502.52,-0.03,1.29,-0.03,1.29,-1.29,-1.24,-1.40,-1.33,-1.33,-1.33
507.55,-0.07,1.24,-0.06,1.24,-1.24,-1.19,-1.37,-1.32,-1.31,-1.31
512.62,-0.09,1.20,-0.10,1.19,-1.19,-1.14,-1.33,-1.29,-1.29,-1.29
517.75,-0.13,1.15,-0.13,1.14,-1.14,-1.09,-1.30,-1.27,-1.27,-1.27
