frequency,raw,error,smoothed,error_smoothed,equalization,parametric_eq,fixed_band_eq,equalized_raw,equalized_smoothed,target
20.00,-3.86,-6.68,-3.85,-6.69,5.98,5.19,2.19,2.12,2.13,2.83
20.20,-3.83,-6.66,-3.84,-6.66,6.00,5.22,2.26,2.16,2.16,2.83
20.40,-3.80,-6.62,-3.81,-6.61,6.01,5.26,2.32,2.20,2.20,2.81
20.61,-3.77,-6.56,-3.77,-6.55,6.01,5.32,2.39,2.25,2.25,2.79
20.81,-3.72,-6.47,-3.72,-6.47,6.02,5.39,2.46,2.30,2.30,2.75
21.02,-3.66,-6.38,-3.66,-6.38,6.02,5.47,2.53,2.36,2.36,2.72
21.23,-3.59,-6.28,-3.59,-6.28,6.01,5.54,2.61,2.42,2.42,2.69
21.44,-3.51,-6.19,-3.51,-6.19,6.00,5.60,2.68,2.48,2.48,2.67
21.66,-3.44,-6.10,-3.44,-6.10,5.98,5.66,2.76,2.55,2.55,2.66
21.87,-3.36,-6.02,-3.37,-6.02,5.97,5.71,2.84,2.60,2.60,2.66
22.09,-3.30,-5.96,-3.30,-5.96,5.94,5.75,2.92,2.64,2.64,2.66
22.31,-3.24,-5.91,-3.24,-5.91,5.91,5.78,3.01,2.67,2.67,2.67
22.54,-3.19,-5.87,-3.19,-5.87,5.88,5.81,3.09,2.69,2.69,2.68
22.76,-3.14,-5.83,-3.14,-5.83,5.85,5.83,3.19,2.71,2.71,2.69
22.99,-3.10,-5.80,-3.10,-5.80,5.82,5.84,3.28,2.72,2.72,2.71
23.22,-3.05,-5.78,-3.05,-5.78,5.79,5.85,3.37,2.74,2.74,2.73
23.45,-2.99,-5.76,-2.99,-5.76,5.76,5.85,3.46,2.77,2.77,2.77
23.69,-2.93,-5.74,-2.93,-5.74,5.74,5.85,3.56,2.81,2.81,2.81
23.92,-2.86,-5.72,-2.86,-5.72,5.73,5.85,3.66,2.86,2.86,2.86
24.16,-2.79,-5.71,-2.79,-5.71,5.71,5.84,3.76,2.92,2.92,2.91
24.40,-2.72,-5.68,-2.72,-5.68,5.68,5.82,3.87,2.97,2.97,2.97
24.65,-2.64,-5.66,-2.64,-5.66,5.65,5.81,3.97,3.01,3.01,3.02
24.89,-2.57,-5.62,-2.57,-5.62,5.61,5.79,4.08,3.05,3.05,3.06
25.14,-2.50,-5.58,-2.50,-5.58,5.57,5.77,4.18,3.07,3.07,3.08
25.39,-2.44,-5.53,-2.44,-5.52,5.51,5.74,4.29,3.07,3.07,3.09
25.65,-2.39,-5.46,-2.39,-5.46,5.44,5.72,4.40,3.06,3.06,3.07
25.91,-2.34,-5.38,-2.34,-5.38,5.37,5.69,4.51,3.04,3.04,3.05
26.16,-2.29,-5.30,-2.29,-5.30,5.30,5.66,4.61,3.01,3.01,3.01
26.43,-2.25,-5.22,-2.25,-5.23,5.23,5.63,4.72,2.98,2.98,2.97
26.69,-2.21,-5.16,-2.21,-5.15,5.17,5.60,4.83,2.96,2.96,2.95
26.96,-2.17,-5.10,-2.17,-5.10,5.12,5.57,4.93,2.96,2.96,2.93
27.23,-2.13,-5.06,-2.13,-5.06,5.09,5.53,5.03,2.96,2.96,2.93
27.50,-2.09,-5.05,-2.09,-5.05,5.07,5.49,5.13,2.98,2.98,2.96
27.77,-2.05,-5.05,-2.05,-5.05,5.06,5.46,5.23,3.00,3.00,2.99
28.05,-2.02,-5.06,-2.02,-5.06,5.05,5.42,5.32,3.03,3.03,3.04
28.33,-1.99,-5.07,-1.99,-5.07,5.05,5.38,5.41,3.06,3.06,3.08
28.62,-1.96,-5.07,-1.96,-5.07,5.05,5.34,5.49,3.09,3.09,3.11
28.90,-1.93,-5.06,-1.93,-5.06,5.04,5.30,5.57,3.11,3.11,3.13
29.19,-1.90,-5.04,-1.90,-5.04,5.02,5.26,5.64,3.12,3.12,3.14
29.48,-1.87,-5.01,-1.87,-5.01,4.99,5.21,5.70,3.12,3.12,3.14
29.78,-1.84,-4.96,-1.84,-4.96,4.95,5.17,5.76,3.11,3.11,3.12
30.08,-1.80,-4.91,-1.80,-4.91,4.90,5.13,5.80,3.10,3.10,3.10
30.38,-1.77,-4.85,-1.77,-4.85,4.85,5.08,5.84,3.09,3.09,3.08
30.68,-1.72,-4.79,-1.72,-4.79,4.80,5.04,5.87,3.07,3.08,3.06
30.99,-1.68,-4.73,-1.68,-4.73,4.75,4.99,5.89,3.07,3.07,3.05
31.30,-1.63,-4.68,-1.63,-4.69,4.70,4.95,5.90,3.07,3.07,3.05
31.61,-1.58,-4.64,-1.58,-4.64,4.65,4.90,5.91,3.07,3.07,3.06
31.93,-1.53,-4.61,-1.53,-4.61,4.61,4.86,5.90,3.07,3.07,3.08
32.24,-1.49,-4.57,-1.49,-4.57,4.56,4.81,5.89,3.08,3.08,3.09
32.57,-1.44,-4.53,-1.44,-4.53,4.53,4.77,5.86,3.08,3.08,3.09
32.89,-1.40,-4.49,-1.40,-4.49,4.49,4.72,5.83,3.09,3.09,3.09
33.22,-1.36,-4.45,-1.36,-4.45,4.45,4.67,5.79,3.09,3.09,3.09
33.55,-1.32,-4.41,-1.32,-4.41,4.41,4.63,5.74,3.09,3.09,3.09
33.89,-1.29,-4.37,-1.29,-4.37,4.38,4.58,5.69,3.09,3.09,3.09
34.23,-1.25,-4.34,-1.25,-4.34,4.34,4.54,5.63,3.09,3.09,3.09
34.57,-1.22,-4.31,-1.22,-4.31,4.31,4.49,5.56,3.09,3.09,3.09
34.92,-1.19,-4.28,-1.19,-4.28,4.28,4.44,5.49,3.09,3.09,3.09
35.27,-1.16,-4.25,-1.16,-4.25,4.25,4.40,5.42,3.09,3.09,3.09
35.62,-1.14,-4.23,-1.14,-4.23,4.22,4.35,5.34,3.08,3.08,3.08
35.97,-1.12,-4.20,-1.12,-4.20,4.20,4.31,5.26,3.07,3.07,3.07
36.33,-1.11,-4.17,-1.11,-4.17,4.18,4.26,5.18,3.07,3.07,3.06
36.70,-1.09,-4.15,-1.09,-4.15,4.16,4.22,5.09,3.07,3.07,3.06
37.06,-1.07,-4.13,-1.07,-4.13,4.14,4.17,5.01,3.07,3.07,3.06
37.43,-1.05,-4.12,-1.05,-4.12,4.12,4.13,4.92,3.07,3.07,3.07
37.81,-1.03,-4.11,-1.03,-4.11,4.10,4.08,4.83,3.07,3.07,3.08
38.19,-1.01,-4.10,-1.01,-4.10,4.08,4.04,4.75,3.06,3.06,3.09
38.57,-0.99,-4.07,-0.99,-4.07,4.05,4.00,4.66,3.06,3.06,3.08
38.95,-0.97,-4.03,-0.97,-4.03,4.02,3.95,4.58,3.05,3.05,3.06
39.34,-0.94,-3.98,-0.94,-3.98,3.99,3.91,4.49,3.05,3.05,3.04
39.74,-0.91,-3.94,-0.90,-3.94,3.96,3.87,4.41,3.05,3.06,3.03
40.14,-0.87,-3.91,-0.87,-3.91,3.92,3.82,4.33,3.06,3.06,3.04
40.54,-0.83,-3.89,-0.83,-3.88,3.88,3.78,4.25,3.06,3.06,3.06
40.94,-0.79,-3.86,-0.79,-3.86,3.84,3.74,4.18,3.05,3.05,3.07
41.35,-0.75,-3.82,-0.75,-3.82,3.80,3.70,4.10,3.04,3.04,3.07
41.76,-0.72,-3.78,-0.72,-3.77,3.76,3.66,4.03,3.04,3.04,3.06
42.18,-0.68,-3.72,-0.68,-3.72,3.71,3.62,3.96,3.03,3.03,3.03
42.60,-0.64,-3.66,-0.64,-3.66,3.67,3.58,3.90,3.03,3.03,3.01
43.03,-0.61,-3.61,-0.61,-3.61,3.63,3.54,3.83,3.03,3.03,3.00
43.46,-0.58,-3.57,-0.58,-3.57,3.60,3.50,3.77,3.02,3.02,2.99
43.90,-0.55,-3.55,-0.55,-3.55,3.56,3.46,3.72,3.01,3.00,2.99
44.33,-0.54,-3.53,-0.54,-3.53,3.53,3.42,3.66,2.99,2.99,3.00
44.78,-0.52,-3.52,-0.52,-3.52,3.50,3.38,3.61,2.98,2.98,3.00
45.23,-0.50,-3.49,-0.50,-3.49,3.47,3.35,3.56,2.96,2.96,2.99
45.68,-0.49,-3.45,-0.49,-3.45,3.44,3.31,3.52,2.95,2.95,2.96
46.13,-0.47,-3.40,-0.47,-3.41,3.41,3.27,3.47,2.95,2.95,2.93
46.60,-0.45,-3.37,-0.45,-3.37,3.38,3.24,3.43,2.94,2.94,2.92
47.06,-0.43,-3.34,-0.43,-3.34,3.35,3.20,3.39,2.92,2.93,2.92
47.53,-0.41,-3.33,-0.41,-3.32,3.32,3.17,3.36,2.91,2.91,2.91
48.01,-0.40,-3.30,-0.40,-3.30,3.30,3.13,3.33,2.90,2.90,2.90
48.49,-0.40,-3.27,-0.40,-3.28,3.27,3.10,3.30,2.88,2.88,2.88
48.97,-0.39,-3.25,-0.39,-3.26,3.25,3.06,3.27,2.86,2.86,2.86
49.46,-0.39,-3.24,-0.39,-3.23,3.23,3.03,3.24,2.85,2.85,2.85
49.96,-0.38,-3.21,-0.38,-3.20,3.21,2.99,3.22,2.83,2.83,2.83
50.46,-0.36,-3.17,-0.36,-3.18,3.18,2.96,3.20,2.82,2.82,2.81
50.96,-0.33,-3.14,-0.33,-3.15,3.14,2.93,3.18,2.81,2.81,2.81
51.47,-0.29,-3.13,-0.29,-3.12,3.10,2.89,3.16,2.80,2.80,2.84
51.99,-0.25,-3.09,-0.25,-3.08,3.05,2.86,3.14,2.80,2.80,2.84
52.51,-0.20,-3.01,-0.20,-3.01,3.00,2.83,3.12,2.80,2.80,2.81
53.03,-0.15,-2.92,-0.15,-2.94,2.96,2.80,3.11,2.81,2.81,2.77
53.56,-0.10,-2.88,-0.10,-2.88,2.91,2.77,3.09,2.81,2.81,2.78
54.10,-0.06,-2.85,-0.07,-2.84,2.86,2.74,3.08,2.80,2.80,2.79
54.64,-0.05,-2.81,-0.05,-2.81,2.81,2.71,3.07,2.77,2.76,2.77
55.18,-0.05,-2.76,-0.05,-2.80,2.78,2.68,3.05,2.72,2.72,2.71
55.74,-0.06,-2.80,-0.06,-2.78,2.76,2.65,3.04,2.70,2.70,2.74
56.29,-0.06,-2.78,-0.06,-2.76,2.76,2.62,3.02,2.70,2.70,2.72
56.86,-0.05,-2.72,-0.05,-2.71,2.76,2.59,3.01,2.72,2.72,2.68
57.42,-0.03,-2.68,-0.03,-2.68,2.76,2.56,2.99,2.74,2.74,2.65
58.00,-0.01,-2.64,-0.01,-2.73,2.76,2.53,2.98,2.75,2.75,2.63
58.58,0.01,-2.83,0.01,-2.80,2.74,2.50,2.96,2.75,2.75,2.84
59.16,0.02,-2.93,0.02,-2.83,2.72,2.47,2.94,2.73,2.73,2.95
59.76,0.03,-2.76,0.02,-2.77,2.69,2.44,2.92,2.71,2.71,2.78
60.35,0.03,-2.60,0.03,-2.64,2.66,2.41,2.89,2.68,2.68,2.63
60.96,0.03,-2.51,0.03,-2.55,2.62,2.38,2.87,2.65,2.65,2.53
61.57,0.03,-2.55,0.03,-2.52,2.58,2.36,2.84,2.60,2.60,2.57
62.18,0.03,-2.53,0.03,-2.50,2.52,2.33,2.81,2.55,2.55,2.56
62.80,0.04,-2.46,0.04,-2.49,2.47,2.30,2.78,2.51,2.51,2.50
63.43,0.06,-2.44,0.06,-2.45,2.43,2.27,2.74,2.49,2.49,2.50
64.07,0.07,-2.44,0.07,-2.42,2.41,2.24,2.71,2.48,2.48,2.51
64.71,0.09,-2.40,0.09,-2.40,2.39,2.21,2.67,2.48,2.48,2.48
65.35,0.10,-2.36,0.10,-2.37,2.38,2.19,2.62,2.48,2.47,2.46
66.01,0.11,-2.33,0.11,-2.33,2.35,2.16,2.58,2.46,2.46,2.44
66.67,0.11,-2.31,0.11,-2.31,2.32,2.13,2.53,2.43,2.43,2.43
67.33,0.12,-2.30,0.12,-2.30,2.29,2.10,2.49,2.40,2.40,2.41
68.01,0.12,-2.28,0.12,-2.27,2.25,2.07,2.44,2.37,2.37,2.40
68.69,0.13,-2.23,0.13,-2.23,2.21,2.04,2.38,2.35,2.35,2.37
69.37,0.14,-2.18,0.15,-2.18,2.17,2.01,2.33,2.32,2.32,2.32
70.07,0.16,-2.11,0.16,-2.12,2.13,1.98,2.28,2.29,2.29,2.27
70.77,0.18,-2.07,0.18,-2.07,2.09,1.95,2.22,2.26,2.26,2.24
71.48,0.19,-2.03,0.19,-2.03,2.04,1.93,2.16,2.23,2.23,2.22
72.19,0.20,-2.00,0.20,-2.00,2.00,1.90,2.11,2.20,2.20,2.20
72.91,0.21,-1.96,0.21,-1.96,1.95,1.87,2.05,2.16,2.16,2.17
73.64,0.22,-1.92,0.22,-1.92,1.91,1.84,1.99,2.12,2.12,2.13
74.38,0.22,-1.87,0.22,-1.88,1.87,1.80,1.93,2.09,2.09,2.10
75.12,0.23,-1.83,0.23,-1.83,1.83,1.77,1.87,2.05,2.05,2.06
75.87,0.23,-1.78,0.23,-1.78,1.79,1.74,1.81,2.02,2.02,2.01
76.63,0.24,-1.73,0.24,-1.73,1.75,1.71,1.75,1.99,1.99,1.97
77.40,0.25,-1.69,0.25,-1.69,1.71,1.68,1.69,1.96,1.96,1.93
78.17,0.26,-1.65,0.26,-1.66,1.66,1.65,1.63,1.92,1.92,1.91
78.95,0.26,-1.62,0.26,-1.62,1.60,1.62,1.57,1.87,1.87,1.89
79.74,0.27,-1.59,0.27,-1.57,1.54,1.58,1.51,1.81,1.81,1.86
80.54,0.28,-1.51,0.28,-1.52,1.47,1.55,1.46,1.74,1.74,1.79
81.35,0.28,-1.43,0.28,-1.46,1.41,1.52,1.40,1.69,1.69,1.71
82.16,0.29,-1.41,0.29,-1.33,1.36,1.48,1.34,1.65,1.65,1.70
82.98,0.30,-1.26,0.30,-1.23,1.31,1.45,1.28,1.62,1.62,1.57
83.81,0.31,-1.03,0.31,-1.20,1.28,1.41,1.23,1.59,1.59,1.34
84.65,0.32,-1.26,0.32,-1.19,1.26,1.38,1.17,1.58,1.58,1.58
85.50,0.32,-1.31,0.32,-1.24,1.24,1.34,1.12,1.57,1.57,1.63
86.35,0.32,-1.25,0.32,-1.31,1.23,1.31,1.07,1.56,1.55,1.57
87.22,0.32,-1.29,0.32,-1.28,1.22,1.27,1.01,1.54,1.54,1.61
88.09,0.32,-1.26,0.32,-1.25,1.21,1.23,0.96,1.53,1.53,1.58
88.97,0.32,-1.20,0.32,-1.21,1.19,1.20,0.91,1.51,1.51,1.52
89.86,0.32,-1.15,0.32,-1.15,1.16,1.16,0.86,1.48,1.48,1.47
90.76,0.32,-1.08,0.32,-1.10,1.11,1.12,0.81,1.43,1.43,1.41
91.66,0.33,-1.04,0.32,-1.04,1.05,1.08,0.76,1.38,1.38,1.37
92.58,0.33,-1.01,0.33,-0.98,1.00,1.04,0.71,1.32,1.32,1.33
93.51,0.33,-0.91,0.33,-0.94,0.94,1.00,0.66,1.27,1.27,1.24
94.44,0.33,-0.89,0.33,-0.89,0.89,0.96,0.61,1.22,1.23,1.22
95.39,0.34,-0.87,0.34,-0.85,0.84,0.92,0.56,1.18,1.18,1.21
96.34,0.35,-0.81,0.35,-0.81,0.80,0.88,0.52,1.15,1.15,1.16
97.30,0.37,-0.74,0.37,-0.75,0.75,0.83,0.47,1.12,1.12,1.10
98.28,0.38,-0.70,0.37,-0.70,0.71,0.79,0.43,1.08,1.08,1.07
99.26,0.38,-0.66,0.38,-0.65,0.66,0.75,0.38,1.04,1.03,1.04
100.25,0.37,-0.61,0.37,-0.62,0.61,0.70,0.34,0.98,0.98,0.98
101.25,0.36,-0.57,0.37,-0.57,0.56,0.66,0.29,0.92,0.92,0.94
102.27,0.37,-0.51,0.37,-0.51,0.51,0.61,0.25,0.87,0.88,0.88
103.29,0.37,-0.45,0.37,-0.46,0.46,0.57,0.21,0.83,0.83,0.83
104.32,0.39,-0.40,0.38,-0.39,0.41,0.52,0.17,0.79,0.79,0.79
105.37,0.39,-0.34,0.39,-0.34,0.35,0.47,0.13,0.74,0.74,0.73
106.42,0.40,-0.29,0.40,-0.30,0.30,0.43,0.09,0.69,0.69,0.69
107.48,0.40,-0.26,0.40,-0.25,0.24,0.38,0.05,0.64,0.64,0.66
108.56,0.40,-0.20,0.40,-0.20,0.19,0.33,0.01,0.59,0.59,0.60
109.64,0.40,-0.14,0.40,-0.14,0.14,0.28,-0.03,0.54,0.54,0.54
110.74,0.40,-0.07,0.40,-0.08,0.09,0.23,-0.07,0.49,0.49,0.47
111.85,0.40,-0.04,0.40,-0.03,0.04,0.18,-0.10,0.44,0.44,0.44
112.97,0.40,0.01,0.40,0.02,-0.01,0.12,-0.14,0.39,0.39,0.39
114.10,0.40,0.07,0.41,0.06,-0.06,0.07,-0.18,0.34,0.34,0.34
115.24,0.41,0.11,0.41,0.11,-0.11,0.02,-0.21,0.30,0.30,0.30
116.39,0.41,0.16,0.41,0.16,-0.15,-0.04,-0.24,0.26,0.26,0.25
117.55,0.41,0.20,0.41,0.20,-0.20,-0.09,-0.28,0.21,0.21,0.21
118.73,0.41,0.24,0.41,0.23,-0.24,-0.15,-0.31,0.17,0.17,0.18
119.92,0.41,0.27,0.41,0.28,-0.29,-0.21,-0.34,0.13,0.13,0.14
121.12,0.41,0.32,0.41,0.33,-0.33,-0.26,-0.37,0.08,0.08,0.09
122.33,0.41,0.39,0.41,0.38,-0.38,-0.32,-0.40,0.03,0.03,0.02
123.55,0.41,0.44,0.41,0.43,-0.43,-0.38,-0.42,-0.02,-0.02,-0.03
124.79,0.40,0.47,0.40,0.48,-0.48,-0.44,-0.45,-0.07,-0.07,-0.07
126.03,0.40,0.53,0.40,0.53,-0.53,-0.49,-0.48,-0.12,-0.12,-0.13
127.29,0.40,0.58,0.40,0.58,-0.57,-0.55,-0.50,-0.17,-0.17,-0.18
128.57,0.40,0.62,0.40,0.63,-0.62,-0.61,-0.53,-0.22,-0.22,-0.22
129.85,0.41,0.67,0.41,0.67,-0.67,-0.67,-0.55,-0.26,-0.26,-0.26
131.15,0.41,0.72,0.41,0.71,-0.72,-0.73,-0.57,-0.31,-0.31,-0.30
132.46,0.42,0.75,0.42,0.75,-0.77,-0.78,-0.60,-0.36,-0.35,-0.33
133.79,0.42,0.79,0.42,0.81,-0.83,-0.84,-0.62,-0.40,-0.40,-0.37
135.12,0.43,0.89,0.43,0.88,-0.88,-0.90,-0.64,-0.45,-0.45,-0.46
136.48,0.43,0.96,0.43,0.94,-0.92,-0.95,-0.66,-0.49,-0.49,-0.53
137.84,0.43,0.98,0.43,0.99,-0.97,-1.01,-0.68,-0.54,-0.54,-0.55
139.22,0.42,1.02,0.42,1.03,-1.01,-1.06,-0.70,-0.59,-0.59,-0.60
140.61,0.41,1.06,0.41,1.06,-1.05,-1.11,-0.72,-0.64,-0.64,-0.65
142.02,0.40,1.09,0.40,1.09,-1.09,-1.16,-0.74,-0.69,-0.69,-0.68
143.44,0.40,1.11,0.40,1.11,-1.13,-1.21,-0.76,-0.73,-0.73,-0.72
144.87,0.39,1.14,0.39,1.15,-1.17,-1.25,-0.78,-0.78,-0.78,-0.75
146.32,0.39,1.20,0.39,1.20,-1.21,-1.30,-0.80,-0.82,-0.82,-0.81
147.78,0.39,1.25,0.39,1.25,-1.25,-1.34,-0.82,-0.86,-0.86,-0.86
149.26,0.39,1.30,0.39,1.30,-1.29,-1.38,-0.84,-0.90,-0.90,-0.91
150.75,0.40,1.35,0.40,1.35,-1.34,-1.41,-0.86,-0.94,-0.94,-0.95
152.26,0.40,1.39,0.40,1.39,-1.38,-1.45,-0.88,-0.98,-0.98,-0.99
153.78,0.41,1.42,0.41,1.42,-1.43,-1.48,-0.90,-1.02,-1.02,-1.02
155.32,0.41,1.46,0.41,1.46,-1.46,-1.51,-0.93,-1.05,-1.06,-1.05
156.88,0.40,1.49,0.40,1.49,-1.50,-1.55,-0.95,-1.09,-1.09,-1.08
158.44,0.39,1.52,0.39,1.53,-1.52,-1.57,-0.97,-1.13,-1.13,-1.13
160.03,0.37,1.56,0.37,1.56,-1.55,-1.60,-1.00,-1.18,-1.18,-1.20
161.63,0.34,1.59,0.34,1.58,-1.57,-1.63,-1.02,-1.23,-1.22,-1.25
163.24,0.32,1.60,0.32,1.59,-1.59,-1.65,-1.05,-1.27,-1.27,-1.28
164.88,0.30,1.58,0.30,1.60,-1.61,-1.68,-1.07,-1.31,-1.30,-1.28
166.53,0.30,1.61,0.30,1.61,-1.63,-1.70,-1.10,-1.33,-1.33,-1.32
168.19,0.29,1.64,0.29,1.64,-1.66,-1.72,-1.13,-1.36,-1.36,-1.35
169.87,0.29,1.67,0.29,1.67,-1.68,-1.75,-1.16,-1.39,-1.39,-1.38
171.57,0.29,1.71,0.29,1.71,-1.71,-1.77,-1.19,-1.42,-1.42,-1.42
173.29,0.29,1.75,0.29,1.75,-1.74,-1.79,-1.22,-1.45,-1.45,-1.46
175.02,0.29,1.79,0.29,1.79,-1.78,-1.81,-1.26,-1.49,-1.49,-1.50
176.77,0.29,1.82,0.29,1.82,-1.81,-1.83,-1.29,-1.52,-1.52,-1.52
178.54,0.29,1.85,0.29,1.85,-1.85,-1.85,-1.33,-1.56,-1.56,-1.56
180.32,0.29,1.88,0.29,1.88,-1.88,-1.87,-1.36,-1.59,-1.59,-1.60
182.13,0.28,1.91,0.28,1.91,-1.90,-1.89,-1.40,-1.62,-1.62,-1.62
183.95,0.28,1.92,0.28,1.93,-1.93,-1.91,-1.44,-1.65,-1.65,-1.65
185.79,0.27,1.94,0.27,1.94,-1.95,-1.93,-1.48,-1.68,-1.68,-1.67
187.65,0.27,1.96,0.27,1.96,-1.97,-1.95,-1.52,-1.70,-1.70,-1.69
189.52,0.26,1.98,0.26,1.98,-1.99,-1.97,-1.56,-1.72,-1.72,-1.72
191.42,0.25,2.01,0.25,2.01,-2.00,-1.99,-1.60,-1.75,-1.75,-1.75
193.33,0.24,2.02,0.24,2.02,-2.01,-2.00,-1.64,-1.77,-1.77,-1.78
195.27,0.23,2.04,0.23,2.03,-2.03,-2.02,-1.69,-1.80,-1.80,-1.80
197.22,0.22,2.04,0.22,2.04,-2.04,-2.04,-1.73,-1.82,-1.82,-1.82
199.19,0.21,2.04,0.21,2.04,-2.05,-2.05,-1.77,-1.84,-1.84,-1.83
201.18,0.20,2.05,0.20,2.05,-2.06,-2.07,-1.82,-1.86,-1.86,-1.85
203.19,0.19,2.07,0.19,2.07,-2.07,-2.08,-1.86,-1.88,-1.88,-1.88
205.23,0.18,2.09,0.18,2.08,-2.08,-2.10,-1.91,-1.90,-1.90,-1.90
207.28,0.18,2.10,0.18,2.10,-2.09,-2.11,-1.95,-1.92,-1.92,-1.92
209.35,0.17,2.11,0.17,2.11,-2.10,-2.12,-2.00,-1.93,-1.93,-1.94
211.44,0.16,2.12,0.16,2.12,-2.11,-2.13,-2.04,-1.95,-1.95,-1.95
213.56,0.15,2.12,0.15,2.12,-2.12,-2.14,-2.09,-1.97,-1.97,-1.97
215.69,0.14,2.12,0.14,2.12,-2.12,-2.15,-2.13,-1.98,-1.98,-1.98
217.85,0.13,2.12,0.13,2.13,-2.13,-2.16,-2.17,-2.00,-2.00,-2.00
220.03,0.12,2.13,0.12,2.13,-2.13,-2.17,-2.21,-2.01,-2.01,-2.01
222.23,0.11,2.13,0.11,2.13,-2.13,-2.17,-2.25,-2.02,-2.02,-2.02
224.45,0.09,2.13,0.09,2.12,-2.13,-2.18,-2.29,-2.03,-2.03,-2.03
226.70,0.08,2.12,0.08,2.13,-2.13,-2.18,-2.32,-2.04,-2.04,-2.04
228.96,0.07,2.13,0.07,2.13,-2.12,-2.18,-2.36,-2.05,-2.05,-2.06
231.25,0.06,2.13,0.06,2.13,-2.12,-2.19,-2.39,-2.06,-2.06,-2.07
233.57,0.05,2.12,0.05,2.12,-2.12,-2.19,-2.41,-2.06,-2.06,-2.07
235.90,0.04,2.12,0.04,2.11,-2.11,-2.19,-2.44,-2.07,-2.07,-2.07
238.26,0.03,2.09,0.03,2.10,-2.11,-2.19,-2.46,-2.08,-2.08,-2.06
240.64,0.02,2.09,0.02,2.10,-2.11,-2.18,-2.48,-2.08,-2.08,-2.06
243.05,0.01,2.11,0.01,2.10,-2.10,-2.18,-2.49,-2.09,-2.09,-2.10
245.48,-0.00,2.10,-0.00,2.10,-2.09,-2.18,-2.50,-2.10,-2.10,-2.10
247.93,-0.02,2.09,-0.02,2.10,-2.09,-2.17,-2.51,-2.10,-2.10,-2.11
250.41,-0.03,2.09,-0.03,2.09,-2.08,-2.16,-2.51,-2.11,-2.11,-2.11
252.92,-0.04,2.08,-0.04,2.08,-2.08,-2.16,-2.51,-2.12,-2.12,-2.12
255.45,-0.06,2.07,-0.06,2.07,-2.07,-2.15,-2.50,-2.13,-2.13,-2.12
258.00,-0.07,2.06,-0.07,2.06,-2.06,-2.14,-2.49,-2.13,-2.13,-2.13
260.58,-0.08,2.05,-0.08,2.05,-2.05,-2.13,-2.48,-2.13,-2.13,-2.13
263.19,-0.10,2.04,-0.10,2.04,-2.04,-2.12,-2.46,-2.13,-2.13,-2.13
265.82,-0.11,2.03,-0.11,2.02,-2.03,-2.10,-2.44,-2.13,-2.13,-2.14
268.48,-0.12,2.00,-0.12,2.01,-2.01,-2.09,-2.41,-2.13,-2.13,-2.12
271.16,-0.13,2.00,-0.13,2.00,-2.00,-2.08,-2.39,-2.13,-2.13,-2.13
273.87,-0.14,1.99,-0.14,1.99,-1.99,-2.06,-2.36,-2.13,-2.13,-2.13
276.61,-0.15,1.97,-0.15,1.98,-1.97,-2.04,-2.32,-2.13,-2.13,-2.13
279.38,-0.17,1.97,-0.17,1.96,-1.96,-2.03,-2.29,-2.13,-2.13,-2.14
282.17,-0.18,1.95,-0.18,1.95,-1.94,-2.01,-2.25,-2.13,-2.12,-2.13
284.99,-0.20,1.93,-0.20,1.93,-1.93,-1.99,-2.22,-2.12,-2.12,-2.13
287.84,-0.22,1.91,-0.22,1.91,-1.91,-1.97,-2.18,-2.12,-2.12,-2.12
290.72,-0.23,1.89,-0.23,1.89,-1.89,-1.95,-2.13,-2.12,-2.12,-2.12
293.63,-0.25,1.86,-0.25,1.87,-1.87,-1.93,-2.09,-2.12,-2.12,-2.12
296.57,-0.27,1.85,-0.27,1.85,-1.85,-1.90,-2.05,-2.12,-2.12,-2.12
299.53,-0.29,1.84,-0.29,1.83,-1.83,-1.88,-2.00,-2.12,-2.12,-2.13
302.53,-0.30,1.81,-0.30,1.81,-1.81,-1.86,-1.96,-2.12,-2.12,-2.12
305.55,-0.32,1.79,-0.32,1.80,-1.80,-1.83,-1.92,-2.11,-2.11,-2.11
308.61,-0.33,1.78,-0.33,1.78,-1.78,-1.81,-1.87,-2.11,-2.11,-2.11
311.69,-0.34,1.76,-0.34,1.76,-1.76,-1.78,-1.83,-2.10,-2.10,-2.10
314.81,-0.35,1.74,-0.35,1.74,-1.74,-1.75,-1.78,-2.09,-2.09,-2.09
317.96,-0.36,1.73,-0.36,1.73,-1.72,-1.73,-1.74,-2.09,-2.09,-2.09
321.14,-0.38,1.71,-0.38,1.71,-1.70,-1.70,-1.69,-2.08,-2.08,-2.09
324.35,-0.40,1.68,-0.41,1.68,-1.68,-1.67,-1.65,-2.08,-2.08,-2.09
327.59,-0.43,1.65,-0.43,1.65,-1.65,-1.65,-1.61,-2.08,-2.08,-2.08
330.87,-0.46,1.62,-0.46,1.62,-1.62,-1.62,-1.57,-2.08,-2.08,-2.08
334.18,-0.48,1.59,-0.48,1.59,-1.60,-1.59,-1.53,-2.08,-2.08,-2.07
337.52,-0.50,1.57,-0.50,1.57,-1.57,-1.57,-1.49,-2.08,-2.08,-2.07
340.90,-0.52,1.54,-0.52,1.54,-1.54,-1.54,-1.45,-2.07,-2.07,-2.07
344.30,-0.54,1.52,-0.54,1.52,-1.52,-1.51,-1.41,-2.06,-2.06,-2.06
347.75,-0.56,1.50,-0.56,1.50,-1.49,-1.48,-1.38,-2.05,-2.05,-2.05
351.23,-0.57,1.48,-0.57,1.48,-1.47,-1.46,-1.34,-2.04,-2.04,-2.05
354.74,-0.58,1.46,-0.58,1.45,-1.45,-1.43,-1.30,-2.04,-2.04,-2.05
358.28,-0.60,1.42,-0.60,1.43,-1.43,-1.41,-1.27,-2.03,-2.03,-2.02
361.87,-0.61,1.40,-0.61,1.41,-1.42,-1.38,-1.24,-2.03,-2.03,-2.01
365.49,-0.62,1.41,-0.62,1.40,-1.40,-1.36,-1.21,-2.03,-2.02,-2.03
369.14,-0.63,1.39,-0.63,1.39,-1.39,-1.33,-1.18,-2.02,-2.02,-2.02
372.83,-0.64,1.38,-0.64,1.38,-1.37,-1.31,-1.15,-2.02,-2.02,-2.02
376.56,-0.65,1.37,-0.65,1.36,-1.36,-1.28,-1.12,-2.01,-2.01,-2.02
380.33,-0.66,1.35,-0.66,1.35,-1.35,-1.26,-1.09,-2.01,-2.01,-2.01
384.13,-0.67,1.34,-0.67,1.34,-1.33,-1.24,-1.06,-2.00,-2.00,-2.01
387.97,-0.69,1.32,-0.69,1.32,-1.32,-1.22,-1.04,-2.00,-2.00,-2.01
391.85,-0.70,1.30,-0.70,1.30,-1.30,-1.19,-1.01,-2.00,-2.00,-2.00
395.77,-0.72,1.27,-0.72,1.28,-1.28,-1.17,-0.99,-1.99,-1.99,-1.99
399.73,-0.73,1.26,-0.73,1.25,-1.25,-1.15,-0.97,-1.99,-1.99,-1.99
403.72,-0.75,1.23,-0.75,1.23,-1.23,-1.13,-0.95,-1.98,-1.98,-1.98
407.76,-0.76,1.21,-0.76,1.21,-1.21,-1.11,-0.92,-1.98,-1.98,-1.97
411.84,-0.78,1.19,-0.78,1.19,-1.19,-1.09,-0.90,-1.97,-1.97,-1.97
415.96,-0.79,1.17,-0.79,1.17,-1.17,-1.07,-0.89,-1.97,-1.97,-1.97
420.12,-0.81,1.15,-0.81,1.15,-1.15,-1.06,-0.87,-1.96,-1.96,-1.96
424.32,-0.83,1.13,-0.83,1.13,-1.13,-1.04,-0.85,-1.96,-1.96,-1.96
428.56,-0.84,1.12,-0.84,1.11,-1.11,-1.02,-0.83,-1.96,-1.96,-1.96
432.85,-0.86,1.10,-0.86,1.10,-1.10,-1.00,-0.82,-1.95,-1.95,-1.96
437.18,-0.87,1.08,-0.87,1.08,-1.08,-0.99,-0.80,-1.95,-1.95,-1.95
441.55,-0.89,1.06,-0.89,1.06,-1.06,-0.97,-0.78,-1.95,-1.95,-1.95
445.96,-0.90,1.04,-0.90,1.04,-1.04,-0.96,-0.77,-1.94,-1.94,-1.94
450.42,-0.92,1.02,-0.92,1.02,-1.02,-0.94,-0.76,-1.94,-1.94,-1.94
454.93,-0.93,1.00,-0.93,1.01,-1.00,-0.93,-0.74,-1.94,-1.94,-1.94
459.48,-0.95,0.99,-0.95,0.99,-0.98,-0.91,-0.73,-1.93,-1.93,-1.94
464.07,-0.97,0.97,-0.97,0.97,-0.97,-0.90,-0.72,-1.93,-1.93,-1.93
468.71,-0.98,0.94,-0.98,0.94,-0.95,-0.89,-0.71,-1.93,-1.93,-1.93
473.40,-1.00,0.92,-1.00,0.92,-0.93,-0.88,-0.70,-1.92,-1.92,-1.92
478.13,-1.02,0.90,-1.02,0.90,-0.90,-0.86,-0.69,-1.92,-1.92,-1.92
482.91,-1.03,0.88,-1.03,0.89,-0.88,-0.85,-0.68,-1.91,-1.91,-1.91
487.74,-1.04,0.87,-1.05,0.87,-0.86,-0.84,-0.67,-1.91,-1.91,-1.91
492.62,-1.06,0.85,-1.06,0.84,-0.84,-0.83,-0.66,-1.90,-1.90,-1.91
