frequency,raw,error,smoothed,error_smoothed,equalization,parametric_eq,fixed_band_eq,equalized_raw,equalized_smoothed,target
20.00,7.70,-6.24,7.70,-6.26,6.04,-0.01,2.15,13.74,13.74,13.94
20.20,7.71,-6.23,7.71,-6.21,6.02,-0.01,2.22,13.73,13.73,13.94
20.40,7.73,-6.18,7.72,-6.17,6.00,-0.01,2.28,13.73,13.73,13.91
20.61,7.75,-6.09,7.75,-6.11,5.98,-0.01,2.35,13.73,13.73,13.84
20.81,7.79,-6.05,7.79,-6.05,5.96,-0.01,2.41,13.75,13.75,13.84
21.02,7.85,-6.00,7.85,-5.99,5.93,-0.01,2.49,13.77,13.77,13.84
21.23,7.91,-5.93,7.91,-5.93,5.89,-0.01,2.56,13.80,13.80,13.84
21.44,7.98,-5.87,7.98,-5.87,5.86,-0.01,2.63,13.84,13.83,13.84
21.66,8.05,-5.80,8.04,-5.80,5.81,-0.01,2.71,13.85,13.85,13.84
21.87,8.11,-5.73,8.11,-5.73,5.76,-0.01,2.79,13.87,13.87,13.84
22.09,8.17,-5.67,8.17,-5.67,5.70,-0.01,2.87,13.87,13.87,13.84
22.31,8.22,-5.62,8.22,-5.63,5.66,-0.01,2.95,13.88,13.88,13.84
22.54,8.27,-5.59,8.27,-5.61,5.61,-0.01,3.04,13.88,13.88,13.85
22.76,8.32,-5.61,8.32,-5.59,5.57,-0.01,3.13,13.89,13.89,13.93
22.99,8.36,-5.58,8.37,-5.56,5.54,-0.01,3.22,13.91,13.91,13.94
23.22,8.42,-5.52,8.42,-5.53,5.51,-0.01,3.31,13.93,13.93,13.94
23.45,8.48,-5.46,8.48,-5.49,5.49,-0.01,3.40,13.97,13.97,13.94
23.69,8.54,-5.47,8.54,-5.45,5.47,-0.01,3.50,14.01,14.01,14.00
23.92,8.60,-5.44,8.60,-5.43,5.45,-0.01,3.60,14.05,14.04,14.04
24.16,8.65,-5.39,8.65,-5.42,5.42,-0.01,3.70,14.08,14.08,14.04
24.40,8.70,-5.41,8.70,-5.40,5.40,-0.01,3.80,14.10,14.10,14.11
24.65,8.74,-5.40,8.74,-5.39,5.38,-0.01,3.90,14.12,14.12,14.14
24.89,8.77,-5.37,8.77,-5.38,5.36,-0.01,4.01,14.13,14.13,14.14
25.14,8.80,-5.34,8.80,-5.35,5.34,-0.01,4.11,14.14,14.14,14.14
25.39,8.82,-5.32,8.83,-5.32,5.32,-0.01,4.22,14.14,14.14,14.14
25.65,8.85,-5.29,8.86,-5.29,5.29,-0.01,4.32,14.14,14.15,14.14
25.91,8.89,-5.25,8.89,-5.25,5.26,-0.01,4.43,14.14,14.15,14.14
26.16,8.93,-5.21,8.93,-5.21,5.21,-0.01,4.53,14.14,14.14,14.14
26.43,8.97,-5.17,8.97,-5.17,5.17,-0.01,4.64,14.14,14.14,14.14
26.69,9.01,-5.13,9.01,-5.14,5.12,-0.01,4.74,14.13,14.13,14.14
26.96,9.06,-5.09,9.05,-5.08,5.06,-0.01,4.85,14.12,14.12,14.14
27.23,9.09,-5.04,9.09,-5.02,5.01,-0.01,4.94,14.10,14.10,14.13
27.50,9.12,-4.92,9.12,-4.95,4.96,-0.01,5.04,14.09,14.09,14.04
27.77,9.15,-4.89,9.15,-4.90,4.92,-0.01,5.14,14.07,14.07,14.04
28.05,9.18,-4.87,9.18,-4.86,4.88,-0.01,5.23,14.06,14.06,14.04
28.33,9.20,-4.84,9.20,-4.84,4.85,-0.01,5.31,14.05,14.05,14.04
28.62,9.22,-4.82,9.22,-4.82,4.83,-0.01,5.39,14.05,14.05,14.04
28.90,9.24,-4.81,9.24,-4.81,4.81,-0.01,5.46,14.05,14.04,14.04
29.19,9.25,-4.79,9.25,-4.79,4.79,-0.01,5.53,14.04,14.04,14.04
29.48,9.26,-4.78,9.26,-4.79,4.78,-0.01,5.59,14.04,14.04,14.04
29.78,9.27,-4.78,9.27,-4.77,4.76,-0.01,5.65,14.02,14.02,14.04
30.08,9.28,-4.75,9.28,-4.74,4.73,-0.01,5.69,14.00,14.00,14.03
30.38,9.29,-4.68,9.29,-4.69,4.69,-0.01,5.73,13.98,13.98,13.97
30.68,9.31,-4.64,9.31,-4.65,4.65,-0.01,5.75,13.95,13.95,13.94
30.99,9.33,-4.61,9.33,-4.61,4.59,-0.01,5.77,13.93,13.93,13.94
31.30,9.37,-4.57,9.37,-4.55,4.53,-0.01,5.78,13.91,13.91,13.94
31.61,9.41,-4.48,9.41,-4.48,4.47,-0.01,5.78,13.89,13.89,13.89
31.93,9.46,-4.38,9.46,-4.40,4.41,-0.01,5.77,13.87,13.87,13.84
32.24,9.50,-4.34,9.50,-4.34,4.36,-0.02,5.75,13.86,13.86,13.84
32.57,9.55,-4.29,9.55,-4.29,4.31,-0.02,5.73,13.85,13.85,13.84
32.89,9.59,-4.25,9.59,-4.25,4.26,-0.02,5.69,13.85,13.85,13.84
33.22,9.63,-4.22,9.63,-4.22,4.22,-0.02,5.65,13.84,13.84,13.84
33.55,9.66,-4.18,9.66,-4.18,4.18,-0.02,5.60,13.84,13.84,13.84
33.89,9.69,-4.16,9.69,-4.16,4.15,-0.02,5.54,13.84,13.84,13.84
34.23,9.71,-4.13,9.71,-4.13,4.13,-0.02,5.48,13.84,13.84,13.84
34.57,9.73,-4.11,9.73,-4.11,4.11,-0.02,5.41,13.84,13.84,13.84
34.92,9.76,-4.09,9.76,-4.09,4.08,-0.02,5.34,13.84,13.84,13.84
35.27,9.78,-4.07,9.78,-4.07,4.06,-0.02,5.26,13.84,13.84,13.84
35.62,9.80,-4.04,9.80,-4.04,4.04,-0.02,5.18,13.84,13.84,13.84
35.97,9.82,-4.02,9.82,-4.02,4.02,-0.02,5.09,13.84,13.84,13.84
36.33,9.84,-4.00,9.84,-4.00,4.00,-0.02,5.00,13.84,13.84,13.84
36.70,9.86,-3.98,9.86,-3.98,3.99,-0.02,4.91,13.85,13.85,13.84
37.06,9.88,-3.97,9.88,-3.96,3.99,-0.02,4.82,13.86,13.86,13.84
37.43,9.89,-3.95,9.89,-3.95,3.98,-0.02,4.73,13.87,13.87,13.84
37.81,9.90,-3.94,9.90,-3.96,3.98,-0.02,4.64,13.88,13.88,13.84
38.19,9.92,-3.98,9.92,-3.98,3.97,-0.02,4.55,13.88,13.89,13.90
38.57,9.93,-4.01,9.93,-3.99,3.95,-0.02,4.46,13.88,13.88,13.94
38.95,9.95,-3.99,9.95,-3.97,3.92,-0.02,4.37,13.88,13.88,13.94
39.34,9.97,-3.90,9.97,-3.92,3.89,-0.02,4.28,13.87,13.87,13.87
39.74,10.00,-3.85,10.00,-3.86,3.85,-0.02,4.19,13.85,13.85,13.84
40.14,10.02,-3.82,10.02,-3.79,3.81,-0.02,4.11,13.83,13.83,13.84
40.54,10.04,-3.73,10.04,-3.74,3.76,-0.02,4.02,13.81,13.81,13.77
40.94,10.06,-3.68,10.06,-3.69,3.72,-0.02,3.94,13.78,13.78,13.74
41.35,10.08,-3.66,10.08,-3.66,3.69,-0.03,3.86,13.77,13.77,13.74
41.76,10.09,-3.65,10.09,-3.65,3.66,-0.03,3.78,13.75,13.75,13.74
42.18,10.10,-3.64,10.10,-3.64,3.64,-0.03,3.71,13.74,13.74,13.74
42.60,10.11,-3.63,10.11,-3.63,3.62,-0.03,3.63,13.74,13.74,13.74
43.03,10.12,-3.62,10.12,-3.63,3.60,-0.03,3.56,13.72,13.72,13.74
43.46,10.13,-3.61,10.13,-3.61,3.57,-0.03,3.50,13.70,13.70,13.74
43.90,10.14,-3.57,10.14,-3.56,3.54,-0.03,3.43,13.68,13.68,13.71
44.33,10.15,-3.50,10.15,-3.50,3.50,-0.03,3.37,13.65,13.65,13.65
44.78,10.16,-3.42,10.16,-3.44,3.45,-0.03,3.31,13.60,13.60,13.58
45.23,10.17,-3.38,10.17,-3.39,3.40,-0.03,3.25,13.56,13.56,13.54
45.68,10.17,-3.37,10.17,-3.34,3.35,-0.03,3.20,13.53,13.53,13.54
46.13,10.18,-3.29,10.18,-3.30,3.31,-0.03,3.14,13.49,13.49,13.47
46.60,10.19,-3.25,10.19,-3.26,3.28,-0.03,3.09,13.47,13.47,13.44
47.06,10.20,-3.24,10.20,-3.24,3.26,-0.03,3.05,13.46,13.46,13.44
47.53,10.21,-3.23,10.21,-3.23,3.24,-0.03,3.00,13.45,13.45,13.44
48.01,10.22,-3.23,10.22,-3.23,3.22,-0.03,2.96,13.44,13.44,13.44
48.49,10.22,-3.22,10.22,-3.22,3.20,-0.04,2.92,13.43,13.42,13.44
48.97,10.22,-3.22,10.22,-3.20,3.18,-0.04,2.88,13.41,13.41,13.44
49.46,10.22,-3.17,10.23,-3.17,3.16,-0.04,2.85,13.38,13.38,13.39
49.96,10.23,-3.11,10.23,-3.13,3.13,-0.04,2.81,13.36,13.36,13.34
50.46,10.24,-3.10,10.24,-3.08,3.09,-0.04,2.78,13.33,13.33,13.34
50.96,10.26,-3.03,10.26,-3.03,3.05,-0.04,2.75,13.30,13.30,13.28
51.47,10.27,-2.97,10.27,-2.99,2.99,-0.04,2.72,13.26,13.26,13.24
51.99,10.28,-2.96,10.28,-2.94,2.93,-0.04,2.69,13.22,13.21,13.24
52.51,10.29,-2.89,10.29,-2.89,2.87,-0.04,2.67,13.16,13.16,13.18
53.03,10.30,-2.81,10.30,-2.82,2.80,-0.04,2.64,13.10,13.10,13.11
53.56,10.30,-2.74,10.30,-2.74,2.74,-0.04,2.62,13.03,13.03,13.04
54.10,10.30,-2.66,10.30,-2.66,2.67,-0.04,2.59,12.97,12.97,12.97
54.64,10.31,-2.59,10.31,-2.59,2.60,-0.05,2.57,12.91,12.91,12.90
55.18,10.32,-2.52,10.32,-2.51,2.54,-0.05,2.55,12.86,12.86,12.83
55.74,10.32,-2.44,10.32,-2.46,2.48,-0.05,2.53,12.80,12.80,12.76
56.29,10.33,-2.42,10.33,-2.42,2.42,-0.05,2.50,12.74,12.74,12.74
56.86,10.33,-2.39,10.33,-2.37,2.36,-0.05,2.48,12.69,12.69,12.72
57.42,10.33,-2.32,10.33,-2.32,2.29,-0.05,2.46,12.63,12.63,12.65
58.00,10.34,-2.25,10.34,-2.25,2.22,-0.05,2.44,12.56,12.56,12.59
58.58,10.35,-2.17,10.35,-2.17,2.15,-0.05,2.41,12.50,12.50,12.52
59.16,10.36,-2.09,10.36,-2.09,2.09,-0.05,2.39,12.44,12.44,12.45
59.76,10.37,-2.02,10.36,-2.01,2.03,-0.06,2.36,12.39,12.39,12.38
60.35,10.37,-1.94,10.37,-1.94,1.97,-0.06,2.34,12.34,12.34,12.31
60.96,10.37,-1.88,10.37,-1.89,1.93,-0.06,2.31,12.30,12.30,12.25
61.57,10.37,-1.87,10.37,-1.87,1.89,-0.06,2.28,12.26,12.26,12.24
62.18,10.36,-1.88,10.36,-1.87,1.88,-0.06,2.25,12.24,12.24,12.24
62.80,10.36,-1.88,10.36,-1.88,1.87,-0.06,2.22,12.23,12.23,12.24
63.43,10.36,-1.88,10.36,-1.88,1.87,-0.06,2.19,12.22,12.22,12.24
64.07,10.36,-1.89,10.36,-1.89,1.87,-0.06,2.15,12.23,12.23,12.24
64.71,10.36,-1.89,10.36,-1.89,1.88,-0.07,2.12,12.24,12.24,12.24
65.35,10.36,-1.89,10.36,-1.89,1.89,-0.07,2.08,12.25,12.25,12.24
66.01,10.35,-1.89,10.35,-1.89,1.90,-0.07,2.04,12.26,12.26,12.24
66.67,10.35,-1.90,10.35,-1.90,1.91,-0.07,2.00,12.26,12.26,12.24
67.33,10.34,-1.90,10.34,-1.90,1.91,-0.07,1.96,12.25,12.25,12.24
68.01,10.33,-1.91,10.33,-1.92,1.91,-0.07,1.92,12.24,12.24,12.24
68.69,10.32,-1.92,10.32,-1.92,1.90,-0.08,1.88,12.22,12.22,12.24
69.37,10.32,-1.93,10.32,-1.91,1.88,-0.08,1.83,12.20,12.20,12.24
70.07,10.31,-1.87,10.31,-1.86,1.86,-0.08,1.79,12.17,12.17,12.18
70.77,10.30,-1.81,10.30,-1.81,1.83,-0.08,1.74,12.13,12.13,12.11
71.48,10.30,-1.75,10.30,-1.77,1.79,-0.08,1.70,12.09,12.09,12.04
72.19,10.29,-1.75,10.29,-1.74,1.74,-0.08,1.65,12.03,12.03,12.04
72.91,10.29,-1.71,10.29,-1.70,1.69,-0.09,1.60,11.98,11.98,12.00
73.64,10.29,-1.64,10.29,-1.65,1.63,-0.09,1.56,11.92,11.92,11.93
74.38,10.28,-1.58,10.28,-1.58,1.58,-0.09,1.51,11.86,11.86,11.86
75.12,10.28,-1.52,10.28,-1.52,1.52,-0.09,1.46,11.80,11.80,11.79
75.87,10.27,-1.45,10.27,-1.45,1.46,-0.09,1.42,11.74,11.74,11.73
76.63,10.26,-1.39,10.26,-1.39,1.40,-0.10,1.37,11.67,11.67,11.66
77.40,10.25,-1.34,10.25,-1.34,1.34,-0.10,1.32,11.59,11.59,11.59
78.17,10.24,-1.28,10.24,-1.28,1.28,-0.10,1.28,11.52,11.52,11.52
78.95,10.22,-1.23,10.23,-1.23,1.22,-0.10,1.23,11.44,11.44,11.45
79.74,10.21,-1.17,10.21,-1.17,1.16,-0.11,1.19,11.37,11.37,11.38
80.54,10.20,-1.11,10.20,-1.11,1.10,-0.11,1.14,11.30,11.30,11.31
81.35,10.19,-1.06,10.19,-1.06,1.05,-0.11,1.09,11.24,11.24,11.25
82.16,10.18,-1.00,10.18,-0.99,1.01,-0.11,1.05,11.19,11.19,11.18
82.98,10.17,-0.94,10.17,-0.94,0.98,-0.12,1.01,11.14,11.14,11.11
83.81,10.15,-0.89,10.15,-0.91,0.94,-0.12,0.96,11.10,11.10,11.04
84.65,10.14,-0.90,10.14,-0.90,0.91,-0.12,0.92,11.05,11.05,11.04
85.50,10.13,-0.91,10.13,-0.90,0.87,-0.12,0.88,11.00,11.00,11.04
86.35,10.13,-0.90,10.13,-0.89,0.83,-0.13,0.84,10.96,10.96,11.03
87.22,10.12,-0.84,10.12,-0.84,0.80,-0.13,0.79,10.92,10.92,10.96
88.09,10.12,-0.77,10.12,-0.77,0.77,-0.13,0.75,10.89,10.89,10.89
88.97,10.12,-0.70,10.12,-0.70,0.74,-0.14,0.71,10.86,10.86,10.82
89.86,10.11,-0.64,10.11,-0.66,0.71,-0.14,0.67,10.82,10.82,10.75
90.76,10.10,-0.64,10.10,-0.65,0.67,-0.14,0.63,10.77,10.77,10.74
91.66,10.08,-0.66,10.08,-0.66,0.65,-0.15,0.60,10.73,10.73,10.74
92.58,10.06,-0.68,10.06,-0.66,0.63,-0.15,0.56,10.69,10.69,10.74
93.51,10.03,-0.65,10.03,-0.64,0.63,-0.15,0.52,10.66,10.66,10.68
94.44,10.00,-0.61,10.00,-0.62,0.63,-0.16,0.48,10.63,10.63,10.61
95.39,9.96,-0.59,9.95,-0.61,0.64,-0.16,0.45,10.60,10.60,10.54
96.34,9.91,-0.64,9.90,-0.62,0.65,-0.17,0.41,10.56,10.56,10.54
97.30,9.85,-0.66,9.85,-0.65,0.65,-0.17,0.37,10.50,10.50,10.51
98.28,9.79,-0.65,9.79,-0.68,0.65,-0.17,0.34,10.44,10.44,10.44
99.26,9.75,-0.69,9.75,-0.68,0.64,-0.18,0.30,10.39,10.39,10.44
100.25,9.73,-0.67,9.73,-0.65,0.63,-0.18,0.27,10.35,10.36,10.40
101.25,9.73,-0.60,9.73,-0.61,0.60,-0.19,0.23,10.33,10.33,10.33
102.27,9.74,-0.54,9.74,-0.55,0.56,-0.19,0.20,10.30,10.30,10.28
103.29,9.75,-0.49,9.75,-0.50,0.50,-0.20,0.17,10.26,10.26,10.24
104.32,9.76,-0.47,9.76,-0.46,0.44,-0.20,0.14,10.20,10.20,10.23
105.37,9.76,-0.42,9.76,-0.39,0.37,-0.21,0.10,10.12,10.12,10.17
106.42,9.75,-0.31,9.75,-0.31,0.30,-0.21,0.07,10.05,10.05,10.06
107.48,9.73,-0.18,9.73,-0.21,0.24,-0.22,0.04,9.97,9.97,9.92
108.56,9.71,-0.15,9.71,-0.14,0.19,-0.22,0.01,9.90,9.90,9.86
109.64,9.68,-0.10,9.68,-0.11,0.15,-0.23,-0.02,9.83,9.83,9.78
110.74,9.65,-0.09,9.65,-0.10,0.11,-0.23,-0.05,9.76,9.76,9.74
111.85,9.62,-0.12,9.62,-0.08,0.09,-0.24,-0.08,9.71,9.71,9.74
112.97,9.60,-0.05,9.60,-0.08,0.07,-0.25,-0.10,9.66,9.66,9.65
114.10,9.57,-0.07,9.58,-0.07,0.05,-0.25,-0.13,9.62,9.62,9.64
115.24,9.56,-0.07,9.56,-0.05,0.03,-0.26,-0.16,9.59,9.59,9.63
116.39,9.54,-0.03,9.54,-0.02,0.00,-0.27,-0.18,9.54,9.54,9.57
117.55,9.53,0.04,9.52,0.03,-0.03,-0.27,-0.21,9.49,9.49,9.49
118.73,9.50,0.09,9.50,0.09,-0.07,-0.28,-0.23,9.43,9.43,9.41
119.92,9.47,0.13,9.47,0.13,-0.11,-0.29,-0.25,9.36,9.36,9.35
121.12,9.45,0.16,9.45,0.16,-0.16,-0.30,-0.28,9.29,9.29,9.29
122.33,9.42,0.19,9.42,0.19,-0.20,-0.31,-0.30,9.22,9.22,9.23
123.55,9.39,0.22,9.39,0.24,-0.24,-0.31,-0.32,9.15,9.15,9.17
124.79,9.36,0.29,9.35,0.28,-0.28,-0.32,-0.34,9.07,9.07,9.06
126.03,9.32,0.33,9.32,0.32,-0.32,-0.33,-0.36,9.00,9.00,8.99
127.29,9.29,0.36,9.29,0.36,-0.35,-0.34,-0.38,8.93,8.93,8.93
128.57,9.25,0.39,9.25,0.39,-0.39,-0.35,-0.39,8.86,8.87,8.86
129.85,9.22,0.42,9.22,0.42,-0.42,-0.36,-0.41,8.80,8.80,8.80
131.15,9.20,0.46,9.20,0.46,-0.46,-0.37,-0.43,8.74,8.74,8.74
132.46,9.17,0.50,9.17,0.50,-0.50,-0.38,-0.44,8.67,8.67,8.67
133.79,9.14,0.54,9.14,0.53,-0.54,-0.39,-0.46,8.60,8.60,8.60
135.12,9.11,0.57,9.11,0.57,-0.59,-0.40,-0.47,8.52,8.52,8.54
136.48,9.08,0.61,9.08,0.63,-0.64,-0.41,-0.48,8.44,8.44,8.47
137.84,9.04,0.68,9.04,0.68,-0.70,-0.43,-0.50,8.34,8.34,8.36
139.22,9.00,0.77,9.00,0.75,-0.76,-0.44,-0.51,8.24,8.24,8.23
140.61,8.97,0.80,8.97,0.82,-0.82,-0.45,-0.52,8.14,8.14,8.16
142.02,8.93,0.89,8.93,0.89,-0.88,-0.46,-0.54,8.05,8.05,8.04
143.44,8.88,0.96,8.88,0.95,-0.92,-0.48,-0.55,7.97,7.96,7.92
144.87,8.84,0.99,8.84,0.99,-0.95,-0.49,-0.56,7.88,7.88,7.85
146.32,8.79,1.01,8.79,1.00,-0.98,-0.51,-0.57,7.81,7.81,7.78
147.78,8.74,1.00,8.74,0.99,-0.99,-0.52,-0.58,7.74,7.74,7.74
149.26,8.69,0.96,8.69,0.98,-1.01,-0.54,-0.60,7.68,7.68,7.73
150.75,8.64,0.99,8.64,0.98,-1.01,-0.55,-0.61,7.63,7.63,7.65
152.26,8.60,1.00,8.60,0.99,-1.02,-0.57,-0.62,7.58,7.58,7.60
153.78,8.56,1.01,8.56,1.02,-1.02,-0.59,-0.64,7.54,7.54,7.55
155.32,8.51,1.03,8.51,1.04,-1.02,-0.61,-0.65,7.49,7.49,7.48
156.88,8.46,1.06,8.46,1.05,-1.02,-0.62,-0.66,7.44,7.44,7.40
158.44,8.41,1.07,8.41,1.05,-1.03,-0.64,-0.68,7.38,7.38,7.34
160.03,8.37,1.02,8.37,1.04,-1.05,-0.66,-0.69,7.32,7.32,7.34
161.63,8.32,1.04,8.32,1.04,-1.07,-0.68,-0.71,7.26,7.26,7.29
163.24,8.29,1.06,8.29,1.06,-1.09,-0.70,-0.72,7.20,7.20,7.23
164.88,8.25,1.10,8.25,1.10,-1.12,-0.72,-0.74,7.13,7.13,7.15
166.53,8.23,1.14,8.23,1.14,-1.15,-0.75,-0.76,7.08,7.08,7.09
168.19,8.21,1.18,8.21,1.19,-1.19,-0.77,-0.77,7.02,7.02,7.03
169.87,8.20,1.25,8.20,1.25,-1.23,-0.79,-0.79,6.97,6.97,6.95
171.57,8.18,1.32,8.18,1.30,-1.26,-0.82,-0.81,6.92,6.92,6.86
173.29,8.17,1.33,8.17,1.32,-1.29,-0.84,-0.83,6.88,6.88,6.84
175.02,8.16,1.32,8.16,1.32,-1.31,-0.87,-0.85,6.85,6.85,6.84
176.77,8.14,1.30,8.14,1.32,-1.33,-0.89,-0.87,6.82,6.82,6.84
178.54,8.12,1.33,8.12,1.33,-1.34,-0.92,-0.90,6.78,6.78,6.79
180.32,8.10,1.36,8.10,1.33,-1.35,-0.94,-0.92,6.75,6.75,6.74
182.13,8.07,1.33,8.07,1.34,-1.36,-0.97,-0.94,6.71,6.71,6.74
183.95,8.04,1.35,8.04,1.36,-1.37,-1.00,-0.97,6.67,6.67,6.70
185.79,8.01,1.39,8.01,1.38,-1.39,-1.03,-0.99,6.62,6.62,6.62
187.65,7.98,1.42,7.97,1.42,-1.40,-1.05,-1.02,6.58,6.58,6.55
189.52,7.94,1.45,7.94,1.44,-1.41,-1.08,-1.04,6.53,6.53,6.49
191.42,7.89,1.45,7.89,1.43,-1.42,-1.11,-1.07,6.48,6.48,6.44
193.33,7.84,1.40,7.84,1.42,-1.43,-1.14,-1.10,6.42,6.42,6.44
195.27,7.79,1.41,7.79,1.42,-1.44,-1.17,-1.12,6.36,6.35,6.38
197.22,7.73,1.43,7.74,1.42,-1.45,-1.20,-1.15,6.29,6.29,6.30
199.19,7.68,1.44,7.68,1.44,-1.46,-1.23,-1.18,6.22,6.22,6.24
201.18,7.63,1.46,7.63,1.46,-1.47,-1.25,-1.21,6.16,6.17,6.17
203.19,7.59,1.48,7.59,1.49,-1.48,-1.28,-1.24,6.11,6.11,6.10
205.23,7.55,1.51,7.55,1.51,-1.50,-1.31,-1.27,6.05,6.05,6.04
207.28,7.50,1.54,7.50,1.54,-1.52,-1.33,-1.30,5.98,5.98,5.97
209.35,7.46,1.56,7.46,1.55,-1.55,-1.36,-1.33,5.91,5.91,5.90
211.44,7.41,1.57,7.41,1.55,-1.56,-1.38,-1.36,5.85,5.85,5.84
213.56,7.36,1.52,7.36,1.56,-1.58,-1.41,-1.39,5.78,5.78,5.84
215.69,7.31,1.58,7.31,1.59,-1.59,-1.43,-1.42,5.72,5.72,5.73
217.85,7.25,1.64,7.25,1.62,-1.60,-1.45,-1.45,5.65,5.65,5.61
220.03,7.20,1.66,7.20,1.63,-1.61,-1.47,-1.47,5.59,5.59,5.54
222.23,7.15,1.61,7.15,1.62,-1.61,-1.48,-1.50,5.54,5.54,5.54
224.45,7.10,1.57,7.10,1.60,-1.61,-1.50,-1.53,5.49,5.49,5.53
226.70,7.05,1.60,7.05,1.60,-1.61,-1.51,-1.55,5.44,5.44,5.45
228.96,7.00,1.62,7.00,1.60,-1.59,-1.52,-1.58,5.40,5.40,5.38
231.25,6.94,1.60,6.94,1.59,-1.57,-1.53,-1.60,5.37,5.37,5.34
233.57,6.89,1.55,6.89,1.58,-1.56,-1.54,-1.62,5.34,5.34,5.34
235.90,6.84,1.56,6.84,1.55,-1.54,-1.55,-1.64,5.30,5.30,5.28
238.26,6.78,1.54,6.78,1.52,-1.53,-1.55,-1.66,5.25,5.25,5.24
240.64,6.73,1.50,6.73,1.51,-1.54,-1.56,-1.67,5.19,5.19,5.23
243.05,6.67,1.50,6.67,1.50,-1.54,-1.56,-1.69,5.13,5.13,5.17
245.48,6.61,1.52,6.61,1.53,-1.56,-1.56,-1.70,5.06,5.06,5.09
247.93,6.56,1.56,6.56,1.57,-1.58,-1.56,-1.71,4.98,4.98,5.00
250.41,6.50,1.63,6.50,1.61,-1.59,-1.56,-1.72,4.91,4.91,4.87
252.92,6.44,1.65,6.44,1.65,-1.61,-1.56,-1.72,4.83,4.83,4.79
255.45,6.38,1.65,6.38,1.67,-1.63,-1.55,-1.73,4.75,4.75,4.73
258.00,6.32,1.68,6.32,1.65,-1.64,-1.55,-1.73,4.68,4.69,4.64
260.58,6.27,1.62,6.27,1.63,-1.64,-1.54,-1.73,4.63,4.63,4.64
263.19,6.21,1.60,6.21,1.62,-1.63,-1.53,-1.73,4.58,4.58,4.61
265.82,6.15,1.60,6.15,1.60,-1.61,-1.53,-1.72,4.54,4.54,4.55
268.48,6.09,1.61,6.09,1.60,-1.60,-1.52,-1.72,4.50,4.50,4.48
271.16,6.03,1.59,6.03,1.58,-1.58,-1.51,-1.71,4.46,4.46,4.44
273.87,5.97,1.53,5.97,1.56,-1.56,-1.50,-1.70,4.42,4.42,4.44
276.61,5.91,1.54,5.91,1.54,-1.54,-1.49,-1.70,4.37,4.37,4.38
279.38,5.85,1.54,5.85,1.53,-1.53,-1.48,-1.69,4.32,4.32,4.31
282.17,5.79,1.55,5.79,1.52,-1.52,-1.47,-1.68,4.27,4.27,4.24
284.99,5.73,1.48,5.73,1.50,-1.51,-1.46,-1.66,4.21,4.21,4.24
287.84,5.66,1.47,5.67,1.48,-1.50,-1.45,-1.65,4.16,4.16,4.20
290.72,5.60,1.48,5.60,1.48,-1.49,-1.43,-1.64,4.11,4.11,4.12
293.63,5.54,1.49,5.54,1.49,-1.48,-1.42,-1.63,4.06,4.06,4.05
296.57,5.48,1.50,5.48,1.49,-1.46,-1.40,-1.61,4.02,4.02,3.98
299.53,5.42,1.47,5.42,1.46,-1.44,-1.38,-1.60,3.98,3.98,3.94
302.53,5.35,1.41,5.35,1.41,-1.41,-1.35,-1.59,3.94,3.94,3.94
305.55,5.29,1.35,5.29,1.36,-1.37,-1.33,-1.58,3.91,3.91,3.94
308.61,5.22,1.31,5.22,1.32,-1.33,-1.30,-1.57,3.89,3.89,3.91
311.69,5.16,1.31,5.16,1.29,-1.28,-1.26,-1.56,3.88,3.88,3.85
314.81,5.09,1.25,5.09,1.25,-1.23,-1.23,-1.55,3.86,3.86,3.84
317.96,5.03,1.19,5.03,1.19,-1.19,-1.18,-1.54,3.84,3.84,3.84
321.14,4.97,1.12,4.97,1.12,-1.16,-1.13,-1.53,3.81,3.81,3.84
324.35,4.90,1.06,4.90,1.07,-1.13,-1.07,-1.52,3.77,3.77,3.84
327.59,4.84,1.05,4.84,1.06,-1.11,-1.00,-1.51,3.73,3.73,3.79
330.87,4.78,1.05,4.78,1.05,-1.08,-0.92,-1.51,3.69,3.69,3.73
334.18,4.71,1.05,4.71,1.05,-1.04,-0.84,-1.50,3.67,3.67,3.66
337.52,4.65,1.01,4.65,1.01,-0.98,-0.74,-1.50,3.68,3.68,3.64
340.90,4.59,0.93,4.59,0.93,-0.86,-0.63,-1.50,3.73,3.73,3.66
344.30,4.53,0.80,4.53,0.80,-0.68,-0.51,-1.50,3.85,3.85,3.73
347.75,4.47,0.62,4.47,0.61,-0.45,-0.39,-1.50,4.02,4.02,3.85
351.23,4.41,0.37,4.41,0.35,-0.19,-0.27,-1.50,4.22,4.22,4.04
354.74,4.35,0.03,4.35,0.03,0.05,-0.15,-1.50,4.40,4.40,4.32
358.28,4.29,-0.32,4.29,-0.33,0.25,-0.04,-1.50,4.54,4.54,4.61
361.87,4.22,-0.63,4.22,-0.64,0.40,0.05,-1.51,4.62,4.62,4.86
365.49,4.16,-0.88,4.16,-0.84,0.47,0.11,-1.52,4.63,4.63,5.03
369.14,4.09,-0.88,4.09,-0.85,0.46,0.12,-1.52,4.55,4.55,4.97
372.83,4.03,-0.70,4.03,-0.67,0.35,0.09,-1.53,4.38,4.38,4.72
376.56,3.96,-0.32,3.96,-0.34,0.16,0.02,-1.54,4.12,4.12,4.28
380.33,3.89,0.05,3.89,0.03,-0.10,-0.10,-1.55,3.79,3.79,3.84
384.13,3.82,0.40,3.82,0.39,-0.40,-0.26,-1.56,3.42,3.42,3.43
387.97,3.76,0.70,3.76,0.69,-0.71,-0.45,-1.58,3.04,3.04,3.06
391.85,3.69,0.95,3.69,0.96,-0.99,-0.65,-1.59,2.70,2.70,2.74
395.77,3.62,1.20,3.62,1.22,-1.19,-0.87,-1.60,2.43,2.43,2.42
399.73,3.55,1.42,3.55,1.43,-1.34,-1.09,-1.62,2.21,2.21,2.13
403.72,3.48,1.62,3.48,1.58,-1.44,-1.30,-1.64,2.04,2.04,1.86
407.76,3.41,1.63,3.41,1.63,-1.48,-1.50,-1.65,1.93,1.93,1.78
411.84,3.34,1.60,3.34,1.60,-1.50,-1.68,-1.67,1.84,1.84,1.74
415.96,3.27,1.53,3.27,1.53,-1.51,-1.85,-1.68,1.76,1.76,1.74
420.12,3.20,1.46,3.20,1.45,-1.55,-2.00,-1.70,1.65,1.65,1.74
424.32,3.13,1.43,3.13,1.43,-1.64,-2.13,-1.72,1.50,1.50,1.70
428.56,3.06,1.47,3.06,1.52,-1.78,-2.25,-1.73,1.29,1.29,1.60
432.85,2.99,1.75,2.99,1.77,-1.97,-2.35,-1.75,1.02,1.02,1.24
437.18,2.92,2.14,2.92,2.14,-2.20,-2.43,-1.76,0.71,0.71,0.78
441.55,2.85,2.56,2.85,2.55,-2.46,-2.50,-1.78,0.39,0.39,0.29
445.96,2.78,2.93,2.78,2.89,-2.71,-2.55,-1.79,0.06,0.06,-0.15
450.42,2.71,3.11,2.71,3.11,-2.93,-2.59,-1.80,-0.22,-0.22,-0.40
454.93,2.64,3.21,2.64,3.21,-3.08,-2.62,-1.81,-0.45,-0.44,-0.57
459.48,2.57,3.22,2.57,3.21,-3.16,-2.63,-1.82,-0.59,-0.59,-0.65
464.07,2.50,3.15,2.50,3.16,-3.16,-2.64,-1.83,-0.66,-0.66,-0.66
468.71,2.43,3.06,2.42,3.05,-3.09,-2.63,-1.83,-0.66,-0.66,-0.63
473.40,2.35,2.92,2.35,2.92,-2.96,-2.61,-1.83,-0.61,-0.61,-0.57
478.13,2.28,2.78,2.28,2.78,-2.81,-2.59,-1.83,-0.53,-0.53,-0.50
482.91,2.21,2.64,2.21,2.64,-2.65,-2.55,-1.83,-0.44,-0.44,-0.43
