frequency,raw,error,smoothed,error_smoothed,equalization,parametric_eq,fixed_band_eq,equalized_raw,equalized_smoothed,target
20.00,11.65,-2.39,11.68,-2.37,2.39,2.38,0.66,14.05,14.07,14.05
20.20,11.51,-2.54,11.49,-2.57,2.62,2.48,0.68,14.13,14.11,14.06
20.40,11.34,-2.72,11.30,-2.76,2.81,2.59,0.70,14.15,14.12,14.06
20.61,11.13,-2.93,11.13,-2.94,2.97,2.66,0.73,14.10,14.10,14.07
20.81,10.93,-3.14,10.93,-3.14,3.09,2.73,0.75,14.02,14.02,14.07
21.02,10.78,-3.29,10.78,-3.29,3.17,2.77,0.77,13.95,13.95,14.07
21.23,10.69,-3.38,10.71,-3.36,3.21,2.80,0.80,13.90,13.92,14.07
21.44,10.72,-3.35,10.73,-3.34,3.22,2.81,0.82,13.94,13.96,14.07
21.66,10.85,-3.22,10.84,-3.23,3.15,2.81,0.85,14.00,13.99,14.07
21.87,11.00,-3.06,11.00,-3.06,3.04,2.80,0.88,14.04,14.05,14.06
22.09,11.18,-2.87,11.18,-2.87,2.92,2.78,0.90,14.10,14.10,14.05
22.31,11.34,-2.70,11.34,-2.71,2.79,2.76,0.93,14.14,14.13,14.04
22.54,11.46,-2.57,11.45,-2.58,2.69,2.75,0.96,14.14,14.14,14.03
22.76,11.51,-2.50,11.50,-2.51,2.62,2.73,0.99,14.13,14.12,14.01
22.99,11.49,-2.50,11.48,-2.51,2.58,2.72,1.02,14.08,14.07,13.99
23.22,11.42,-2.55,11.42,-2.55,2.58,2.71,1.06,13.99,14.00,13.97
23.45,11.33,-2.62,11.34,-2.61,2.58,2.71,1.09,13.91,13.92,13.95
23.69,11.26,-2.67,11.26,-2.66,2.59,2.71,1.12,13.85,13.85,13.93
23.92,11.22,-2.68,11.22,-2.67,2.58,2.71,1.15,13.79,13.80,13.90
24.16,11.23,-2.64,11.24,-2.63,2.54,2.70,1.19,13.77,13.78,13.87
24.40,11.29,-2.54,11.30,-2.54,2.49,2.70,1.22,13.78,13.79,13.83
24.65,11.38,-2.42,11.38,-2.42,2.43,2.68,1.26,13.81,13.80,13.80
24.89,11.47,-2.29,11.46,-2.30,2.35,2.65,1.29,13.82,13.82,13.76
25.14,11.52,-2.20,11.52,-2.20,2.28,2.61,1.32,13.80,13.80,13.72
25.39,11.56,-2.13,11.54,-2.14,2.22,2.56,1.36,13.77,13.76,13.68
25.65,11.53,-2.12,11.53,-2.12,2.16,2.49,1.39,13.69,13.69,13.65
25.91,11.49,-2.12,11.49,-2.12,2.12,2.42,1.43,13.61,13.60,13.61
26.16,11.44,-2.13,11.45,-2.12,2.07,2.32,1.46,13.52,13.52,13.57
26.43,11.43,-2.10,11.44,-2.09,2.02,2.23,1.49,13.45,13.46,13.54
26.69,11.47,-2.03,11.47,-2.03,1.96,2.12,1.52,13.43,13.43,13.50
26.96,11.53,-1.93,11.54,-1.92,1.89,2.01,1.55,13.42,13.43,13.47
27.23,11.63,-1.80,11.63,-1.80,1.81,1.89,1.58,13.44,13.44,13.43
27.50,11.71,-1.68,11.71,-1.69,1.73,1.78,1.61,13.45,13.44,13.39
27.77,11.77,-1.59,11.77,-1.59,1.66,1.67,1.63,13.43,13.43,13.36
28.05,11.80,-1.52,11.79,-1.53,1.60,1.56,1.65,13.40,13.39,13.32
28.33,11.77,-1.51,11.77,-1.51,1.55,1.45,1.67,13.32,13.32,13.28
28.62,11.75,-1.50,11.75,-1.50,1.50,1.35,1.69,13.25,13.25,13.24
28.90,11.71,-1.49,11.72,-1.49,1.46,1.25,1.71,13.17,13.17,13.21
29.19,11.72,-1.45,11.72,-1.45,1.39,1.16,1.72,13.11,13.11,13.17
29.48,11.75,-1.40,11.76,-1.38,1.31,1.07,1.72,13.06,13.07,13.14
29.78,11.85,-1.27,11.85,-1.27,1.21,0.99,1.73,13.06,13.06,13.12
30.08,11.97,-1.12,11.98,-1.12,1.08,0.92,1.73,13.05,13.05,13.09
30.38,12.13,-0.94,12.13,-0.94,0.93,0.84,1.73,13.06,13.06,13.07
30.68,12.28,-0.76,12.28,-0.76,0.78,0.77,1.72,13.07,13.06,13.04
30.99,12.41,-0.60,12.41,-0.60,0.65,0.71,1.71,13.06,13.05,13.01
31.30,12.50,-0.47,12.50,-0.47,0.53,0.65,1.69,13.03,13.03,12.97
31.61,12.54,-0.39,12.54,-0.39,0.45,0.59,1.67,13.00,12.99,12.93
31.93,12.55,-0.35,12.54,-0.36,0.41,0.54,1.64,12.95,12.95,12.90
32.24,12.51,-0.36,12.51,-0.36,0.39,0.49,1.62,12.90,12.90,12.87
32.57,12.45,-0.39,12.45,-0.39,0.39,0.44,1.58,12.84,12.84,12.84
32.89,12.38,-0.44,12.38,-0.44,0.41,0.40,1.54,12.79,12.79,12.82
33.22,12.32,-0.47,12.32,-0.47,0.43,0.35,1.50,12.75,12.75,12.80
33.55,12.27,-0.50,12.28,-0.49,0.44,0.31,1.46,12.71,12.72,12.77
33.89,12.26,-0.48,12.26,-0.48,0.44,0.27,1.41,12.70,12.70,12.74
34.23,12.26,-0.44,12.26,-0.44,0.43,0.24,1.36,12.69,12.69,12.70
34.57,12.27,-0.39,12.27,-0.39,0.41,0.20,1.30,12.67,12.67,12.66
34.92,12.28,-0.34,12.28,-0.34,0.37,0.17,1.24,12.66,12.66,12.62
35.27,12.29,-0.30,12.29,-0.30,0.33,0.13,1.18,12.63,12.63,12.59
35.62,12.30,-0.27,12.30,-0.27,0.29,0.10,1.12,12.59,12.59,12.57
35.97,12.30,-0.25,12.31,-0.25,0.24,0.07,1.05,12.54,12.54,12.55
36.33,12.32,-0.22,12.32,-0.21,0.18,0.04,0.98,12.50,12.50,12.54
36.70,12.36,-0.17,12.36,-0.16,0.12,0.01,0.91,12.48,12.48,12.52
37.06,12.41,-0.10,12.41,-0.09,0.07,-0.03,0.84,12.48,12.48,12.51
37.43,12.48,-0.01,12.48,-0.01,0.02,-0.05,0.76,12.49,12.49,12.49
37.81,12.53,0.06,12.54,0.07,-0.03,-0.08,0.69,12.50,12.50,12.47
38.19,12.58,0.13,12.57,0.12,-0.07,-0.11,0.61,12.51,12.50,12.45
38.57,12.58,0.15,12.58,0.15,-0.11,-0.14,0.53,12.48,12.47,12.43
38.95,12.56,0.15,12.56,0.15,-0.13,-0.17,0.45,12.43,12.43,12.41
39.34,12.53,0.13,12.53,0.14,-0.15,-0.20,0.37,12.38,12.38,12.40
39.74,12.50,0.13,12.51,0.13,-0.16,-0.23,0.29,12.34,12.35,12.37
40.14,12.50,0.14,12.50,0.15,-0.17,-0.26,0.21,12.32,12.33,12.35
40.54,12.51,0.18,12.51,0.18,-0.19,-0.29,0.12,12.32,12.32,12.33
40.94,12.53,0.22,12.53,0.21,-0.23,-0.32,0.04,12.31,12.31,12.32
41.35,12.56,0.26,12.56,0.26,-0.27,-0.35,-0.05,12.29,12.29,12.30
41.76,12.59,0.31,12.59,0.31,-0.32,-0.38,-0.13,12.27,12.27,12.28
42.18,12.63,0.37,12.63,0.38,-0.38,-0.42,-0.22,12.25,12.26,12.26
42.60,12.67,0.44,12.67,0.44,-0.43,-0.45,-0.30,12.24,12.24,12.23
43.03,12.70,0.51,12.70,0.51,-0.48,-0.48,-0.39,12.23,12.22,12.19
43.46,12.71,0.56,12.71,0.55,-0.52,-0.52,-0.48,12.19,12.19,12.15
43.90,12.71,0.59,12.70,0.59,-0.57,-0.55,-0.57,12.14,12.13,12.12
44.33,12.69,0.61,12.69,0.61,-0.62,-0.59,-0.65,12.07,12.07,12.08
44.78,12.68,0.64,12.69,0.64,-0.68,-0.63,-0.74,12.01,12.01,12.04
45.23,12.70,0.69,12.70,0.70,-0.74,-0.67,-0.83,11.96,11.96,12.01
45.68,12.74,0.77,12.74,0.77,-0.81,-0.71,-0.92,11.93,11.93,11.97
46.13,12.79,0.87,12.79,0.87,-0.88,-0.75,-1.01,11.91,11.91,11.93
46.60,12.85,0.97,12.85,0.97,-0.95,-0.79,-1.10,11.89,11.89,11.88
47.06,12.89,1.05,12.89,1.05,-1.02,-0.84,-1.19,11.86,11.86,11.83
47.53,12.91,1.13,12.91,1.12,-1.08,-0.88,-1.29,11.83,11.82,11.78
48.01,12.91,1.17,12.91,1.17,-1.13,-0.93,-1.38,11.78,11.78,11.74
48.49,12.89,1.19,12.89,1.19,-1.17,-0.98,-1.47,11.72,11.72,11.70
48.97,12.85,1.20,12.85,1.20,-1.19,-1.03,-1.56,11.66,11.66,11.65
49.46,12.81,1.20,12.81,1.20,-1.20,-1.09,-1.65,11.61,11.61,11.61
49.96,12.77,1.20,12.77,1.20,-1.22,-1.15,-1.74,11.55,11.55,11.56
50.46,12.74,1.22,12.74,1.22,-1.24,-1.20,-1.83,11.50,11.50,11.52
50.96,12.73,1.25,12.73,1.25,-1.28,-1.27,-1.92,11.45,11.45,11.47
51.47,12.73,1.30,12.73,1.31,-1.33,-1.33,-2.01,11.39,11.40,11.42
51.99,12.75,1.38,12.75,1.39,-1.41,-1.40,-2.10,11.34,11.34,11.37
52.51,12.80,1.49,12.80,1.49,-1.51,-1.46,-2.19,11.29,11.29,11.31
53.03,12.85,1.60,12.86,1.60,-1.61,-1.53,-2.27,11.24,11.24,11.25
53.56,12.92,1.73,12.92,1.73,-1.73,-1.61,-2.35,11.19,11.19,11.19
54.10,12.98,1.86,12.98,1.86,-1.84,-1.68,-2.43,11.14,11.14,11.13
54.64,13.04,1.98,13.04,1.98,-1.95,-1.76,-2.51,11.09,11.09,11.06
55.18,13.09,2.09,13.08,2.08,-2.05,-1.84,-2.58,11.03,11.03,11.00
55.74,13.11,2.17,13.11,2.17,-2.14,-1.92,-2.65,10.97,10.97,10.94
56.29,13.12,2.23,13.12,2.23,-2.21,-2.01,-2.72,10.91,10.91,10.89
56.86,13.12,2.28,13.11,2.28,-2.27,-2.10,-2.78,10.84,10.84,10.84
57.42,13.10,2.32,13.10,2.32,-2.33,-2.18,-2.84,10.78,10.78,10.79
58.00,13.09,2.35,13.09,2.35,-2.37,-2.27,-2.89,10.71,10.72,10.74
58.58,13.08,2.40,13.08,2.40,-2.42,-2.36,-2.93,10.66,10.67,10.68
59.16,13.08,2.45,13.08,2.45,-2.46,-2.45,-2.97,10.62,10.62,10.63
59.76,13.08,2.51,13.08,2.51,-2.51,-2.54,-3.00,10.58,10.58,10.57
60.35,13.08,2.56,13.08,2.56,-2.56,-2.62,-3.03,10.53,10.53,10.52
60.96,13.08,2.61,13.08,2.61,-2.61,-2.71,-3.04,10.47,10.47,10.46
61.57,13.06,2.66,13.06,2.66,-2.66,-2.79,-3.05,10.41,10.40,10.40
62.18,13.05,2.71,13.05,2.71,-2.71,-2.86,-3.06,10.33,10.33,10.34
62.80,13.03,2.76,13.03,2.76,-2.77,-2.94,-3.05,10.26,10.26,10.27
63.43,13.01,2.81,13.01,2.81,-2.82,-3.00,-3.04,10.20,10.20,10.20
64.07,13.00,2.86,13.00,2.86,-2.87,-3.06,-3.02,10.13,10.13,10.14
64.71,12.99,2.91,12.99,2.91,-2.92,-3.11,-2.99,10.07,10.07,10.07
65.35,12.97,2.96,12.97,2.96,-2.96,-3.15,-2.96,10.01,10.01,10.01
66.01,12.96,3.00,12.96,3.00,-3.00,-3.18,-2.92,9.96,9.95,9.95
66.67,12.93,3.04,12.93,3.04,-3.03,-3.20,-2.87,9.90,9.90,9.90
67.33,12.90,3.06,12.91,3.06,-3.06,-3.21,-2.81,9.85,9.85,9.84
68.01,12.87,3.08,12.87,3.08,-3.07,-3.20,-2.75,9.80,9.80,9.79
68.69,12.82,3.08,12.82,3.08,-3.07,-3.19,-2.69,9.75,9.75,9.74
69.37,12.75,3.07,12.75,3.07,-3.06,-3.16,-2.62,9.69,9.69,9.69
70.07,12.68,3.04,12.68,3.04,-3.04,-3.12,-2.54,9.64,9.63,9.64
70.77,12.59,3.01,12.59,3.01,-3.02,-3.06,-2.46,9.57,9.57,9.58
71.48,12.49,2.97,12.49,2.97,-2.98,-3.00,-2.38,9.51,9.51,9.52
72.19,12.39,2.93,12.39,2.93,-2.94,-2.92,-2.29,9.45,9.45,9.46
72.91,12.29,2.89,12.29,2.89,-2.90,-2.84,-2.20,9.40,9.40,9.40
73.64,12.19,2.84,12.19,2.84,-2.84,-2.74,-2.11,9.34,9.34,9.35
74.38,12.07,2.79,12.07,2.79,-2.78,-2.64,-2.01,9.29,9.29,9.29
75.12,11.95,2.72,11.95,2.72,-2.71,-2.53,-1.91,9.24,9.24,9.23
75.87,11.82,2.64,11.82,2.64,-2.63,-2.42,-1.81,9.18,9.18,9.18
76.63,11.67,2.55,11.67,2.55,-2.54,-2.30,-1.71,9.13,9.13,9.13
77.40,11.52,2.44,11.52,2.44,-2.43,-2.18,-1.61,9.08,9.08,9.07
78.17,11.34,2.32,11.35,2.32,-2.31,-2.05,-1.51,9.03,9.03,9.02
78.95,11.16,2.19,11.16,2.19,-2.18,-1.92,-1.40,8.98,8.98,8.97
79.74,10.97,2.04,10.97,2.04,-2.04,-1.80,-1.30,8.93,8.93,8.92
80.54,10.76,1.88,10.76,1.88,-1.88,-1.67,-1.20,8.88,8.88,8.88
81.35,10.54,1.72,10.54,1.72,-1.72,-1.54,-1.09,8.82,8.82,8.83
82.16,10.33,1.55,10.33,1.55,-1.55,-1.41,-0.98,8.77,8.77,8.77
82.98,10.11,1.38,10.11,1.38,-1.39,-1.28,-0.88,8.72,8.72,8.72
83.81,9.88,1.21,9.88,1.21,-1.22,-1.15,-0.77,8.66,8.66,8.67
84.65,9.66,1.04,9.66,1.05,-1.05,-1.03,-0.67,8.61,8.61,8.62
85.50,9.45,0.88,9.45,0.88,-0.89,-0.90,-0.56,8.56,8.56,8.56
86.35,9.24,0.73,9.24,0.73,-0.73,-0.78,-0.46,8.51,8.51,8.51
87.22,9.03,0.58,9.03,0.57,-0.57,-0.66,-0.35,8.46,8.46,8.45
88.09,8.82,0.42,8.82,0.42,-0.42,-0.54,-0.25,8.40,8.40,8.40
88.97,8.61,0.27,8.61,0.27,-0.26,-0.43,-0.14,8.35,8.35,8.34
89.86,8.40,0.11,8.40,0.11,-0.11,-0.31,-0.04,8.29,8.29,8.29
90.76,8.20,-0.04,8.20,-0.04,0.04,-0.20,0.07,8.24,8.24,8.24
91.66,8.00,-0.19,8.00,-0.19,0.19,-0.09,0.17,8.19,8.19,8.19
92.58,7.80,-0.33,7.80,-0.33,0.34,0.02,0.27,8.14,8.14,8.14
93.51,7.61,-0.47,7.61,-0.47,0.47,0.13,0.38,8.08,8.08,8.08
94.44,7.42,-0.61,7.42,-0.61,0.60,0.23,0.48,8.02,8.02,8.03
95.39,7.24,-0.73,7.24,-0.73,0.72,0.33,0.59,7.96,7.96,7.97
96.34,7.06,-0.84,7.06,-0.84,0.83,0.43,0.69,7.89,7.89,7.91
97.30,6.90,-0.94,6.90,-0.94,0.93,0.53,0.79,7.83,7.83,7.84
98.28,6.75,-1.02,6.75,-1.02,1.02,0.63,0.89,7.78,7.78,7.77
99.26,6.61,-1.10,6.61,-1.10,1.11,0.72,0.99,7.72,7.72,7.71
100.25,6.48,-1.18,6.47,-1.18,1.19,0.82,1.09,7.67,7.67,7.65
101.25,6.34,-1.26,6.34,-1.26,1.27,0.91,1.19,7.62,7.62,7.60
102.27,6.22,-1.34,6.22,-1.34,1.35,1.00,1.29,7.56,7.56,7.56
103.29,6.10,-1.42,6.10,-1.42,1.42,1.09,1.39,7.52,7.52,7.52
104.32,5.99,-1.49,5.99,-1.49,1.48,1.18,1.48,7.47,7.47,7.48
105.37,5.90,-1.55,5.89,-1.55,1.54,1.26,1.58,7.44,7.44,7.44
106.42,5.81,-1.60,5.81,-1.60,1.59,1.35,1.67,7.40,7.40,7.41
107.48,5.72,-1.64,5.72,-1.64,1.64,1.43,1.76,7.36,7.36,7.37
108.56,5.64,-1.68,5.64,-1.68,1.68,1.51,1.84,7.32,7.32,7.32
109.64,5.57,-1.71,5.57,-1.71,1.71,1.59,1.93,7.28,7.28,7.28
110.74,5.49,-1.74,5.49,-1.74,1.74,1.66,2.01,7.23,7.23,7.23
111.85,5.41,-1.77,5.41,-1.77,1.77,1.74,2.09,7.18,7.18,7.18
112.97,5.33,-1.79,5.33,-1.79,1.79,1.81,2.16,7.12,7.12,7.12
114.10,5.25,-1.81,5.25,-1.81,1.81,1.88,2.23,7.07,7.06,7.07
115.24,5.17,-1.84,5.17,-1.84,1.83,1.95,2.29,7.00,7.00,7.01
116.39,5.09,-1.86,5.09,-1.86,1.85,2.01,2.35,6.94,6.94,6.95
117.55,5.01,-1.88,5.02,-1.88,1.88,2.07,2.41,6.89,6.89,6.89
118.73,4.95,-1.91,4.95,-1.90,1.91,2.13,2.46,6.85,6.85,6.85
119.92,4.88,-1.93,4.88,-1.93,1.94,2.19,2.50,6.83,6.82,6.82
121.12,4.82,-1.97,4.82,-1.97,1.99,2.24,2.54,6.81,6.81,6.79
122.33,4.76,-2.01,4.76,-2.02,2.04,2.29,2.57,6.80,6.79,6.78
123.55,4.70,-2.08,4.70,-2.08,2.09,2.34,2.60,6.79,6.79,6.77
124.79,4.63,-2.15,4.63,-2.15,2.15,2.38,2.62,6.78,6.78,6.78
126.03,4.56,-2.22,4.56,-2.22,2.21,2.42,2.63,6.77,6.77,6.78
127.29,4.50,-2.29,4.50,-2.28,2.27,2.46,2.64,6.77,6.77,6.78
128.57,4.43,-2.34,4.43,-2.34,2.33,2.49,2.64,6.76,6.76,6.77
129.85,4.37,-2.38,4.37,-2.39,2.38,2.52,2.64,6.75,6.75,6.75
131.15,4.31,-2.43,4.31,-2.42,2.42,2.54,2.63,6.72,6.73,6.73
132.46,4.25,-2.45,4.25,-2.45,2.45,2.56,2.61,6.70,6.70,6.70
133.79,4.19,-2.47,4.19,-2.47,2.47,2.58,2.59,6.66,6.66,6.66
135.12,4.13,-2.48,4.13,-2.48,2.48,2.59,2.57,6.62,6.62,6.61
136.48,4.07,-2.49,4.07,-2.49,2.49,2.60,2.54,6.57,6.57,6.56
137.84,4.01,-2.50,4.01,-2.50,2.50,2.60,2.50,6.51,6.51,6.51
139.22,3.96,-2.50,3.96,-2.50,2.50,2.60,2.46,6.46,6.46,6.46
140.61,3.91,-2.50,3.91,-2.50,2.50,2.59,2.42,6.41,6.41,6.41
142.02,3.86,-2.50,3.86,-2.50,2.50,2.58,2.38,6.36,6.36,6.36
143.44,3.82,-2.50,3.82,-2.50,2.50,2.57,2.33,6.32,6.32,6.32
144.87,3.78,-2.50,3.79,-2.50,2.49,2.55,2.28,6.27,6.28,6.28
146.32,3.76,-2.48,3.75,-2.48,2.48,2.53,2.23,6.23,6.23,6.24
147.78,3.73,-2.47,3.73,-2.47,2.47,2.50,2.17,6.19,6.19,6.20
149.26,3.70,-2.45,3.70,-2.45,2.45,2.47,2.12,6.16,6.16,6.15
150.75,3.68,-2.43,3.68,-2.43,2.44,2.44,2.06,6.12,6.12,6.12
152.26,3.66,-2.42,3.66,-2.42,2.42,2.40,2.00,6.09,6.09,6.08
153.78,3.64,-2.40,3.64,-2.40,2.41,2.36,1.95,6.06,6.05,6.05
155.32,3.63,-2.39,3.63,-2.39,2.40,2.32,1.89,6.02,6.02,6.02
156.88,3.61,-2.38,3.61,-2.38,2.38,2.28,1.83,5.99,5.99,5.99
158.44,3.60,-2.37,3.60,-2.37,2.37,2.23,1.77,5.97,5.97,5.97
160.03,3.59,-2.36,3.59,-2.36,2.35,2.18,1.71,5.94,5.94,5.94
161.63,3.58,-2.33,3.58,-2.33,2.33,2.12,1.65,5.91,5.91,5.91
163.24,3.58,-2.31,3.58,-2.31,2.30,2.07,1.60,5.88,5.88,5.88
164.88,3.58,-2.27,3.58,-2.27,2.27,2.01,1.54,5.84,5.84,5.85
166.53,3.58,-2.23,3.58,-2.23,2.23,1.96,1.48,5.80,5.80,5.80
168.19,3.58,-2.18,3.58,-2.18,2.18,1.90,1.43,5.76,5.76,5.76
169.87,3.58,-2.13,3.58,-2.13,2.13,1.84,1.37,5.71,5.71,5.71
171.57,3.59,-2.07,3.59,-2.07,2.07,1.77,1.32,5.66,5.66,5.66
173.29,3.60,-2.01,3.60,-2.01,2.01,1.71,1.27,5.61,5.61,5.61
175.02,3.62,-1.95,3.62,-1.94,1.94,1.65,1.21,5.56,5.56,5.56
176.77,3.64,-1.88,3.64,-1.88,1.87,1.58,1.16,5.52,5.52,5.52
178.54,3.67,-1.80,3.67,-1.80,1.80,1.52,1.11,5.47,5.47,5.47
180.32,3.70,-1.73,3.70,-1.73,1.73,1.45,1.06,5.43,5.43,5.43
182.13,3.73,-1.65,3.73,-1.65,1.65,1.39,1.02,5.38,5.38,5.38
183.95,3.76,-1.57,3.76,-1.57,1.57,1.32,0.97,5.34,5.34,5.34
185.79,3.80,-1.49,3.80,-1.49,1.49,1.26,0.92,5.29,5.29,5.29
187.65,3.84,-1.41,3.84,-1.41,1.41,1.19,0.88,5.25,5.25,5.25
189.52,3.88,-1.33,3.88,-1.33,1.33,1.12,0.83,5.22,5.22,5.22
191.42,3.93,-1.25,3.93,-1.25,1.26,1.06,0.79,5.18,5.18,5.18
193.33,3.97,-1.17,3.97,-1.17,1.18,0.99,0.75,5.15,5.15,5.14
195.27,4.02,-1.10,4.01,-1.10,1.10,0.93,0.70,5.12,5.11,5.11
197.22,4.05,-1.02,4.05,-1.02,1.02,0.86,0.66,5.08,5.08,5.08
199.19,4.09,-0.95,4.09,-0.95,0.94,0.80,0.62,5.04,5.04,5.04
201.18,4.13,-0.87,4.13,-0.87,0.86,0.74,0.59,4.99,4.99,5.00
203.19,4.17,-0.79,4.17,-0.79,0.78,0.67,0.55,4.95,4.95,4.96
205.23,4.21,-0.70,4.21,-0.70,0.70,0.61,0.51,4.91,4.91,4.91
207.28,4.26,-0.61,4.26,-0.61,0.61,0.54,0.47,4.87,4.87,4.87
209.35,4.30,-0.52,4.30,-0.52,0.53,0.48,0.44,4.82,4.82,4.82
211.44,4.34,-0.44,4.34,-0.44,0.44,0.42,0.40,4.78,4.78,4.78
213.56,4.38,-0.35,4.38,-0.35,0.35,0.36,0.37,4.73,4.73,4.73
215.69,4.42,-0.26,4.42,-0.26,0.27,0.30,0.33,4.69,4.69,4.69
217.85,4.46,-0.18,4.46,-0.18,0.18,0.24,0.30,4.64,4.64,4.64
220.03,4.50,-0.10,4.50,-0.10,0.10,0.18,0.27,4.60,4.60,4.60
222.23,4.54,-0.02,4.54,-0.02,0.01,0.12,0.23,4.55,4.55,4.55
224.45,4.58,0.07,4.58,0.07,-0.07,0.06,0.20,4.51,4.51,4.51
226.70,4.62,0.15,4.62,0.15,-0.16,0.00,0.17,4.46,4.46,4.47
228.96,4.66,0.24,4.66,0.24,-0.24,-0.05,0.14,4.41,4.41,4.42
231.25,4.69,0.32,4.69,0.33,-0.33,-0.11,0.11,4.37,4.37,4.37
233.57,4.73,0.41,4.73,0.41,-0.41,-0.17,0.09,4.32,4.32,4.32
235.90,4.76,0.50,4.76,0.50,-0.50,-0.22,0.06,4.27,4.27,4.27
238.26,4.79,0.57,4.79,0.58,-0.58,-0.28,0.03,4.22,4.22,4.22
240.64,4.82,0.65,4.82,0.65,-0.65,-0.33,0.00,4.17,4.17,4.17
243.05,4.85,0.72,4.85,0.72,-0.71,-0.39,-0.02,4.14,4.14,4.13
245.48,4.88,0.77,4.88,0.78,-0.77,-0.44,-0.05,4.11,4.11,4.10
247.93,4.90,0.82,4.90,0.82,-0.81,-0.49,-0.07,4.09,4.09,4.08
250.41,4.92,0.86,4.92,0.86,-0.85,-0.54,-0.10,4.08,4.08,4.06
252.92,4.95,0.88,4.95,0.88,-0.87,-0.60,-0.12,4.08,4.08,4.07
255.45,4.97,0.89,4.97,0.89,-0.89,-0.65,-0.15,4.09,4.09,4.08
258.00,5.00,0.90,5.00,0.90,-0.90,-0.70,-0.17,4.10,4.10,4.10
260.58,5.02,0.90,5.02,0.90,-0.91,-0.75,-0.19,4.11,4.11,4.12
263.19,5.03,0.90,5.03,0.91,-0.92,-0.79,-0.22,4.12,4.12,4.13
265.82,5.05,0.92,5.05,0.92,-0.93,-0.84,-0.24,4.12,4.12,4.13
268.48,5.06,0.94,5.06,0.94,-0.95,-0.89,-0.26,4.11,4.11,4.12
271.16,5.08,0.97,5.08,0.97,-0.98,-0.94,-0.28,4.09,4.09,4.10
273.87,5.09,1.01,5.09,1.01,-1.02,-0.98,-0.31,4.07,4.07,4.07
276.61,5.10,1.06,5.10,1.06,-1.06,-1.03,-0.33,4.04,4.04,4.04
279.38,5.11,1.10,5.11,1.10,-1.10,-1.07,-0.35,4.01,4.01,4.00
282.17,5.12,1.15,5.12,1.15,-1.15,-1.12,-0.37,3.97,3.97,3.97
284.99,5.12,1.20,5.12,1.20,-1.19,-1.16,-0.39,3.93,3.93,3.93
287.84,5.13,1.24,5.13,1.25,-1.24,-1.20,-0.42,3.89,3.89,3.89
290.72,5.14,1.29,5.14,1.29,-1.29,-1.24,-0.44,3.85,3.85,3.85
293.63,5.14,1.33,5.14,1.33,-1.33,-1.28,-0.46,3.81,3.81,3.81
296.57,5.14,1.38,5.14,1.38,-1.38,-1.32,-0.48,3.77,3.77,3.77
299.53,5.14,1.42,5.14,1.42,-1.42,-1.36,-0.51,3.73,3.73,3.73
302.53,5.14,1.45,5.14,1.46,-1.45,-1.40,-0.53,3.69,3.69,3.69
305.55,5.14,1.49,5.14,1.49,-1.49,-1.44,-0.55,3.65,3.65,3.65
308.61,5.14,1.53,5.14,1.53,-1.53,-1.47,-0.58,3.61,3.61,3.61
311.69,5.13,1.56,5.13,1.56,-1.56,-1.51,-0.60,3.57,3.57,3.57
314.81,5.13,1.59,5.13,1.59,-1.59,-1.54,-0.63,3.54,3.54,3.54
317.96,5.12,1.62,5.12,1.62,-1.62,-1.58,-0.65,3.50,3.50,3.50
321.14,5.12,1.65,5.12,1.65,-1.65,-1.61,-0.68,3.46,3.46,3.46
324.35,5.11,1.68,5.11,1.68,-1.68,-1.64,-0.71,3.43,3.43,3.43
327.59,5.10,1.71,5.10,1.71,-1.71,-1.67,-0.74,3.39,3.39,3.39
330.87,5.10,1.74,5.10,1.74,-1.74,-1.70,-0.76,3.36,3.36,3.36
334.18,5.09,1.76,5.08,1.76,-1.76,-1.72,-0.79,3.33,3.33,3.33
337.52,5.07,1.78,5.07,1.78,-1.78,-1.75,-0.82,3.29,3.29,3.29
340.90,5.06,1.80,5.06,1.80,-1.80,-1.77,-0.85,3.26,3.26,3.26
344.30,5.04,1.82,5.04,1.82,-1.82,-1.80,-0.89,3.22,3.22,3.22
347.75,5.02,1.83,5.02,1.83,-1.83,-1.82,-0.92,3.19,3.19,3.19
351.23,5.00,1.85,5.00,1.85,-1.85,-1.84,-0.95,3.16,3.16,3.16
354.74,4.98,1.86,4.98,1.86,-1.86,-1.86,-0.99,3.12,3.12,3.12
358.28,4.96,1.87,4.96,1.87,-1.87,-1.88,-1.02,3.09,3.09,3.09
361.87,4.94,1.88,4.94,1.88,-1.88,-1.90,-1.06,3.06,3.06,3.06
365.49,4.91,1.89,4.91,1.89,-1.89,-1.91,-1.09,3.02,3.02,3.03
369.14,4.89,1.89,4.89,1.89,-1.89,-1.92,-1.13,2.99,2.99,2.99
372.83,4.86,1.90,4.86,1.90,-1.90,-1.94,-1.17,2.96,2.96,2.96
376.56,4.84,1.91,4.84,1.91,-1.91,-1.95,-1.21,2.93,2.93,2.93
380.33,4.81,1.91,4.81,1.91,-1.91,-1.96,-1.25,2.90,2.90,2.90
384.13,4.79,1.92,4.79,1.92,-1.92,-1.97,-1.29,2.87,2.87,2.87
387.97,4.76,1.92,4.76,1.92,-1.92,-1.97,-1.33,2.84,2.84,2.84
391.85,4.73,1.93,4.73,1.93,-1.92,-1.98,-1.37,2.81,2.81,2.80
395.77,4.70,1.93,4.70,1.93,-1.93,-1.98,-1.41,2.77,2.77,2.77
399.73,4.67,1.93,4.67,1.93,-1.93,-1.98,-1.45,2.74,2.74,2.74
403.72,4.64,1.92,4.64,1.92,-1.92,-1.98,-1.49,2.71,2.71,2.71
407.76,4.60,1.92,4.60,1.92,-1.92,-1.98,-1.53,2.68,2.68,2.68
411.84,4.57,1.92,4.57,1.92,-1.92,-1.98,-1.58,2.65,2.65,2.65
415.96,4.53,1.91,4.53,1.91,-1.91,-1.98,-1.62,2.62,2.62,2.62
420.12,4.50,1.91,4.50,1.91,-1.91,-1.97,-1.66,2.59,2.59,2.59
424.32,4.46,1.90,4.46,1.90,-1.90,-1.96,-1.70,2.56,2.56,2.56
428.56,4.42,1.89,4.42,1.89,-1.89,-1.95,-1.73,2.53,2.53,2.53
432.85,4.38,1.88,4.38,1.88,-1.88,-1.94,-1.77,2.50,2.50,2.50
437.18,4.34,1.87,4.34,1.87,-1.87,-1.93,-1.81,2.47,2.47,2.47
441.55,4.30,1.86,4.30,1.86,-1.86,-1.92,-1.84,2.44,2.44,2.44
445.96,4.26,1.85,4.26,1.85,-1.85,-1.91,-1.87,2.41,2.41,2.41
450.42,4.22,1.84,4.22,1.84,-1.84,-1.89,-1.90,2.38,2.38,2.38
454.93,4.18,1.83,4.18,1.83,-1.83,-1.88,-1.93,2.35,2.35,2.35
459.48,4.14,1.82,4.14,1.82,-1.82,-1.86,-1.96,2.32,2.32,2.32
464.07,4.10,1.81,4.10,1.81,-1.81,-1.84,-1.98,2.29,2.29,2.29
468.71,4.06,1.80,4.06,1.80,-1.80,-1.82,-2.00,2.26,2.26,2.26
473.40,4.02,1.80,4.02,1.80,-1.79,-1.80,-2.01,2.23,2.23,2.23
478.13,3.98,1.78,3.98,1.78,-1.78,-1.78,-2.02,2.20,2.20,2.20
482.91,3.94,1.77,3.94,1.77,-1.77,-1.75,-2.03,2.17,2.17,2.17
487.74,3.89,1.75,3.89,1.75,-1.75,-1.73,-2.04,2.14,2.14,2.14
492.62,3.84,1.73,3.84,1.73,-1.73,-1.70,-2.04,2.11,2.11,2.11
497.55,3.79,1.71,3.79,1.71,-1.71,-1.68,-2.03,2.08,2.08,2.08
502.52,3.74,1.69,3.74,1.69,-1.69,-1.65,-2.02,2.05,2.05,2.05
