frequency,raw,error,smoothed,error_smoothed,equalization,parametric_eq,fixed_band_eq,equalized_raw,equalized_smoothed,target
20.00,-3.86,-10.79,-3.85,-10.79,6.00,5.96,2.77,2.14,2.15,6.93
20.20,-3.83,-10.76,-3.84,-10.77,6.00,6.00,2.85,2.17,2.16,6.93
20.40,-3.80,-10.73,-3.81,-10.73,6.00,6.05,2.93,2.20,2.19,6.93
20.61,-3.77,-10.69,-3.77,-10.69,6.00,6.05,3.01,2.23,2.23,6.92
20.81,-3.72,-10.64,-3.72,-10.64,6.00,6.05,3.10,2.28,2.28,6.92
21.02,-3.66,-10.57,-3.66,-10.57,6.00,6.04,3.19,2.34,2.34,6.91
21.23,-3.59,-10.50,-3.59,-10.50,6.00,6.02,3.27,2.41,2.41,6.91
21.44,-3.51,-10.42,-3.51,-10.42,6.00,6.01,3.37,2.49,2.49,6.90
21.66,-3.44,-10.34,-3.44,-10.34,6.00,6.00,3.46,2.56,2.56,6.90
21.87,-3.36,-10.26,-3.37,-10.27,6.00,5.99,3.56,2.64,2.63,6.90
22.09,-3.30,-10.20,-3.30,-10.20,6.00,5.98,3.66,2.70,2.70,6.91
22.31,-3.24,-10.15,-3.24,-10.15,6.00,5.98,3.77,2.76,2.76,6.91
22.54,-3.19,-10.10,-3.19,-10.11,6.00,5.98,3.87,2.81,2.81,6.92
22.76,-3.14,-10.06,-3.14,-10.06,6.00,5.98,3.99,2.86,2.86,6.92
22.99,-3.10,-10.02,-3.10,-10.02,6.00,5.98,4.10,2.90,2.90,6.92
23.22,-3.05,-9.96,-3.05,-9.96,6.00,5.99,4.21,2.95,2.95,6.91
23.45,-2.99,-9.90,-2.99,-9.90,6.00,5.99,4.33,3.01,3.01,6.90
23.69,-2.93,-9.82,-2.93,-9.81,6.00,5.99,4.45,3.07,3.07,6.88
23.92,-2.86,-9.72,-2.86,-9.72,6.00,6.00,4.57,3.14,3.14,6.86
24.16,-2.79,-9.63,-2.79,-9.63,6.00,6.00,4.70,3.21,3.21,6.83
24.40,-2.72,-9.53,-2.72,-9.53,6.00,6.00,4.82,3.28,3.28,6.82
24.65,-2.64,-9.45,-2.64,-9.46,6.00,6.00,4.95,3.36,3.36,6.81
24.89,-2.57,-9.39,-2.57,-9.40,6.00,6.00,5.08,3.43,3.43,6.83
25.14,-2.50,-9.36,-2.50,-9.36,6.00,6.00,5.22,3.50,3.50,6.86
25.39,-2.44,-9.34,-2.44,-9.34,6.00,6.00,5.35,3.56,3.56,6.90
25.65,-2.39,-9.33,-2.39,-9.32,6.00,6.00,5.48,3.61,3.61,6.94
25.91,-2.34,-9.30,-2.34,-9.30,6.00,6.00,5.62,3.66,3.66,6.97
26.16,-2.29,-9.27,-2.29,-9.26,6.00,6.00,5.75,3.71,3.71,6.97
26.43,-2.25,-9.20,-2.25,-9.20,6.00,5.99,5.89,3.75,3.75,6.95
26.69,-2.21,-9.11,-2.21,-9.11,6.00,5.99,6.02,3.79,3.79,6.90
26.96,-2.17,-9.02,-2.17,-9.02,6.00,5.99,6.15,3.83,3.83,6.85
27.23,-2.13,-8.93,-2.13,-8.94,6.00,5.99,6.28,3.87,3.87,6.80
27.50,-2.09,-8.87,-2.09,-8.87,6.00,5.99,6.41,3.91,3.91,6.78
27.77,-2.05,-8.82,-2.05,-8.82,6.00,5.98,6.53,3.95,3.95,6.77
28.05,-2.02,-8.79,-2.02,-8.80,6.00,5.98,6.65,3.98,3.98,6.77
28.33,-1.99,-8.77,-1.99,-8.77,6.00,5.98,6.76,4.01,4.01,6.78
28.62,-1.96,-8.73,-1.96,-8.73,6.00,5.98,6.87,4.04,4.04,6.77
28.90,-1.93,-8.68,-1.93,-8.68,6.00,5.98,6.97,4.07,4.07,6.75
29.19,-1.90,-8.61,-1.90,-8.60,6.00,5.98,7.06,4.10,4.10,6.70
29.48,-1.87,-8.52,-1.87,-8.53,6.00,5.98,7.15,4.13,4.13,6.65
29.78,-1.84,-8.46,-1.84,-8.46,6.00,5.98,7.22,4.16,4.16,6.62
30.08,-1.80,-8.40,-1.80,-8.41,6.00,5.99,7.29,4.20,4.20,6.60
30.38,-1.77,-8.37,-1.77,-8.38,6.00,5.99,7.35,4.23,4.23,6.61
30.68,-1.72,-8.36,-1.72,-8.36,6.00,5.99,7.39,4.28,4.28,6.64
30.99,-1.68,-8.34,-1.68,-8.33,6.00,6.00,7.43,4.32,4.32,6.66
31.30,-1.63,-8.29,-1.63,-8.28,6.00,6.00,7.45,4.37,4.37,6.66
31.61,-1.58,-8.21,-1.58,-8.21,6.00,6.00,7.46,4.42,4.42,6.63
31.93,-1.53,-8.11,-1.53,-8.11,6.00,6.01,7.46,4.47,4.47,6.58
32.24,-1.49,-8.01,-1.49,-8.01,6.00,6.01,7.45,4.51,4.51,6.53
32.57,-1.44,-7.92,-1.44,-7.93,6.00,6.02,7.43,4.56,4.56,6.48
32.89,-1.40,-7.86,-1.40,-7.86,6.00,6.02,7.40,4.60,4.60,6.46
33.22,-1.36,-7.82,-1.36,-7.82,6.00,6.02,7.36,4.64,4.64,6.46
33.55,-1.32,-7.78,-1.32,-7.78,6.00,6.03,7.32,4.68,4.68,6.46
33.89,-1.29,-7.74,-1.29,-7.74,6.00,6.03,7.26,4.71,4.71,6.46
34.23,-1.25,-7.70,-1.25,-7.70,6.00,6.04,7.20,4.75,4.75,6.45
34.57,-1.22,-7.65,-1.22,-7.65,6.00,6.04,7.13,4.78,4.78,6.43
34.92,-1.19,-7.59,-1.19,-7.60,6.00,6.05,7.06,4.81,4.81,6.41
35.27,-1.16,-7.55,-1.16,-7.55,6.00,6.05,6.98,4.84,4.84,6.38
35.62,-1.14,-7.51,-1.14,-7.51,6.00,6.05,6.90,4.86,4.86,6.36
35.97,-1.12,-7.47,-1.12,-7.47,6.00,6.06,6.81,4.88,4.88,6.35
36.33,-1.11,-7.44,-1.11,-7.44,6.00,6.06,6.72,4.89,4.89,6.33
36.70,-1.09,-7.40,-1.09,-7.40,6.00,6.06,6.64,4.91,4.91,6.32
37.06,-1.07,-7.37,-1.07,-7.37,6.00,6.06,6.55,4.93,4.93,6.30
37.43,-1.05,-7.33,-1.05,-7.33,6.00,6.06,6.46,4.95,4.95,6.28
37.81,-1.03,-7.29,-1.03,-7.29,6.00,6.06,6.37,4.97,4.97,6.26
38.19,-1.01,-7.24,-1.01,-7.24,6.00,6.06,6.28,4.99,4.99,6.23
38.57,-0.99,-7.19,-0.99,-7.19,6.00,6.06,6.20,5.01,5.01,6.20
38.95,-0.97,-7.13,-0.97,-7.13,6.00,6.06,6.11,5.03,5.03,6.17
39.34,-0.94,-7.08,-0.94,-7.08,6.00,6.06,6.03,5.06,5.06,6.14
39.74,-0.91,-7.02,-0.90,-7.02,6.00,6.05,5.95,5.09,5.10,6.11
40.14,-0.87,-6.96,-0.87,-6.96,6.00,6.05,5.87,5.13,5.13,6.09
40.54,-0.83,-6.90,-0.83,-6.90,6.00,6.04,5.80,5.17,5.17,6.07
40.94,-0.79,-6.85,-0.79,-6.85,6.00,6.04,5.73,5.21,5.21,6.06
41.35,-0.75,-6.80,-0.75,-6.80,6.00,6.03,5.66,5.25,5.25,6.04
41.76,-0.72,-6.75,-0.72,-6.75,6.00,6.02,5.60,5.28,5.28,6.03
42.18,-0.68,-6.69,-0.68,-6.69,6.00,6.01,5.54,5.32,5.32,6.01
42.60,-0.64,-6.62,-0.64,-6.62,6.00,6.00,5.49,5.36,5.36,5.98
43.03,-0.61,-6.56,-0.61,-6.56,6.00,5.99,5.44,5.39,5.39,5.95
43.46,-0.58,-6.50,-0.58,-6.50,6.00,5.98,5.39,5.42,5.42,5.92
43.90,-0.55,-6.45,-0.55,-6.45,6.00,5.96,5.35,5.45,5.45,5.89
44.33,-0.54,-6.41,-0.54,-6.41,6.00,5.95,5.31,5.46,5.46,5.87
44.78,-0.52,-6.37,-0.52,-6.37,6.00,5.93,5.27,5.48,5.48,5.85
45.23,-0.50,-6.32,-0.50,-6.32,6.00,5.92,5.24,5.50,5.50,5.82
45.68,-0.49,-6.26,-0.49,-6.26,6.00,5.90,5.21,5.52,5.52,5.78
46.13,-0.47,-6.20,-0.47,-6.20,6.01,5.88,5.19,5.54,5.54,5.73
46.60,-0.45,-6.14,-0.45,-6.15,6.01,5.86,5.17,5.56,5.56,5.70
47.06,-0.43,-6.10,-0.43,-6.10,6.01,5.84,5.15,5.58,5.58,5.67
47.53,-0.41,-6.07,-0.41,-6.06,6.00,5.82,5.14,5.59,5.59,5.65
48.01,-0.40,-6.03,-0.40,-6.03,5.99,5.79,5.13,5.59,5.59,5.63
48.49,-0.40,-6.00,-0.40,-6.00,5.98,5.77,5.13,5.59,5.59,5.60
48.97,-0.39,-5.96,-0.39,-5.96,5.96,5.74,5.13,5.57,5.57,5.57
49.46,-0.39,-5.93,-0.39,-5.93,5.93,5.72,5.13,5.54,5.54,5.54
49.96,-0.38,-5.90,-0.38,-5.89,5.89,5.69,5.13,5.51,5.52,5.52
50.46,-0.36,-5.85,-0.36,-5.85,5.84,5.66,5.14,5.48,5.48,5.49
50.96,-0.33,-5.79,-0.33,-5.79,5.78,5.63,5.15,5.45,5.45,5.46
51.47,-0.29,-5.73,-0.29,-5.73,5.71,5.60,5.16,5.42,5.42,5.43
51.99,-0.25,-5.65,-0.25,-5.65,5.64,5.57,5.17,5.39,5.39,5.40
52.51,-0.20,-5.57,-0.20,-5.57,5.57,5.54,5.18,5.37,5.37,5.37
53.03,-0.15,-5.49,-0.15,-5.49,5.49,5.50,5.20,5.35,5.35,5.34
53.56,-0.10,-5.41,-0.10,-5.41,5.43,5.47,5.22,5.33,5.33,5.31
54.10,-0.06,-5.34,-0.07,-5.34,5.36,5.43,5.23,5.30,5.30,5.27
54.64,-0.05,-5.28,-0.05,-5.29,5.31,5.40,5.25,5.26,5.26,5.24
55.18,-0.05,-5.25,-0.05,-5.25,5.26,5.36,5.26,5.21,5.21,5.20
55.74,-0.06,-5.23,-0.06,-5.22,5.21,5.32,5.28,5.15,5.16,5.17
56.29,-0.06,-5.20,-0.06,-5.19,5.17,5.28,5.29,5.11,5.12,5.14
56.86,-0.05,-5.15,-0.05,-5.15,5.13,5.24,5.30,5.09,5.09,5.11
57.42,-0.03,-5.10,-0.03,-5.10,5.10,5.20,5.31,5.07,5.07,5.08
58.00,-0.01,-5.05,-0.01,-5.05,5.05,5.16,5.31,5.05,5.05,5.04
58.58,0.01,-5.01,0.01,-5.01,5.01,5.12,5.31,5.02,5.02,5.02
59.16,0.02,-4.97,0.02,-4.96,4.97,5.08,5.31,4.99,4.99,4.99
59.76,0.03,-4.92,0.02,-4.92,4.93,5.03,5.31,4.95,4.95,4.94
60.35,0.03,-4.88,0.03,-4.88,4.89,4.99,5.30,4.91,4.91,4.91
60.96,0.03,-4.84,0.03,-4.84,4.85,4.95,5.28,4.87,4.87,4.87
61.57,0.03,-4.81,0.03,-4.81,4.81,4.90,5.26,4.83,4.83,4.84
62.18,0.03,-4.78,0.03,-4.77,4.76,4.86,5.24,4.79,4.80,4.81
62.80,0.04,-4.73,0.04,-4.73,4.72,4.81,5.21,4.76,4.76,4.77
63.43,0.06,-4.68,0.06,-4.68,4.68,4.77,5.18,4.73,4.73,4.74
64.07,0.07,-4.63,0.07,-4.63,4.63,4.72,5.14,4.70,4.70,4.70
64.71,0.09,-4.58,0.09,-4.58,4.59,4.67,5.09,4.68,4.68,4.67
65.35,0.10,-4.53,0.10,-4.53,4.54,4.63,5.05,4.64,4.64,4.63
66.01,0.11,-4.49,0.11,-4.49,4.50,4.58,4.99,4.61,4.61,4.60
66.67,0.11,-4.45,0.11,-4.45,4.46,4.53,4.94,4.57,4.57,4.57
67.33,0.12,-4.42,0.12,-4.42,4.42,4.48,4.87,4.53,4.53,4.54
68.01,0.12,-4.38,0.12,-4.38,4.37,4.43,4.81,4.50,4.50,4.50
68.69,0.13,-4.34,0.13,-4.34,4.33,4.39,4.74,4.46,4.46,4.47
69.37,0.14,-4.29,0.15,-4.29,4.28,4.34,4.67,4.42,4.42,4.43
70.07,0.16,-4.24,0.16,-4.23,4.23,4.29,4.60,4.39,4.39,4.40
70.77,0.18,-4.17,0.18,-4.18,4.17,4.24,4.52,4.35,4.35,4.35
71.48,0.19,-4.12,0.19,-4.12,4.12,4.19,4.44,4.31,4.31,4.31
72.19,0.20,-4.06,0.20,-4.06,4.07,4.14,4.36,4.27,4.27,4.26
72.91,0.21,-4.01,0.21,-4.01,4.02,4.09,4.28,4.23,4.23,4.22
73.64,0.22,-3.96,0.22,-3.96,3.97,4.04,4.20,4.19,4.19,4.18
74.38,0.22,-3.92,0.22,-3.93,3.93,3.99,4.12,4.15,4.15,4.15
75.12,0.23,-3.89,0.23,-3.89,3.89,3.94,4.04,4.11,4.11,4.12
75.87,0.23,-3.86,0.23,-3.86,3.85,3.89,3.96,4.08,4.08,4.09
76.63,0.24,-3.82,0.24,-3.82,3.81,3.84,3.88,4.05,4.05,4.06
77.40,0.25,-3.77,0.25,-3.77,3.77,3.79,3.80,4.02,4.01,4.02
78.17,0.26,-3.72,0.26,-3.72,3.73,3.74,3.72,3.98,3.98,3.98
78.95,0.26,-3.67,0.26,-3.68,3.68,3.69,3.64,3.95,3.95,3.94
79.74,0.27,-3.64,0.27,-3.64,3.64,3.64,3.57,3.91,3.91,3.90
80.54,0.28,-3.59,0.28,-3.59,3.59,3.59,3.49,3.87,3.87,3.87
81.35,0.28,-3.55,0.28,-3.55,3.55,3.54,3.42,3.83,3.83,3.83
82.16,0.29,-3.50,0.29,-3.50,3.50,3.49,3.35,3.79,3.79,3.80
82.98,0.30,-3.46,0.30,-3.46,3.45,3.45,3.28,3.76,3.76,3.76
83.81,0.31,-3.41,0.31,-3.41,3.41,3.40,3.22,3.72,3.72,3.72
84.65,0.32,-3.35,0.32,-3.36,3.36,3.35,3.15,3.68,3.68,3.67
85.50,0.32,-3.31,0.32,-3.31,3.32,3.30,3.09,3.64,3.64,3.64
86.35,0.32,-3.28,0.32,-3.27,3.28,3.25,3.03,3.60,3.60,3.60
87.22,0.32,-3.24,0.32,-3.24,3.24,3.20,2.97,3.56,3.56,3.56
88.09,0.32,-3.20,0.32,-3.20,3.20,3.15,2.91,3.52,3.52,3.52
88.97,0.32,-3.16,0.32,-3.16,3.16,3.11,2.86,3.48,3.48,3.48
89.86,0.32,-3.12,0.32,-3.12,3.12,3.06,2.81,3.44,3.44,3.44
90.76,0.32,-3.08,0.32,-3.08,3.08,3.01,2.76,3.40,3.40,3.40
91.66,0.33,-3.04,0.32,-3.04,3.04,2.97,2.71,3.37,3.36,3.36
92.58,0.33,-2.99,0.33,-3.00,3.00,2.92,2.66,3.32,3.32,3.32
93.51,0.33,-2.95,0.33,-2.95,2.95,2.87,2.62,3.28,3.28,3.28
94.44,0.33,-2.91,0.33,-2.91,2.90,2.83,2.58,3.23,3.23,3.24
95.39,0.34,-2.86,0.34,-2.86,2.85,2.78,2.54,3.19,3.19,3.20
96.34,0.35,-2.81,0.35,-2.81,2.81,2.73,2.50,3.16,3.16,3.16
97.30,0.37,-2.75,0.37,-2.75,2.76,2.69,2.47,3.13,3.13,3.12
98.28,0.38,-2.70,0.37,-2.70,2.72,2.64,2.43,3.09,3.09,3.08
99.26,0.38,-2.66,0.38,-2.66,2.67,2.60,2.40,3.05,3.05,3.04
100.25,0.37,-2.62,0.37,-2.63,2.63,2.56,2.37,3.00,3.00,3.00
101.25,0.36,-2.60,0.37,-2.59,2.58,2.51,2.34,2.95,2.95,2.96
102.27,0.37,-2.56,0.37,-2.55,2.54,2.47,2.31,2.91,2.91,2.92
103.29,0.37,-2.51,0.37,-2.51,2.50,2.42,2.28,2.88,2.88,2.88
104.32,0.39,-2.46,0.38,-2.46,2.46,2.38,2.26,2.85,2.84,2.84
105.37,0.39,-2.41,0.39,-2.41,2.42,2.34,2.23,2.81,2.81,2.80
106.42,0.40,-2.37,0.40,-2.37,2.37,2.30,2.21,2.77,2.77,2.77
107.48,0.40,-2.33,0.40,-2.33,2.33,2.26,2.19,2.73,2.73,2.73
108.56,0.40,-2.29,0.40,-2.29,2.29,2.21,2.16,2.68,2.69,2.69
109.64,0.40,-2.24,0.40,-2.24,2.24,2.17,2.14,2.64,2.64,2.64
110.74,0.40,-2.20,0.40,-2.20,2.20,2.13,2.12,2.61,2.61,2.60
111.85,0.40,-2.16,0.40,-2.16,2.16,2.09,2.10,2.57,2.57,2.57
112.97,0.40,-2.13,0.40,-2.12,2.12,2.05,2.08,2.53,2.53,2.53
114.10,0.40,-2.09,0.41,-2.09,2.09,2.01,2.06,2.49,2.49,2.49
115.24,0.41,-2.05,0.41,-2.05,2.05,1.97,2.04,2.45,2.45,2.45
116.39,0.41,-2.01,0.41,-2.01,2.01,1.93,2.01,2.42,2.42,2.42
117.55,0.41,-1.97,0.41,-1.97,1.97,1.90,1.99,2.38,2.38,2.38
118.73,0.41,-1.93,0.41,-1.94,1.94,1.86,1.97,2.35,2.35,2.35
119.92,0.41,-1.91,0.41,-1.90,1.90,1.82,1.95,2.31,2.31,2.32
121.12,0.41,-1.87,0.41,-1.87,1.87,1.78,1.92,2.28,2.28,2.28
122.33,0.41,-1.82,0.41,-1.83,1.83,1.75,1.90,2.24,2.24,2.23
123.55,0.41,-1.79,0.41,-1.79,1.80,1.71,1.87,2.21,2.21,2.20
124.79,0.40,-1.76,0.40,-1.76,1.76,1.67,1.84,2.17,2.17,2.17
126.03,0.40,-1.73,0.40,-1.73,1.73,1.64,1.82,2.13,2.13,2.13
127.29,0.40,-1.70,0.40,-1.69,1.69,1.60,1.79,2.09,2.09,2.09
128.57,0.40,-1.66,0.40,-1.65,1.65,1.57,1.76,2.05,2.05,2.06
129.85,0.41,-1.61,0.41,-1.61,1.61,1.53,1.72,2.02,2.01,2.02
131.15,0.41,-1.57,0.41,-1.57,1.57,1.50,1.69,1.98,1.98,1.98
132.46,0.42,-1.52,0.42,-1.52,1.52,1.47,1.66,1.94,1.94,1.94
133.79,0.42,-1.48,0.42,-1.48,1.48,1.43,1.63,1.90,1.90,1.90
135.12,0.43,-1.43,0.43,-1.43,1.44,1.40,1.59,1.87,1.87,1.86
136.48,0.43,-1.39,0.43,-1.39,1.40,1.37,1.55,1.83,1.83,1.82
137.84,0.43,-1.35,0.43,-1.35,1.36,1.33,1.52,1.79,1.79,1.78
139.22,0.42,-1.32,0.42,-1.32,1.33,1.30,1.48,1.75,1.75,1.74
140.61,0.41,-1.29,0.41,-1.29,1.29,1.27,1.44,1.71,1.71,1.71
142.02,0.40,-1.26,0.40,-1.26,1.26,1.24,1.40,1.66,1.66,1.66
143.44,0.40,-1.23,0.40,-1.23,1.23,1.21,1.37,1.62,1.62,1.62
144.87,0.39,-1.20,0.39,-1.20,1.19,1.18,1.33,1.58,1.58,1.59
146.32,0.39,-1.16,0.39,-1.16,1.16,1.15,1.29,1.55,1.55,1.55
147.78,0.39,-1.13,0.39,-1.13,1.12,1.12,1.25,1.51,1.51,1.52
149.26,0.39,-1.09,0.39,-1.08,1.08,1.09,1.21,1.47,1.47,1.48
150.75,0.40,-1.04,0.40,-1.04,1.04,1.06,1.17,1.44,1.44,1.44
152.26,0.40,-1.00,0.40,-1.00,1.00,1.03,1.13,1.40,1.40,1.40
153.78,0.41,-0.96,0.41,-0.96,0.96,1.01,1.09,1.37,1.37,1.37
155.32,0.41,-0.92,0.41,-0.92,0.93,0.98,1.05,1.34,1.34,1.33
156.88,0.40,-0.89,0.40,-0.89,0.90,0.95,1.01,1.31,1.30,1.29
158.44,0.39,-0.87,0.39,-0.87,0.88,0.92,0.97,1.27,1.27,1.26
160.03,0.37,-0.85,0.37,-0.85,0.86,0.90,0.93,1.22,1.22,1.22
161.63,0.34,-0.84,0.34,-0.84,0.83,0.87,0.90,1.18,1.18,1.18
163.24,0.32,-0.83,0.32,-0.82,0.81,0.84,0.86,1.13,1.13,1.14
164.88,0.30,-0.81,0.30,-0.80,0.79,0.82,0.82,1.09,1.09,1.11
166.53,0.30,-0.77,0.30,-0.77,0.76,0.79,0.78,1.06,1.06,1.07
168.19,0.29,-0.74,0.29,-0.74,0.74,0.77,0.75,1.03,1.03,1.03
169.87,0.29,-0.70,0.29,-0.70,0.70,0.74,0.71,1.00,1.00,1.00
171.57,0.29,-0.66,0.29,-0.66,0.67,0.72,0.67,0.96,0.96,0.96
173.29,0.29,-0.63,0.29,-0.63,0.63,0.70,0.64,0.93,0.93,0.92
175.02,0.29,-0.60,0.29,-0.59,0.60,0.67,0.60,0.89,0.89,0.89
176.77,0.29,-0.56,0.29,-0.56,0.56,0.65,0.57,0.86,0.86,0.85
178.54,0.29,-0.53,0.29,-0.53,0.53,0.62,0.53,0.82,0.82,0.82
180.32,0.29,-0.50,0.29,-0.50,0.50,0.60,0.50,0.79,0.79,0.79
182.13,0.28,-0.47,0.28,-0.47,0.47,0.58,0.46,0.76,0.76,0.76
183.95,0.28,-0.45,0.28,-0.45,0.44,0.56,0.43,0.72,0.72,0.72
185.79,0.27,-0.42,0.27,-0.42,0.42,0.53,0.39,0.69,0.69,0.69
187.65,0.27,-0.39,0.27,-0.39,0.39,0.51,0.36,0.66,0.66,0.66
189.52,0.26,-0.36,0.26,-0.36,0.36,0.49,0.33,0.62,0.62,0.62
191.42,0.25,-0.34,0.25,-0.34,0.34,0.47,0.30,0.59,0.59,0.59
193.33,0.24,-0.31,0.24,-0.31,0.31,0.45,0.26,0.56,0.56,0.56
195.27,0.23,-0.28,0.23,-0.29,0.29,0.43,0.23,0.52,0.52,0.52
197.22,0.22,-0.27,0.22,-0.27,0.27,0.40,0.20,0.49,0.49,0.49
199.19,0.21,-0.25,0.21,-0.25,0.25,0.38,0.17,0.46,0.46,0.46
201.18,0.20,-0.23,0.20,-0.23,0.23,0.36,0.14,0.43,0.43,0.43
203.19,0.19,-0.21,0.19,-0.21,0.21,0.34,0.11,0.40,0.40,0.40
205.23,0.18,-0.19,0.18,-0.19,0.19,0.32,0.08,0.37,0.37,0.37
207.28,0.18,-0.17,0.18,-0.17,0.17,0.30,0.05,0.35,0.35,0.35
209.35,0.17,-0.15,0.17,-0.15,0.15,0.28,0.02,0.32,0.32,0.32
211.44,0.16,-0.13,0.16,-0.12,0.13,0.26,-0.01,0.29,0.29,0.29
213.56,0.15,-0.10,0.15,-0.10,0.10,0.24,-0.03,0.26,0.26,0.26
215.69,0.14,-0.08,0.14,-0.08,0.08,0.22,-0.06,0.22,0.23,0.22
217.85,0.13,-0.06,0.13,-0.06,0.06,0.19,-0.09,0.19,0.19,0.19
220.03,0.12,-0.05,0.12,-0.05,0.05,0.17,-0.11,0.16,0.16,0.17
222.23,0.11,-0.03,0.11,-0.03,0.03,0.15,-0.14,0.13,0.13,0.13
224.45,0.09,-0.01,0.09,-0.01,0.01,0.13,-0.16,0.11,0.11,0.10
226.70,0.08,0.01,0.08,0.01,-0.01,0.10,-0.18,0.08,0.08,0.08
228.96,0.07,0.02,0.07,0.02,-0.02,0.08,-0.20,0.05,0.05,0.05
231.25,0.06,0.04,0.06,0.04,-0.04,0.05,-0.22,0.02,0.02,0.02
233.57,0.05,0.05,0.05,0.06,-0.06,0.03,-0.24,-0.00,-0.00,-0.00
235.90,0.04,0.07,0.04,0.07,-0.07,-0.00,-0.26,-0.03,-0.03,-0.03
238.26,0.03,0.09,0.03,0.09,-0.09,-0.03,-0.28,-0.06,-0.06,-0.06
240.64,0.02,0.11,0.02,0.11,-0.11,-0.06,-0.30,-0.08,-0.08,-0.09
243.05,0.01,0.12,0.01,0.12,-0.12,-0.09,-0.31,-0.11,-0.11,-0.11
245.48,-0.00,0.14,-0.00,0.14,-0.14,-0.13,-0.33,-0.14,-0.14,-0.14
247.93,-0.02,0.15,-0.02,0.15,-0.15,-0.17,-0.34,-0.17,-0.17,-0.17
250.41,-0.03,0.17,-0.03,0.17,-0.16,-0.20,-0.35,-0.19,-0.19,-0.19
252.92,-0.04,0.18,-0.04,0.18,-0.18,-0.24,-0.36,-0.22,-0.22,-0.22
255.45,-0.06,0.19,-0.06,0.19,-0.19,-0.27,-0.37,-0.25,-0.25,-0.25
258.00,-0.07,0.20,-0.07,0.20,-0.21,-0.30,-0.38,-0.28,-0.28,-0.27
260.58,-0.08,0.22,-0.08,0.22,-0.22,-0.33,-0.39,-0.30,-0.30,-0.30
263.19,-0.10,0.23,-0.10,0.23,-0.23,-0.34,-0.39,-0.33,-0.33,-0.33
265.82,-0.11,0.25,-0.11,0.25,-0.25,-0.35,-0.40,-0.36,-0.36,-0.36
268.48,-0.12,0.27,-0.12,0.27,-0.27,-0.35,-0.40,-0.38,-0.38,-0.39
271.16,-0.13,0.28,-0.13,0.28,-0.28,-0.35,-0.40,-0.41,-0.41,-0.41
273.87,-0.14,0.30,-0.14,0.30,-0.30,-0.34,-0.41,-0.44,-0.44,-0.44
276.61,-0.15,0.31,-0.15,0.31,-0.31,-0.33,-0.41,-0.47,-0.47,-0.47
279.38,-0.17,0.33,-0.17,0.33,-0.33,-0.31,-0.41,-0.50,-0.50,-0.49
282.17,-0.18,0.34,-0.18,0.34,-0.34,-0.30,-0.41,-0.52,-0.52,-0.52
284.99,-0.20,0.36,-0.20,0.35,-0.35,-0.29,-0.41,-0.55,-0.55,-0.55
287.84,-0.22,0.36,-0.22,0.36,-0.35,-0.28,-0.40,-0.57,-0.57,-0.58
290.72,-0.23,0.36,-0.23,0.36,-0.36,-0.27,-0.40,-0.59,-0.59,-0.60
293.63,-0.25,0.36,-0.25,0.36,-0.36,-0.27,-0.40,-0.61,-0.61,-0.61
296.57,-0.27,0.35,-0.27,0.35,-0.36,-0.27,-0.40,-0.63,-0.63,-0.63
299.53,-0.29,0.35,-0.29,0.35,-0.35,-0.26,-0.40,-0.65,-0.64,-0.64
302.53,-0.30,0.35,-0.30,0.35,-0.35,-0.26,-0.39,-0.66,-0.66,-0.65
305.55,-0.32,0.35,-0.32,0.35,-0.35,-0.26,-0.39,-0.67,-0.67,-0.67
308.61,-0.33,0.35,-0.33,0.35,-0.36,-0.27,-0.39,-0.68,-0.68,-0.68
311.69,-0.34,0.36,-0.34,0.36,-0.36,-0.27,-0.39,-0.70,-0.70,-0.69
314.81,-0.35,0.36,-0.35,0.36,-0.36,-0.27,-0.38,-0.71,-0.71,-0.71
317.96,-0.36,0.37,-0.36,0.37,-0.36,-0.27,-0.38,-0.73,-0.73,-0.73
321.14,-0.38,0.37,-0.38,0.37,-0.36,-0.28,-0.38,-0.74,-0.74,-0.75
324.35,-0.40,0.37,-0.41,0.36,-0.36,-0.28,-0.37,-0.77,-0.77,-0.77
327.59,-0.43,0.36,-0.43,0.36,-0.36,-0.29,-0.37,-0.79,-0.79,-0.79
330.87,-0.46,0.35,-0.46,0.35,-0.36,-0.29,-0.37,-0.81,-0.81,-0.81
334.18,-0.48,0.35,-0.48,0.35,-0.35,-0.30,-0.37,-0.84,-0.84,-0.83
337.52,-0.50,0.35,-0.50,0.35,-0.35,-0.30,-0.37,-0.86,-0.86,-0.85
340.90,-0.52,0.35,-0.52,0.35,-0.35,-0.31,-0.37,-0.88,-0.88,-0.87
344.30,-0.54,0.35,-0.54,0.35,-0.35,-0.31,-0.36,-0.90,-0.90,-0.89
347.75,-0.56,0.36,-0.56,0.36,-0.36,-0.32,-0.36,-0.91,-0.91,-0.91
351.23,-0.57,0.36,-0.57,0.36,-0.36,-0.33,-0.36,-0.93,-0.93,-0.93
354.74,-0.58,0.37,-0.58,0.37,-0.36,-0.33,-0.36,-0.95,-0.95,-0.95
358.28,-0.60,0.37,-0.60,0.37,-0.37,-0.34,-0.36,-0.97,-0.97,-0.97
361.87,-0.61,0.37,-0.61,0.37,-0.38,-0.34,-0.36,-0.99,-0.99,-0.98
365.49,-0.62,0.38,-0.62,0.38,-0.38,-0.35,-0.36,-1.00,-1.00,-1.00
369.14,-0.63,0.38,-0.63,0.38,-0.39,-0.36,-0.36,-1.02,-1.02,-1.02
372.83,-0.64,0.39,-0.64,0.39,-0.39,-0.36,-0.37,-1.03,-1.03,-1.03
376.56,-0.65,0.40,-0.65,0.40,-0.40,-0.37,-0.37,-1.05,-1.05,-1.05
380.33,-0.66,0.41,-0.66,0.41,-0.40,-0.37,-0.37,-1.06,-1.06,-1.07
384.13,-0.67,0.41,-0.67,0.41,-0.41,-0.38,-0.37,-1.08,-1.08,-1.08
387.97,-0.69,0.41,-0.69,0.41,-0.41,-0.39,-0.37,-1.10,-1.10,-1.10
391.85,-0.70,0.42,-0.70,0.42,-0.42,-0.39,-0.38,-1.12,-1.12,-1.12
395.77,-0.72,0.42,-0.72,0.42,-0.42,-0.40,-0.38,-1.13,-1.13,-1.13
399.73,-0.73,0.42,-0.73,0.42,-0.42,-0.40,-0.38,-1.15,-1.15,-1.15
403.72,-0.75,0.42,-0.75,0.42,-0.42,-0.41,-0.39,-1.17,-1.17,-1.17
407.76,-0.76,0.42,-0.76,0.42,-0.42,-0.41,-0.39,-1.18,-1.18,-1.18
411.84,-0.78,0.42,-0.78,0.42,-0.42,-0.42,-0.40,-1.19,-1.20,-1.19
415.96,-0.79,0.42,-0.79,0.42,-0.42,-0.43,-0.40,-1.21,-1.21,-1.21
420.12,-0.81,0.42,-0.81,0.42,-0.42,-0.43,-0.40,-1.23,-1.23,-1.23
424.32,-0.83,0.42,-0.83,0.42,-0.42,-0.44,-0.41,-1.24,-1.24,-1.24
428.56,-0.84,0.42,-0.84,0.42,-0.42,-0.44,-0.41,-1.26,-1.26,-1.26
432.85,-0.86,0.42,-0.86,0.42,-0.42,-0.45,-0.42,-1.28,-1.28,-1.28
437.18,-0.87,0.42,-0.87,0.42,-0.42,-0.45,-0.42,-1.30,-1.30,-1.30
441.55,-0.89,0.43,-0.89,0.43,-0.43,-0.46,-0.43,-1.32,-1.32,-1.32
445.96,-0.90,0.43,-0.90,0.43,-0.43,-0.46,-0.43,-1.33,-1.33,-1.34
450.42,-0.92,0.43,-0.92,0.43,-0.43,-0.47,-0.44,-1.35,-1.35,-1.35
454.93,-0.93,0.44,-0.93,0.44,-0.43,-0.47,-0.44,-1.37,-1.37,-1.37
459.48,-0.95,0.44,-0.95,0.44,-0.44,-0.48,-0.45,-1.38,-1.38,-1.39
464.07,-0.97,0.44,-0.97,0.44,-0.44,-0.48,-0.45,-1.40,-1.40,-1.40
468.71,-0.98,0.43,-0.98,0.44,-0.44,-0.49,-0.45,-1.42,-1.42,-1.42
473.40,-1.00,0.43,-1.00,0.43,-0.44,-0.49,-0.46,-1.44,-1.43,-1.43
478.13,-1.02,0.43,-1.02,0.43,-0.43,-0.50,-0.46,-1.45,-1.45,-1.45
482.91,-1.03,0.43,-1.03,0.43,-0.43,-0.50,-0.47,-1.46,-1.46,-1.46
487.74,-1.04,0.43,-1.05,0.43,-0.43,-0.51,-0.47,-1.47,-1.47,-1.48
492.62,-1.06,0.43,-1.06,0.43,-0.43,-0.51,-0.47,-1.49,-1.49,-1.49
497.55,-1.08,0.42,-1.08,0.43,-0.42,-0.52,-0.48,-1.50,-1.50,-1.50
502.52,-1.09,0.42,-1.09,0.42,-0.42,-0.52,-0.48,-1.51,-1.51,-1.51
507.55,-1.11,0.42,-1.11,0.42,-0.42,-0.53,-0.48,-1.53,-1.53,-1.53
512.62,-1.12,0.41,-1.12,0.41,-0.42,-0.53,-0.49,-1.54,-1.54,-1.54
