frequency,raw,error,smoothed,error_smoothed,equalization,parametric_eq,fixed_band_eq,equalized_raw,equalized_smoothed,target
20.00,3.35,-9.45,3.35,-9.44,6.00,5.85,2.68,9.35,9.35,12.80
20.20,3.40,-9.42,3.40,-9.42,6.00,5.91,2.76,9.40,9.40,12.82
20.40,3.43,-9.41,3.44,-9.42,6.00,5.96,2.84,9.43,9.44,12.85
20.61,3.47,-9.41,3.46,-9.42,6.00,5.98,2.92,9.47,9.46,12.88
20.81,3.49,-9.43,3.49,-9.43,6.00,6.00,3.00,9.49,9.49,12.91
21.02,3.50,-9.45,3.50,-9.45,6.00,5.99,3.09,9.50,9.50,12.95
21.23,3.50,-9.47,3.50,-9.47,6.00,5.97,3.17,9.50,9.50,12.97
21.44,3.50,-9.49,3.50,-9.49,6.00,5.94,3.26,9.50,9.50,12.99
21.66,3.50,-9.50,3.50,-9.50,6.00,5.91,3.35,9.50,9.50,13.00
21.87,3.50,-9.51,3.51,-9.51,6.00,5.88,3.45,9.50,9.51,13.01
22.09,3.51,-9.51,3.51,-9.50,6.00,5.85,3.55,9.51,9.51,13.02
22.31,3.52,-9.50,3.52,-9.50,6.00,5.83,3.65,9.52,9.52,13.02
22.54,3.53,-9.48,3.54,-9.48,6.00,5.81,3.75,9.53,9.54,13.02
22.76,3.56,-9.47,3.56,-9.47,6.00,5.80,3.86,9.56,9.56,13.02
22.99,3.58,-9.45,3.58,-9.45,6.00,5.79,3.97,9.58,9.58,13.03
23.22,3.61,-9.43,3.61,-9.43,6.00,5.79,4.08,9.61,9.61,13.04
23.45,3.63,-9.41,3.63,-9.41,6.00,5.78,4.19,9.63,9.63,13.05
23.69,3.66,-9.39,3.66,-9.39,6.00,5.78,4.31,9.66,9.66,13.05
23.92,3.68,-9.38,3.68,-9.38,6.00,5.78,4.42,9.68,9.68,13.06
24.16,3.70,-9.36,3.70,-9.36,6.00,5.79,4.55,9.70,9.70,13.06
24.40,3.71,-9.35,3.71,-9.35,6.00,5.80,4.67,9.71,9.71,13.07
24.65,3.72,-9.34,3.72,-9.34,6.00,5.80,4.79,9.72,9.72,13.07
24.89,3.73,-9.33,3.73,-9.33,6.00,5.81,4.92,9.73,9.73,13.06
25.14,3.74,-9.32,3.74,-9.32,6.00,5.82,5.05,9.74,9.74,13.06
25.39,3.75,-9.31,3.75,-9.31,6.00,5.83,5.17,9.75,9.75,13.05
25.65,3.75,-9.29,3.75,-9.29,6.00,5.84,5.30,9.75,9.75,13.04
25.91,3.76,-9.26,3.76,-9.26,6.00,5.86,5.43,9.76,9.76,13.03
26.16,3.77,-9.24,3.77,-9.24,6.00,5.87,5.56,9.77,9.77,13.01
26.43,3.78,-9.21,3.78,-9.21,6.00,5.88,5.69,9.78,9.78,12.99
26.69,3.80,-9.19,3.80,-9.19,6.00,5.89,5.82,9.80,9.80,12.98
26.96,3.81,-9.17,3.81,-9.17,6.00,5.91,5.95,9.81,9.81,12.97
27.23,3.82,-9.15,3.82,-9.15,6.00,5.92,6.07,9.82,9.82,12.97
27.50,3.83,-9.14,3.83,-9.14,6.00,5.93,6.20,9.83,9.83,12.97
27.77,3.84,-9.13,3.84,-9.13,6.00,5.94,6.32,9.84,9.84,12.97
28.05,3.85,-9.12,3.85,-9.12,6.00,5.96,6.43,9.85,9.85,12.97
28.33,3.86,-9.10,3.86,-9.10,6.00,5.97,6.54,9.86,9.86,12.96
28.62,3.87,-9.08,3.87,-9.08,6.00,5.98,6.65,9.87,9.87,12.95
28.90,3.87,-9.06,3.87,-9.06,6.00,6.00,6.74,9.87,9.87,12.93
29.19,3.88,-9.03,3.88,-9.04,6.00,6.01,6.84,9.88,9.88,12.92
29.48,3.89,-9.02,3.89,-9.02,6.00,6.02,6.92,9.89,9.89,12.91
29.78,3.90,-9.01,3.90,-9.01,6.00,6.03,7.00,9.90,9.90,12.91
30.08,3.91,-9.00,3.91,-9.00,6.00,6.04,7.06,9.91,9.91,12.91
30.38,3.91,-8.99,3.91,-8.99,6.00,6.06,7.13,9.91,9.91,12.91
30.68,3.92,-8.98,3.92,-8.98,6.00,6.07,7.17,9.92,9.92,12.90
30.99,3.93,-8.97,3.93,-8.97,6.00,6.08,7.21,9.93,9.93,12.89
31.30,3.93,-8.95,3.93,-8.95,6.00,6.09,7.24,9.93,9.93,12.88
31.61,3.94,-8.94,3.94,-8.94,6.00,6.10,7.26,9.94,9.94,12.87
31.93,3.94,-8.92,3.94,-8.92,6.00,6.11,7.27,9.94,9.94,12.87
32.24,3.95,-8.91,3.95,-8.91,6.00,6.12,7.27,9.95,9.95,12.86
32.57,3.96,-8.89,3.96,-8.89,6.00,6.13,7.26,9.96,9.96,12.85
32.89,3.97,-8.87,3.97,-8.87,6.00,6.14,7.24,9.97,9.97,12.84
33.22,3.98,-8.84,3.98,-8.84,6.00,6.15,7.21,9.98,9.98,12.82
33.55,3.99,-8.82,3.99,-8.82,6.00,6.16,7.18,9.99,9.99,12.81
33.89,4.00,-8.80,4.00,-8.80,6.00,6.17,7.14,10.00,10.00,12.80
34.23,4.01,-8.79,4.01,-8.79,6.00,6.17,7.09,10.01,10.01,12.80
34.57,4.02,-8.79,4.02,-8.79,6.00,6.18,7.03,10.02,10.02,12.81
34.92,4.02,-8.79,4.02,-8.79,6.00,6.19,6.98,10.02,10.02,12.81
35.27,4.03,-8.78,4.03,-8.78,6.00,6.20,6.91,10.03,10.03,12.81
35.62,4.03,-8.77,4.03,-8.77,6.00,6.20,6.85,10.03,10.03,12.80
35.97,4.04,-8.74,4.04,-8.74,6.00,6.21,6.78,10.04,10.04,12.78
36.33,4.05,-8.70,4.05,-8.70,6.00,6.22,6.71,10.05,10.05,12.75
36.70,4.06,-8.67,4.06,-8.67,6.00,6.22,6.64,10.06,10.06,12.73
37.06,4.07,-8.64,4.07,-8.64,6.00,6.23,6.57,10.07,10.07,12.71
37.43,4.08,-8.62,4.08,-8.62,6.00,6.23,6.50,10.08,10.08,12.70
37.81,4.09,-8.60,4.09,-8.60,6.00,6.24,6.43,10.09,10.09,12.69
38.19,4.10,-8.58,4.10,-8.58,6.00,6.24,6.36,10.10,10.10,12.68
38.57,4.10,-8.56,4.10,-8.56,6.00,6.25,6.29,10.10,10.10,12.66
38.95,4.11,-8.53,4.11,-8.53,6.00,6.25,6.23,10.11,10.11,12.64
39.34,4.11,-8.51,4.11,-8.51,6.00,6.26,6.17,10.11,10.11,12.62
39.74,4.11,-8.49,4.11,-8.49,6.00,6.26,6.11,10.11,10.11,12.60
40.14,4.11,-8.47,4.11,-8.47,6.00,6.26,6.05,10.11,10.11,12.59
40.54,4.11,-8.46,4.11,-8.46,6.00,6.26,6.00,10.11,10.11,12.58
40.94,4.11,-8.46,4.11,-8.46,6.00,6.27,5.95,10.11,10.11,12.57
41.35,4.11,-8.45,4.11,-8.45,6.00,6.27,5.90,10.11,10.11,12.56
41.76,4.11,-8.43,4.11,-8.43,6.00,6.27,5.86,10.11,10.11,12.54
42.18,4.11,-8.41,4.11,-8.41,6.00,6.27,5.82,10.11,10.11,12.52
42.60,4.11,-8.38,4.11,-8.38,6.00,6.27,5.79,10.11,10.11,12.49
43.03,4.12,-8.35,4.12,-8.35,6.00,6.27,5.76,10.12,10.12,12.47
43.46,4.13,-8.32,4.13,-8.32,6.00,6.27,5.73,10.13,10.13,12.45
43.90,4.14,-8.30,4.14,-8.30,6.00,6.27,5.71,10.14,10.14,12.44
44.33,4.15,-8.28,4.15,-8.28,6.00,6.27,5.69,10.15,10.15,12.43
44.78,4.16,-8.25,4.16,-8.25,6.00,6.27,5.68,10.16,10.16,12.40
45.23,4.17,-8.21,4.17,-8.21,6.00,6.27,5.67,10.17,10.17,12.37
45.68,4.17,-8.17,4.17,-8.17,6.00,6.27,5.66,10.17,10.17,12.34
46.13,4.18,-8.13,4.18,-8.13,6.00,6.27,5.66,10.18,10.18,12.31
46.60,4.19,-8.11,4.19,-8.11,6.00,6.27,5.67,10.19,10.19,12.29
47.06,4.19,-8.09,4.19,-8.08,6.00,6.26,5.68,10.19,10.19,12.28
47.53,4.20,-8.06,4.20,-8.06,6.00,6.26,5.69,10.20,10.20,12.27
48.01,4.21,-8.03,4.21,-8.03,6.00,6.26,5.70,10.21,10.21,12.24
48.49,4.22,-7.99,4.22,-7.99,6.00,6.25,5.72,10.22,10.22,12.21
48.97,4.22,-7.97,4.22,-7.97,6.00,6.25,5.74,10.22,10.22,12.19
49.46,4.22,-7.95,4.22,-7.95,6.00,6.25,5.77,10.22,10.22,12.16
49.96,4.20,-7.94,4.20,-7.94,6.00,6.24,5.80,10.20,10.20,12.14
50.46,4.18,-7.94,4.18,-7.94,6.00,6.24,5.83,10.18,10.18,12.12
50.96,4.15,-7.94,4.15,-7.94,6.00,6.23,5.87,10.15,10.15,12.09
51.47,4.13,-7.94,4.13,-7.94,6.00,6.23,5.90,10.13,10.13,12.07
51.99,4.10,-7.94,4.10,-7.94,6.00,6.22,5.94,10.10,10.10,12.04
52.51,4.07,-7.95,4.07,-7.95,6.00,6.21,5.98,10.07,10.07,12.02
53.03,4.04,-7.96,4.03,-7.96,6.00,6.21,6.02,10.04,10.03,11.99
53.56,3.98,-7.98,3.98,-7.99,6.00,6.20,6.06,9.98,9.98,11.96
54.10,3.92,-8.01,3.91,-8.02,6.00,6.19,6.10,9.92,9.91,11.93
54.64,3.86,-8.04,3.86,-8.04,6.00,6.18,6.15,9.86,9.86,11.90
55.18,3.83,-8.05,3.85,-8.04,6.00,6.18,6.19,9.83,9.85,11.88
55.74,3.87,-7.99,3.87,-7.99,6.00,6.17,6.23,9.87,9.87,11.86
56.29,3.93,-7.91,3.93,-7.90,6.00,6.16,6.26,9.93,9.93,11.83
56.86,4.00,-7.80,4.00,-7.80,6.00,6.15,6.30,10.00,10.00,11.80
57.42,4.07,-7.70,4.07,-7.70,6.00,6.14,6.33,10.07,10.07,11.77
58.00,4.13,-7.61,4.12,-7.61,6.00,6.13,6.36,10.13,10.12,11.73
58.58,4.17,-7.54,4.17,-7.54,6.00,6.12,6.39,10.17,10.17,11.71
59.16,4.20,-7.48,4.20,-7.48,6.00,6.11,6.41,10.20,10.20,11.68
59.76,4.22,-7.43,4.22,-7.43,6.00,6.10,6.42,10.22,10.22,11.65
60.35,4.23,-7.38,4.23,-7.38,6.00,6.09,6.43,10.23,10.23,11.61
60.96,4.24,-7.34,4.24,-7.34,6.00,6.08,6.44,10.24,10.24,11.58
61.57,4.23,-7.30,4.23,-7.30,6.00,6.06,6.44,10.23,10.23,11.53
62.18,4.23,-7.27,4.23,-7.28,6.00,6.05,6.43,10.23,10.23,11.50
62.80,4.22,-7.26,4.22,-7.25,6.00,6.04,6.42,10.22,10.22,11.48
63.43,4.21,-7.23,4.21,-7.23,6.00,6.03,6.40,10.21,10.21,11.44
64.07,4.20,-7.20,4.20,-7.21,6.00,6.01,6.38,10.20,10.20,11.40
64.71,4.20,-7.18,4.20,-7.17,6.00,6.00,6.35,10.20,10.20,11.38
65.35,4.20,-7.14,4.20,-7.14,6.00,5.99,6.32,10.20,10.20,11.34
66.01,4.20,-7.09,4.20,-7.10,6.00,5.97,6.28,10.20,10.20,11.29
66.67,4.20,-7.06,4.20,-7.06,6.00,5.96,6.23,10.20,10.20,11.27
67.33,4.21,-7.03,4.21,-7.02,6.00,5.94,6.18,10.21,10.21,11.23
68.01,4.21,-6.98,4.21,-6.97,6.00,5.93,6.13,10.21,10.21,11.20
68.69,4.22,-6.92,4.22,-6.93,6.00,5.91,6.08,10.22,10.22,11.14
69.37,4.23,-6.88,4.23,-6.88,6.00,5.89,6.02,10.23,10.23,11.11
70.07,4.23,-6.87,4.23,-6.84,6.00,5.88,5.95,10.23,10.23,11.10
70.77,4.23,-6.78,4.23,-6.80,6.00,5.86,5.89,10.23,10.23,11.00
71.48,4.22,-6.76,4.22,-6.77,6.00,5.84,5.82,10.22,10.22,10.98
72.19,4.21,-6.76,4.21,-6.73,6.00,5.83,5.76,10.21,10.21,10.97
72.91,4.20,-6.70,4.20,-6.72,6.00,5.81,5.69,10.20,10.20,10.90
73.64,4.19,-6.68,4.19,-6.70,6.00,5.79,5.62,10.19,10.19,10.87
74.38,4.18,-6.68,4.18,-6.66,6.00,5.77,5.55,10.18,10.18,10.85
75.12,4.17,-6.65,4.18,-6.61,6.00,5.75,5.49,10.17,10.18,10.83
75.87,4.17,-6.54,4.17,-6.58,6.00,5.74,5.42,10.17,10.17,10.71
76.63,4.17,-6.53,4.17,-6.56,6.00,5.72,5.36,10.17,10.17,10.70
77.40,4.17,-6.59,4.17,-6.53,6.00,5.70,5.29,10.17,10.17,10.76
78.17,4.17,-6.52,4.17,-6.53,6.00,5.68,5.23,10.17,10.17,10.69
78.95,4.16,-6.45,4.16,-6.50,6.00,5.66,5.18,10.16,10.16,10.61
79.74,4.16,-6.47,4.16,-6.42,6.00,5.63,5.12,10.16,10.16,10.63
80.54,4.15,-6.38,4.15,-6.37,6.00,5.61,5.07,10.15,10.15,10.53
81.35,4.14,-6.27,4.14,-6.33,6.00,5.59,5.02,10.14,10.14,10.41
82.16,4.14,-6.30,4.14,-6.28,6.00,5.57,4.97,10.14,10.14,10.44
82.98,4.13,-6.27,4.13,-6.25,6.00,5.55,4.93,10.13,10.13,10.40
83.81,4.13,-6.20,4.13,-6.22,6.00,5.53,4.88,10.13,10.13,10.33
84.65,4.13,-6.17,4.13,-6.18,6.01,5.50,4.85,10.13,10.13,10.30
85.50,4.13,-6.14,4.13,-6.12,6.01,5.48,4.81,10.13,10.13,10.26
86.35,4.13,-6.09,4.13,-6.08,6.00,5.46,4.78,10.13,10.13,10.21
87.22,4.12,-6.01,4.12,-6.03,5.99,5.43,4.76,10.12,10.12,10.13
88.09,4.12,-5.99,4.12,-6.00,5.98,5.41,4.73,10.10,10.10,10.11
88.97,4.11,-5.98,4.11,-5.97,5.96,5.39,4.71,10.07,10.07,10.09
89.86,4.10,-5.95,4.10,-5.94,5.94,5.36,4.70,10.04,10.04,10.05
90.76,4.09,-5.88,4.09,-5.90,5.91,5.34,4.68,9.99,9.99,9.97
91.66,4.08,-5.85,4.08,-5.86,5.87,5.31,4.67,9.95,9.95,9.93
92.58,4.08,-5.85,4.08,-5.82,5.82,5.29,4.67,9.90,9.90,9.93
93.51,4.09,-5.78,4.09,-5.77,5.77,5.26,4.67,9.85,9.85,9.86
94.44,4.10,-5.70,4.10,-5.71,5.70,5.24,4.67,9.80,9.80,9.80
95.39,4.12,-5.63,4.11,-5.65,5.64,5.21,4.67,9.76,9.75,9.75
96.34,4.13,-5.60,4.13,-5.58,5.57,5.18,4.68,9.71,9.71,9.73
97.30,4.15,-5.52,4.15,-5.50,5.50,5.16,4.69,9.66,9.66,9.67
98.28,4.18,-5.41,4.18,-5.42,5.43,5.13,4.70,9.61,9.61,9.59
99.26,4.21,-5.33,4.21,-5.35,5.37,5.10,4.72,9.57,9.57,9.54
100.25,4.23,-5.30,4.22,-5.30,5.31,5.07,4.73,9.53,9.53,9.53
101.25,4.23,-5.28,4.22,-5.25,5.25,5.05,4.75,9.48,9.48,9.51
102.27,4.20,-5.20,4.20,-5.21,5.21,5.02,4.77,9.41,9.41,9.40
103.29,4.17,-5.13,4.17,-5.17,5.18,4.99,4.80,9.34,9.34,9.30
104.32,4.12,-5.17,4.12,-5.13,5.15,4.96,4.82,9.27,9.27,9.29
105.37,4.08,-5.12,4.08,-5.12,5.13,4.93,4.85,9.21,9.21,9.20
106.42,4.05,-5.09,4.05,-5.11,5.11,4.90,4.87,9.16,9.16,9.14
107.48,4.03,-5.10,4.03,-5.09,5.09,4.88,4.90,9.12,9.12,9.13
108.56,4.02,-5.07,4.02,-5.07,5.06,4.85,4.92,9.08,9.08,9.09
109.64,4.02,-5.04,4.02,-5.04,5.02,4.82,4.95,9.04,9.04,9.06
110.74,4.02,-5.00,4.02,-4.99,4.97,4.79,4.97,8.99,8.99,9.02
111.85,4.02,-4.94,4.02,-4.95,4.92,4.76,5.00,8.93,8.93,8.95
112.97,4.01,-4.88,4.01,-4.88,4.86,4.73,5.02,8.87,8.87,8.89
114.10,4.01,-4.81,4.00,-4.80,4.80,4.70,5.04,8.80,8.80,8.82
115.24,3.99,-4.70,3.99,-4.72,4.75,4.67,5.05,8.74,8.74,8.69
116.39,3.98,-4.65,3.98,-4.65,4.70,4.63,5.07,8.68,8.68,8.63
117.55,3.96,-4.61,3.96,-4.62,4.66,4.60,5.08,8.62,8.62,8.58
118.73,3.95,-4.62,3.95,-4.62,4.63,4.57,5.09,8.58,8.58,8.57
119.92,3.93,-4.63,3.93,-4.62,4.60,4.54,5.09,8.54,8.54,8.56
121.12,3.92,-4.62,3.92,-4.63,4.59,4.51,5.09,8.51,8.51,8.54
122.33,3.91,-4.60,3.91,-4.59,4.58,4.48,5.08,8.48,8.49,8.51
123.55,3.90,-4.59,3.90,-4.55,4.56,4.45,5.07,8.46,8.46,8.49
124.79,3.90,-4.47,3.90,-4.52,4.53,4.41,5.05,8.43,8.43,8.36
126.03,3.89,-4.50,3.89,-4.50,4.50,4.38,5.03,8.39,8.39,8.39
127.29,3.88,-4.50,3.88,-4.47,4.45,4.35,5.00,8.33,8.33,8.38
128.57,3.88,-4.43,3.88,-4.43,4.40,4.32,4.97,8.27,8.27,8.31
129.85,3.87,-4.35,3.87,-4.36,4.34,4.28,4.93,8.21,8.21,8.22
131.15,3.86,-4.27,3.86,-4.28,4.29,4.25,4.89,8.15,8.15,8.13
132.46,3.86,-4.22,3.86,-4.22,4.23,4.22,4.85,8.09,8.09,8.08
133.79,3.86,-4.16,3.86,-4.16,4.18,4.19,4.80,8.04,8.04,8.02
135.12,3.85,-4.12,3.85,-4.12,4.13,4.15,4.74,7.99,7.99,7.97
136.48,3.85,-4.08,3.85,-4.08,4.09,4.12,4.69,7.94,7.94,7.93
137.84,3.84,-4.04,3.84,-4.05,4.06,4.09,4.63,7.90,7.90,7.89
139.22,3.83,-4.03,3.83,-4.03,4.02,4.05,4.57,7.85,7.85,7.86
140.61,3.81,-4.01,3.81,-4.00,3.99,4.02,4.50,7.80,7.80,7.81
142.02,3.78,-3.97,3.79,-3.97,3.95,3.99,4.43,7.73,7.74,7.76
143.44,3.76,-3.93,3.76,-3.93,3.91,3.95,4.37,7.67,7.67,7.69
144.87,3.74,-3.87,3.74,-3.87,3.86,3.92,4.30,7.60,7.60,7.62
146.32,3.72,-3.81,3.72,-3.81,3.81,3.89,4.23,7.53,7.53,7.53
147.78,3.71,-3.74,3.71,-3.74,3.76,3.85,4.15,7.47,7.47,7.45
149.26,3.69,-3.69,3.69,-3.69,3.70,3.82,4.08,7.40,7.40,7.38
150.75,3.68,-3.64,3.68,-3.64,3.65,3.79,4.01,7.33,7.33,7.32
152.26,3.66,-3.60,3.66,-3.60,3.61,3.75,3.94,7.27,7.27,7.27
153.78,3.65,-3.57,3.65,-3.56,3.56,3.72,3.87,7.21,7.21,7.21
155.32,3.63,-3.53,3.63,-3.52,3.52,3.68,3.80,7.16,7.16,7.16
156.88,3.61,-3.48,3.61,-3.49,3.49,3.65,3.73,7.10,7.10,7.10
158.44,3.59,-3.45,3.59,-3.45,3.45,3.62,3.67,7.04,7.04,7.05
160.03,3.58,-3.43,3.58,-3.41,3.41,3.58,3.60,6.98,6.98,7.00
161.63,3.56,-3.37,3.56,-3.38,3.37,3.55,3.54,6.92,6.92,6.93
163.24,3.54,-3.32,3.54,-3.33,3.32,3.51,3.48,6.87,6.87,6.87
164.88,3.53,-3.30,3.53,-3.28,3.28,3.48,3.42,6.81,6.81,6.83
166.53,3.52,-3.23,3.52,-3.23,3.24,3.45,3.36,6.76,6.76,6.75
168.19,3.51,-3.18,3.51,-3.19,3.20,3.41,3.31,6.71,6.71,6.68
169.87,3.49,-3.15,3.49,-3.15,3.16,3.38,3.25,6.66,6.66,6.64
171.57,3.48,-3.14,3.48,-3.13,3.13,3.35,3.20,6.60,6.60,6.61
173.29,3.46,-3.11,3.46,-3.10,3.09,3.31,3.15,6.55,6.55,6.57
175.02,3.44,-3.06,3.44,-3.07,3.06,3.28,3.11,6.50,6.50,6.50
176.77,3.42,-3.03,3.42,-3.02,3.02,3.25,3.06,6.44,6.44,6.46
178.54,3.40,-2.99,3.40,-2.98,2.98,3.21,3.02,6.39,6.39,6.39
180.32,3.38,-2.93,3.38,-2.95,2.94,3.18,2.98,6.33,6.33,6.31
182.13,3.36,-2.92,3.36,-2.90,2.90,3.15,2.95,6.26,6.26,6.28
183.95,3.34,-2.87,3.34,-2.86,2.86,3.11,2.91,6.20,6.20,6.21
185.79,3.33,-2.81,3.32,-2.82,2.82,3.08,2.88,6.14,6.14,6.13
187.65,3.31,-2.76,3.31,-2.77,2.78,3.05,2.85,6.08,6.08,6.07
189.52,3.28,-2.73,3.29,-2.73,2.74,3.01,2.82,6.02,6.02,6.02
191.42,3.26,-2.70,3.26,-2.70,2.69,2.98,2.79,5.96,5.96,5.96
193.33,3.24,-2.67,3.24,-2.67,2.66,2.95,2.77,5.90,5.90,5.91
195.27,3.22,-2.64,3.22,-2.63,2.62,2.91,2.75,5.85,5.85,5.87
197.22,3.20,-2.59,3.20,-2.59,2.59,2.88,2.73,5.79,5.79,5.79
199.19,3.18,-2.54,3.18,-2.55,2.56,2.85,2.71,5.74,5.74,5.72
201.18,3.16,-2.51,3.16,-2.52,2.53,2.82,2.69,5.69,5.69,5.67
203.19,3.13,-2.51,3.13,-2.50,2.50,2.79,2.67,5.63,5.63,5.63
205.23,3.09,-2.50,3.10,-2.49,2.48,2.75,2.66,5.57,5.57,5.59
207.28,3.07,-2.47,3.07,-2.47,2.45,2.72,2.64,5.52,5.52,5.53
209.35,3.04,-2.43,3.04,-2.44,2.43,2.69,2.63,5.47,5.47,5.47
211.44,3.02,-2.41,3.02,-2.40,2.41,2.66,2.62,5.43,5.43,5.43
213.56,3.00,-2.37,3.00,-2.38,2.38,2.63,2.61,5.38,5.38,5.37
215.69,2.98,-2.35,2.98,-2.36,2.36,2.60,2.60,5.33,5.33,5.33
217.85,2.95,-2.34,2.95,-2.34,2.34,2.57,2.59,5.29,5.29,5.29
220.03,2.93,-2.32,2.93,-2.31,2.31,2.54,2.58,5.24,5.24,5.25
222.23,2.90,-2.28,2.90,-2.28,2.29,2.50,2.57,5.18,5.19,5.18
224.45,2.87,-2.25,2.87,-2.26,2.26,2.47,2.56,5.13,5.13,5.12
226.70,2.84,-2.24,2.84,-2.24,2.24,2.44,2.55,5.08,5.08,5.08
228.96,2.81,-2.23,2.81,-2.22,2.21,2.41,2.54,5.02,5.02,5.04
231.25,2.78,-2.20,2.78,-2.19,2.18,2.38,2.53,4.97,4.97,4.99
233.57,2.76,-2.15,2.76,-2.16,2.16,2.35,2.52,4.92,4.92,4.91
235.90,2.73,-2.11,2.73,-2.12,2.14,2.33,2.51,4.87,4.87,4.83
238.26,2.70,-2.10,2.70,-2.10,2.12,2.30,2.49,4.82,4.82,4.80
240.64,2.67,-2.10,2.67,-2.10,2.09,2.27,2.48,4.77,4.77,4.77
243.05,2.64,-2.10,2.64,-2.09,2.08,2.24,2.46,4.72,4.71,4.74
245.48,2.61,-2.06,2.61,-2.06,2.06,2.21,2.44,4.67,4.67,4.67
247.93,2.57,-2.03,2.57,-2.04,2.05,2.18,2.42,4.62,4.62,4.61
250.41,2.54,-2.02,2.54,-2.03,2.03,2.15,2.40,4.57,4.57,4.56
252.92,2.50,-2.03,2.50,-2.01,2.02,2.13,2.38,4.51,4.51,4.52
255.45,2.46,-2.01,2.46,-2.00,2.00,2.10,2.36,4.45,4.45,4.46
258.00,2.42,-1.97,2.42,-1.99,1.98,2.07,2.33,4.39,4.39,4.39
260.58,2.38,-1.98,2.38,-1.98,1.96,2.04,2.30,4.34,4.34,4.36
263.19,2.34,-1.97,2.34,-1.95,1.95,2.02,2.27,4.28,4.28,4.31
265.82,2.29,-1.93,2.29,-1.93,1.94,1.99,2.24,4.23,4.23,4.23
268.48,2.24,-1.88,2.24,-1.91,1.94,1.96,2.21,4.18,4.18,4.13
271.16,2.19,-1.91,2.19,-1.92,1.94,1.94,2.18,4.13,4.13,4.11
273.87,2.14,-1.96,2.14,-1.94,1.95,1.91,2.15,4.09,4.09,4.09
276.61,2.08,-1.99,2.08,-1.97,1.97,1.89,2.11,4.04,4.04,4.06
279.38,2.01,-1.97,2.01,-1.99,1.99,1.86,2.08,4.00,4.00,3.98
282.17,1.94,-2.00,1.94,-2.01,2.01,1.84,2.04,3.95,3.95,3.94
284.99,1.86,-2.05,1.86,-2.04,2.04,1.81,2.00,3.90,3.90,3.92
287.84,1.79,-2.06,1.79,-2.06,2.06,1.79,1.96,3.85,3.85,3.85
290.72,1.72,-2.06,1.72,-2.05,2.07,1.76,1.93,3.78,3.78,3.78
293.63,1.65,-2.03,1.65,-2.05,2.06,1.74,1.89,3.72,3.72,3.68
296.57,1.61,-2.04,1.61,-2.06,2.04,1.72,1.85,3.65,3.65,3.65
299.53,1.58,-2.09,1.59,-2.05,2.00,1.69,1.81,3.59,3.59,3.67
302.53,1.59,-2.01,1.59,-1.99,1.95,1.67,1.78,3.54,3.54,3.60
305.55,1.62,-1.88,1.62,-1.90,1.88,1.65,1.74,3.50,3.50,3.50
308.61,1.66,-1.78,1.66,-1.79,1.81,1.62,1.70,3.47,3.47,3.44
311.69,1.71,-1.71,1.70,-1.70,1.73,1.60,1.66,3.43,3.43,3.42
314.81,1.75,-1.63,1.75,-1.62,1.64,1.58,1.63,3.39,3.39,3.38
317.96,1.78,-1.55,1.78,-1.55,1.56,1.56,1.59,3.34,3.34,3.33
321.14,1.80,-1.47,1.80,-1.47,1.49,1.54,1.56,3.29,3.29,3.27
324.35,1.81,-1.41,1.81,-1.41,1.42,1.51,1.52,3.24,3.24,3.22
327.59,1.81,-1.37,1.81,-1.37,1.38,1.49,1.49,3.19,3.19,3.18
330.87,1.80,-1.34,1.80,-1.34,1.34,1.47,1.46,3.14,3.14,3.14
334.18,1.79,-1.31,1.79,-1.31,1.30,1.45,1.43,3.09,3.09,3.10
337.52,1.77,-1.28,1.77,-1.28,1.27,1.43,1.39,3.04,3.04,3.05
340.90,1.75,-1.25,1.75,-1.25,1.25,1.41,1.36,3.00,3.00,3.00
344.30,1.72,-1.23,1.72,-1.23,1.23,1.39,1.34,2.95,2.95,2.95
347.75,1.69,-1.22,1.69,-1.21,1.21,1.37,1.31,2.91,2.91,2.91
351.23,1.67,-1.20,1.67,-1.20,1.20,1.35,1.28,2.86,2.86,2.86
354.74,1.64,-1.18,1.64,-1.18,1.18,1.34,1.25,2.82,2.82,2.82
358.28,1.60,-1.16,1.60,-1.17,1.17,1.32,1.23,2.78,2.78,2.77
361.87,1.57,-1.16,1.57,-1.16,1.16,1.30,1.20,2.73,2.73,2.73
365.49,1.54,-1.17,1.54,-1.16,1.15,1.28,1.18,2.69,2.69,2.70
369.14,1.50,-1.15,1.50,-1.15,1.15,1.26,1.16,2.65,2.65,2.65
372.83,1.46,-1.14,1.46,-1.14,1.14,1.25,1.13,2.60,2.60,2.60
376.56,1.43,-1.13,1.43,-1.13,1.13,1.23,1.11,2.55,2.55,2.56
380.33,1.39,-1.12,1.39,-1.12,1.12,1.21,1.09,2.51,2.51,2.51
384.13,1.35,-1.11,1.35,-1.11,1.11,1.20,1.07,2.46,2.46,2.46
387.97,1.32,-1.10,1.32,-1.10,1.10,1.18,1.05,2.41,2.41,2.42
391.85,1.28,-1.09,1.28,-1.09,1.09,1.16,1.04,2.37,2.37,2.37
395.77,1.25,-1.07,1.25,-1.08,1.08,1.15,1.02,2.33,2.33,2.32
399.73,1.21,-1.07,1.21,-1.07,1.08,1.13,1.00,2.29,2.29,2.28
403.72,1.17,-1.07,1.17,-1.07,1.07,1.12,0.99,2.24,2.24,2.24
407.76,1.13,-1.07,1.13,-1.07,1.07,1.10,0.97,2.20,2.20,2.20
411.84,1.10,-1.07,1.10,-1.07,1.06,1.09,0.96,2.16,2.16,2.17
415.96,1.06,-1.06,1.06,-1.06,1.06,1.08,0.95,2.12,2.12,2.12
420.12,1.02,-1.06,1.02,-1.06,1.06,1.06,0.93,2.08,2.08,2.08
424.32,0.98,-1.06,0.98,-1.05,1.05,1.05,0.92,2.04,2.04,2.04
428.56,0.95,-1.05,0.95,-1.05,1.05,1.03,0.91,2.00,2.00,1.99
432.85,0.91,-1.04,0.91,-1.04,1.05,1.02,0.90,1.96,1.96,1.95
437.18,0.88,-1.04,0.88,-1.04,1.04,1.01,0.89,1.92,1.92,1.92
441.55,0.84,-1.04,0.84,-1.04,1.03,1.00,0.88,1.88,1.88,1.88
445.96,0.81,-1.03,0.81,-1.03,1.03,0.98,0.87,1.84,1.84,1.84
450.42,0.77,-1.02,0.77,-1.02,1.03,0.97,0.86,1.80,1.80,1.80
454.93,0.74,-1.01,0.74,-1.02,1.02,0.96,0.85,1.76,1.76,1.76
459.48,0.71,-1.02,0.71,-1.01,1.02,0.95,0.84,1.72,1.72,1.72
464.07,0.67,-1.02,0.67,-1.01,1.01,0.94,0.83,1.69,1.69,1.69
468.71,0.64,-1.01,0.64,-1.01,1.01,0.93,0.83,1.65,1.65,1.65
473.40,0.60,-1.01,0.60,-1.01,1.01,0.92,0.82,1.61,1.61,1.61
478.13,0.57,-1.01,0.57,-1.01,1.01,0.91,0.81,1.58,1.58,1.57
482.91,0.53,-1.00,0.53,-1.01,1.01,0.90,0.81,1.54,1.54,1.54
487.74,0.50,-1.01,0.50,-1.00,1.01,0.89,0.80,1.50,1.50,1.51
492.62,0.47,-1.00,0.47,-1.00,1.00,0.88,0.79,1.47,1.47,1.47
497.55,0.43,-1.00,0.43,-1.00,1.00,0.87,0.79,1.44,1.44,1.44
502.52,0.40,-1.00,0.40,-1.00,1.00,0.86,0.78,1.40,1.40,1.40
507.55,0.37,-0.99,0.37,-1.00,1.00,0.86,0.78,1.37,1.37,1.36
512.62,0.34,-1.00,0.34,-1.00,0.99,0.85,0.77,1.33,1.33,1.34
517.75,0.31,-1.00,0.31,-0.99,0.99,0.84,0.77,1.30,1.30,1.31
522.93,0.28,-0.98,0.28,-0.99,1.00,0.83,0.77,1.27,1.27,1.26
528.16,0.25,-0.99,0.25,-0.99,1.00,0.83,0.76,1.25,1.25,1.23
533.44,0.22,-0.99,0.22,-1.00,1.00,0.82,0.76,1.22,1.22,1.21
538.77,0.19,-1.01,0.19,-1.01,1.01,0.81,0.75,1.20,1.20,1.20
544.16,0.16,-1.02,0.16,-1.01,1.01,0.81,0.75,1.17,1.17,1.18
