frequency,raw,error,smoothed,error_smoothed,equalization,parametric_eq,fixed_band_eq,equalized_raw,equalized_smoothed,target
20.00,5.38,-5.45,5.39,-5.44,5.45,5.32,1.98,10.83,10.83,10.84
20.20,5.40,-5.39,5.40,-5.39,5.40,5.35,2.04,10.80,10.80,10.79
20.40,5.42,-5.32,5.41,-5.34,5.35,5.38,2.10,10.77,10.76,10.74
20.61,5.43,-5.30,5.44,-5.29,5.30,5.36,2.16,10.73,10.74,10.74
20.81,5.48,-5.26,5.48,-5.26,5.25,5.33,2.22,10.73,10.72,10.74
21.02,5.52,-5.21,5.52,-5.22,5.20,5.27,2.29,10.72,10.72,10.74
21.23,5.57,-5.17,5.57,-5.17,5.14,5.21,2.35,10.71,10.71,10.74
21.44,5.62,-5.12,5.62,-5.11,5.09,5.16,2.42,10.71,10.71,10.74
21.66,5.66,-5.05,5.66,-5.04,5.03,5.10,2.49,10.69,10.69,10.72
21.87,5.71,-4.94,5.71,-4.96,4.97,5.05,2.57,10.67,10.67,10.65
22.09,5.75,-4.89,5.75,-4.89,4.91,5.01,2.64,10.66,10.66,10.64
22.31,5.79,-4.84,5.79,-4.84,4.85,4.98,2.72,10.64,10.64,10.64
22.54,5.84,-4.80,5.84,-4.80,4.80,4.94,2.80,10.64,10.64,10.64
22.76,5.88,-4.76,5.88,-4.75,4.76,4.92,2.88,10.64,10.64,10.64
22.99,5.92,-4.71,5.92,-4.72,4.73,4.90,2.96,10.65,10.65,10.64
23.22,5.97,-4.68,5.97,-4.70,4.71,4.87,3.05,10.67,10.67,10.64
23.45,6.01,-4.71,6.01,-4.69,4.69,4.85,3.13,10.70,10.70,10.72
23.69,6.05,-4.69,6.04,-4.70,4.69,4.83,3.22,10.73,10.73,10.74
23.92,6.08,-4.69,6.08,-4.70,4.69,4.81,3.31,10.77,10.77,10.77
24.16,6.12,-4.71,6.12,-4.69,4.69,4.78,3.40,10.81,10.81,10.83
24.40,6.15,-4.69,6.15,-4.69,4.70,4.75,3.49,10.85,10.85,10.84
24.65,6.18,-4.69,6.18,-4.71,4.72,4.72,3.59,10.90,10.90,10.87
24.89,6.21,-4.73,6.21,-4.73,4.74,4.69,3.68,10.95,10.95,10.94
25.14,6.24,-4.76,6.24,-4.75,4.75,4.66,3.78,10.99,10.99,11.00
25.39,6.27,-4.77,6.27,-4.76,4.76,4.63,3.88,11.03,11.03,11.04
25.65,6.30,-4.75,6.30,-4.77,4.76,4.60,3.98,11.06,11.06,11.05
25.91,6.33,-4.78,6.33,-4.78,4.75,4.58,4.07,11.09,11.09,11.11
26.16,6.36,-4.77,6.36,-4.76,4.73,4.56,4.17,11.10,11.10,11.14
26.43,6.40,-4.74,6.39,-4.72,4.70,4.54,4.27,11.09,11.09,11.13
26.69,6.43,-4.64,6.43,-4.66,4.65,4.53,4.36,11.08,11.08,11.06
26.96,6.45,-4.58,6.45,-4.59,4.60,4.52,4.46,11.05,11.05,11.04
27.23,6.48,-4.54,6.48,-4.51,4.53,4.50,4.55,11.01,11.01,11.03
27.50,6.51,-4.42,6.51,-4.46,4.46,4.49,4.64,10.97,10.97,10.94
27.77,6.54,-4.39,6.54,-4.39,4.39,4.47,4.72,10.93,10.93,10.94
28.05,6.58,-4.35,6.58,-4.32,4.32,4.45,4.80,10.90,10.90,10.92
28.33,6.61,-4.24,6.61,-4.26,4.26,4.42,4.88,10.87,10.87,10.85
28.62,6.64,-4.19,6.64,-4.20,4.21,4.39,4.96,10.85,10.85,10.84
28.90,6.67,-4.16,6.67,-4.16,4.17,4.36,5.02,10.84,10.84,10.84
29.19,6.71,-4.13,6.71,-4.13,4.14,4.33,5.09,10.85,10.85,10.84
29.48,6.73,-4.10,6.73,-4.10,4.12,4.29,5.14,10.85,10.85,10.84
29.78,6.76,-4.08,6.76,-4.08,4.10,4.25,5.19,10.86,10.86,10.84
30.08,6.79,-4.06,6.79,-4.08,4.08,4.21,5.23,10.87,10.87,10.85
30.38,6.81,-4.10,6.81,-4.09,4.07,4.17,5.27,10.88,10.88,10.91
30.68,6.84,-4.10,6.84,-4.09,4.05,4.12,5.29,10.88,10.88,10.94
30.99,6.86,-4.06,6.86,-4.05,4.03,4.08,5.31,10.88,10.88,10.92
31.30,6.88,-3.98,6.88,-3.99,3.99,4.04,5.32,10.87,10.87,10.86
31.61,6.90,-3.93,6.90,-3.95,3.96,3.99,5.32,10.86,10.86,10.84
31.93,6.93,-3.91,6.93,-3.91,3.91,3.95,5.32,10.84,10.84,10.84
32.24,6.95,-3.89,6.95,-3.87,3.86,3.91,5.30,10.81,10.81,10.84
32.57,6.97,-3.82,6.97,-3.82,3.82,3.87,5.28,10.79,10.79,10.78
32.89,6.99,-3.75,6.99,-3.77,3.78,3.83,5.25,10.77,10.77,10.74
33.22,7.01,-3.73,7.01,-3.73,3.75,3.79,5.22,10.75,10.75,10.74
33.55,7.02,-3.71,7.02,-3.71,3.72,3.75,5.17,10.74,10.74,10.74
33.89,7.04,-3.69,7.04,-3.69,3.69,3.71,5.12,10.73,10.73,10.74
34.23,7.06,-3.67,7.06,-3.67,3.66,3.68,5.07,10.73,10.73,10.74
34.57,7.08,-3.66,7.08,-3.66,3.64,3.65,5.01,10.72,10.72,10.74
34.92,7.10,-3.64,7.10,-3.64,3.63,3.61,4.95,10.73,10.73,10.74
35.27,7.12,-3.62,7.12,-3.62,3.62,3.59,4.88,10.74,10.74,10.74
35.62,7.13,-3.60,7.13,-3.60,3.62,3.56,4.81,10.75,10.75,10.74
35.97,7.15,-3.59,7.15,-3.59,3.62,3.53,4.74,10.77,10.77,10.74
36.33,7.17,-3.59,7.17,-3.61,3.62,3.51,4.66,10.79,10.79,10.76
36.70,7.18,-3.64,7.18,-3.62,3.62,3.49,4.58,10.80,10.80,10.82
37.06,7.20,-3.64,7.20,-3.63,3.62,3.47,4.50,10.82,10.82,10.84
37.43,7.21,-3.63,7.21,-3.63,3.61,3.45,4.42,10.82,10.82,10.84
37.81,7.22,-3.61,7.22,-3.62,3.60,3.43,4.35,10.82,10.82,10.84
38.19,7.24,-3.60,7.24,-3.59,3.58,3.42,4.27,10.81,10.81,10.84
38.57,7.25,-3.56,7.25,-3.55,3.54,3.40,4.19,10.79,10.79,10.81
38.95,7.26,-3.48,7.26,-3.51,3.50,3.39,4.11,10.76,10.76,10.74
39.34,7.27,-3.46,7.27,-3.45,3.45,3.38,4.03,10.72,10.72,10.74
39.74,7.29,-3.41,7.29,-3.40,3.40,3.37,3.96,10.69,10.69,10.70
40.14,7.30,-3.34,7.30,-3.36,3.36,3.37,3.88,10.65,10.65,10.64
40.54,7.31,-3.33,7.31,-3.31,3.32,3.36,3.81,10.63,10.63,10.64
40.94,7.32,-3.28,7.32,-3.27,3.30,3.35,3.74,10.61,10.62,10.60
41.35,7.32,-3.22,7.32,-3.26,3.29,3.35,3.67,10.62,10.62,10.55
41.76,7.33,-3.28,7.33,-3.26,3.30,3.34,3.60,10.63,10.63,10.61
42.18,7.34,-3.30,7.34,-3.29,3.31,3.34,3.54,10.65,10.65,10.64
42.60,7.35,-3.31,7.35,-3.33,3.32,3.33,3.48,10.66,10.66,10.65
43.03,7.35,-3.37,7.35,-3.35,3.33,3.33,3.42,10.68,10.68,10.73
43.46,7.36,-3.38,7.36,-3.38,3.33,3.32,3.36,10.69,10.69,10.74
43.90,7.37,-3.37,7.37,-3.37,3.33,3.31,3.30,10.70,10.70,10.74
44.33,7.38,-3.36,7.38,-3.34,3.33,3.30,3.25,10.70,10.70,10.74
44.78,7.38,-3.29,7.38,-3.30,3.32,3.29,3.20,10.70,10.70,10.67
45.23,7.39,-3.25,7.39,-3.26,3.30,3.28,3.16,10.69,10.69,10.64
45.68,7.39,-3.25,7.39,-3.24,3.28,3.27,3.11,10.67,10.67,10.64
46.13,7.39,-3.24,7.39,-3.24,3.25,3.26,3.07,10.65,10.65,10.64
46.60,7.39,-3.24,7.40,-3.25,3.23,3.24,3.03,10.63,10.63,10.64
47.06,7.40,-3.24,7.40,-3.24,3.21,3.22,2.99,10.61,10.61,10.64
47.53,7.40,-3.24,7.40,-3.22,3.20,3.20,2.96,10.60,10.60,10.64
48.01,7.40,-3.19,7.40,-3.19,3.18,3.18,2.92,10.59,10.59,10.59
48.49,7.41,-3.13,7.41,-3.15,3.17,3.15,2.89,10.58,10.58,10.54
48.97,7.41,-3.13,7.41,-3.13,3.16,3.13,2.86,10.57,10.57,10.54
49.46,7.41,-3.13,7.41,-3.12,3.15,3.10,2.84,10.56,10.56,10.54
49.96,7.41,-3.13,7.41,-3.13,3.14,3.07,2.81,10.54,10.54,10.54
50.46,7.41,-3.13,7.41,-3.13,3.12,3.04,2.79,10.53,10.53,10.54
50.96,7.41,-3.13,7.41,-3.12,3.10,3.02,2.77,10.51,10.51,10.54
51.47,7.41,-3.10,7.41,-3.09,3.08,2.98,2.75,10.48,10.48,10.51
51.99,7.41,-3.03,7.41,-3.07,3.04,2.95,2.73,10.44,10.44,10.44
52.51,7.40,-3.03,7.40,-3.01,2.98,2.92,2.72,10.39,10.39,10.44
53.03,7.40,-2.97,7.40,-2.94,2.92,2.89,2.70,10.32,10.32,10.37
53.56,7.39,-2.84,7.39,-2.87,2.86,2.86,2.69,10.25,10.25,10.23
54.10,7.39,-2.77,7.39,-2.77,2.80,2.83,2.67,10.19,10.19,10.16
54.64,7.38,-2.71,7.38,-2.71,2.75,2.80,2.66,10.13,10.13,10.09
55.18,7.38,-2.66,7.38,-2.68,2.71,2.77,2.65,10.09,10.09,10.04
55.74,7.37,-2.66,7.37,-2.66,2.68,2.74,2.64,10.06,10.06,10.04
56.29,7.37,-2.67,7.37,-2.66,2.67,2.71,2.62,10.04,10.04,10.04
56.86,7.37,-2.67,7.37,-2.67,2.67,2.68,2.61,10.04,10.04,10.04
57.42,7.36,-2.68,7.36,-2.68,2.67,2.66,2.60,10.03,10.03,10.04
58.00,7.35,-2.68,7.35,-2.69,2.68,2.63,2.59,10.03,10.03,10.04
58.58,7.35,-2.69,7.35,-2.69,2.67,2.60,2.58,10.02,10.02,10.04
59.16,7.34,-2.70,7.34,-2.68,2.65,2.58,2.56,9.99,9.99,10.04
59.76,7.33,-2.64,7.33,-2.65,2.61,2.55,2.55,9.94,9.94,9.97
60.35,7.32,-2.59,7.32,-2.59,2.57,2.53,2.54,9.89,9.89,9.91
60.96,7.31,-2.53,7.31,-2.52,2.52,2.51,2.52,9.84,9.84,9.84
61.57,7.30,-2.46,7.30,-2.46,2.48,2.49,2.51,9.78,9.78,9.77
62.18,7.29,-2.40,7.29,-2.40,2.43,2.47,2.49,9.73,9.73,9.69
62.80,7.28,-2.35,7.28,-2.37,2.40,2.45,2.47,9.68,9.68,9.64
63.43,7.28,-2.36,7.28,-2.36,2.37,2.43,2.45,9.65,9.65,9.64
64.07,7.27,-2.37,7.27,-2.37,2.37,2.41,2.43,9.63,9.63,9.64
64.71,7.26,-2.38,7.26,-2.38,2.38,2.39,2.41,9.63,9.63,9.64
65.35,7.24,-2.39,7.24,-2.39,2.40,2.37,2.39,9.65,9.65,9.64
66.01,7.23,-2.40,7.23,-2.41,2.43,2.36,2.37,9.67,9.67,9.64
66.67,7.22,-2.44,7.22,-2.46,2.46,2.34,2.35,9.68,9.68,9.66
67.33,7.21,-2.52,7.21,-2.50,2.49,2.32,2.32,9.69,9.69,9.73
68.01,7.19,-2.54,7.19,-2.53,2.50,2.31,2.30,9.69,9.69,9.74
68.69,7.18,-2.53,7.18,-2.53,2.50,2.29,2.27,9.68,9.68,9.71
69.37,7.16,-2.48,7.16,-2.51,2.48,2.28,2.25,9.65,9.65,9.64
70.07,7.15,-2.49,7.15,-2.47,2.45,2.27,2.22,9.60,9.60,9.64
70.77,7.13,-2.44,7.13,-2.42,2.40,2.25,2.20,9.53,9.53,9.57
71.48,7.11,-2.33,7.11,-2.35,2.35,2.24,2.17,9.46,9.46,9.44
72.19,7.10,-2.27,7.10,-2.27,2.29,2.23,2.14,9.38,9.38,9.37
72.91,7.08,-2.22,7.08,-2.21,2.24,2.22,2.12,9.31,9.31,9.30
73.64,7.06,-2.16,7.06,-2.16,2.19,2.20,2.09,9.25,9.25,9.22
74.38,7.04,-2.12,7.04,-2.13,2.16,2.19,2.07,9.20,9.20,9.16
75.12,7.02,-2.12,7.02,-2.12,2.14,2.18,2.04,9.16,9.16,9.14
75.87,7.00,-2.14,7.00,-2.13,2.13,2.17,2.02,9.13,9.13,9.14
76.63,6.98,-2.16,6.98,-2.13,2.13,2.16,2.00,9.11,9.11,9.14
77.40,6.96,-2.12,6.96,-2.13,2.12,2.15,1.97,9.08,9.08,9.08
78.17,6.94,-2.10,6.94,-2.12,2.10,2.14,1.95,9.04,9.04,9.04
78.95,6.92,-2.12,6.92,-2.10,2.07,2.13,1.93,8.98,8.98,9.04
79.74,6.90,-2.08,6.90,-2.06,2.02,2.12,1.91,8.92,8.92,8.98
80.54,6.87,-2.00,6.87,-2.00,1.97,2.11,1.89,8.85,8.85,8.88
81.35,6.85,-1.89,6.85,-1.92,1.92,2.10,1.88,8.77,8.77,8.75
82.16,6.83,-1.84,6.83,-1.84,1.87,2.09,1.86,8.70,8.70,8.67
82.98,6.81,-1.80,6.81,-1.79,1.83,2.08,1.85,8.64,8.64,8.60
83.81,6.78,-1.75,6.78,-1.77,1.81,2.07,1.83,8.59,8.59,8.54
84.65,6.76,-1.78,6.76,-1.78,1.80,2.07,1.82,8.56,8.56,8.54
85.50,6.73,-1.80,6.73,-1.80,1.80,2.06,1.81,8.54,8.54,8.54
86.35,6.71,-1.83,6.71,-1.83,1.82,2.05,1.80,8.53,8.53,8.54
87.22,6.68,-1.86,6.68,-1.86,1.84,2.04,1.79,8.52,8.52,8.54
88.09,6.65,-1.88,6.65,-1.89,1.87,2.03,1.78,8.52,8.52,8.54
88.97,6.62,-1.91,6.63,-1.91,1.89,2.02,1.78,8.51,8.51,8.54
89.86,6.60,-1.94,6.60,-1.92,1.91,2.01,1.77,8.51,8.51,8.54
90.76,6.57,-1.91,6.57,-1.92,1.92,2.01,1.77,8.49,8.49,8.48
91.66,6.54,-1.90,6.54,-1.92,1.93,2.00,1.77,8.47,8.47,8.44
92.58,6.51,-1.93,6.51,-1.93,1.94,1.99,1.77,8.45,8.45,8.44
93.51,6.48,-1.96,6.48,-1.94,1.94,1.98,1.77,8.42,8.42,8.44
94.44,6.45,-1.96,6.45,-1.95,1.94,1.97,1.77,8.39,8.39,8.40
95.39,6.41,-1.92,6.41,-1.95,1.94,1.96,1.77,8.36,8.36,8.34
96.34,6.38,-1.96,6.38,-1.94,1.94,1.96,1.78,8.32,8.32,8.34
97.30,6.35,-1.96,6.35,-1.94,1.94,1.95,1.78,8.29,8.29,8.30
98.28,6.31,-1.93,6.31,-1.95,1.94,1.94,1.79,8.25,8.25,8.24
99.26,6.27,-1.96,6.27,-1.94,1.95,1.93,1.79,8.22,8.22,8.24
100.25,6.24,-1.95,6.24,-1.94,1.97,1.92,1.80,8.20,8.20,8.19
101.25,6.20,-1.94,6.20,-1.96,1.99,1.91,1.81,8.19,8.19,8.14
102.27,6.16,-1.97,6.16,-1.97,2.01,1.91,1.82,8.17,8.17,8.14
103.29,6.12,-2.01,6.12,-2.01,2.03,1.90,1.83,8.15,8.15,8.14
104.32,6.08,-2.06,6.08,-2.06,2.04,1.89,1.84,8.12,8.12,8.14
105.37,6.04,-2.10,6.04,-2.09,2.04,1.88,1.85,8.08,8.08,8.14
106.42,5.99,-2.10,5.99,-2.09,2.04,1.87,1.86,8.03,8.03,8.09
107.48,5.95,-2.04,5.95,-2.04,2.02,1.86,1.87,7.97,7.97,7.99
108.56,5.90,-1.98,5.90,-1.98,1.99,1.85,1.88,7.89,7.89,7.88
109.64,5.85,-1.92,5.85,-1.93,1.95,1.85,1.89,7.81,7.81,7.77
110.74,5.81,-1.89,5.81,-1.89,1.91,1.84,1.90,7.72,7.72,7.70
111.85,5.77,-1.87,5.77,-1.85,1.87,1.83,1.91,7.64,7.64,7.64
112.97,5.73,-1.81,5.73,-1.82,1.83,1.82,1.92,7.56,7.56,7.54
114.10,5.70,-1.79,5.70,-1.79,1.81,1.81,1.93,7.50,7.50,7.48
115.24,5.66,-1.77,5.66,-1.78,1.79,1.80,1.94,7.46,7.46,7.44
116.39,5.64,-1.80,5.64,-1.78,1.78,1.79,1.94,7.42,7.42,7.44
117.55,5.61,-1.77,5.61,-1.78,1.77,1.78,1.95,7.38,7.38,7.38
118.73,5.59,-1.75,5.59,-1.77,1.75,1.78,1.95,7.34,7.34,7.34
119.92,5.56,-1.77,5.56,-1.75,1.74,1.77,1.95,7.30,7.30,7.34
121.12,5.54,-1.74,5.54,-1.74,1.72,1.76,1.96,7.26,7.26,7.28
122.33,5.51,-1.71,5.51,-1.71,1.70,1.75,1.95,7.22,7.21,7.22
123.55,5.48,-1.68,5.48,-1.66,1.68,1.74,1.95,7.16,7.16,7.16
124.79,5.45,-1.61,5.45,-1.64,1.65,1.73,1.95,7.10,7.10,7.06
126.03,5.42,-1.62,5.42,-1.62,1.62,1.72,1.94,7.04,7.04,7.04
127.29,5.39,-1.63,5.40,-1.60,1.59,1.71,1.93,6.99,6.99,7.02
128.57,5.37,-1.58,5.37,-1.58,1.57,1.70,1.93,6.94,6.94,6.96
129.85,5.36,-1.54,5.36,-1.55,1.54,1.69,1.91,6.90,6.90,6.89
131.15,5.34,-1.50,5.34,-1.52,1.52,1.68,1.90,6.86,6.86,6.84
132.46,5.33,-1.51,5.33,-1.49,1.50,1.67,1.89,6.83,6.83,6.84
133.79,5.31,-1.49,5.31,-1.48,1.48,1.66,1.87,6.79,6.79,6.80
135.12,5.29,-1.45,5.29,-1.47,1.46,1.65,1.86,6.75,6.75,6.74
136.48,5.27,-1.47,5.27,-1.46,1.45,1.64,1.84,6.71,6.71,6.74
137.84,5.24,-1.46,5.24,-1.44,1.43,1.63,1.82,6.67,6.67,6.69
139.22,5.20,-1.42,5.20,-1.42,1.43,1.62,1.80,6.63,6.63,6.63
140.61,5.17,-1.39,5.17,-1.41,1.42,1.62,1.78,6.59,6.59,6.56
142.02,5.13,-1.41,5.13,-1.40,1.42,1.61,1.76,6.55,6.55,6.54
143.44,5.08,-1.43,5.08,-1.41,1.43,1.60,1.74,6.51,6.51,6.51
144.87,5.04,-1.40,5.04,-1.43,1.43,1.59,1.72,6.47,6.47,6.44
146.32,4.99,-1.44,4.99,-1.43,1.44,1.58,1.69,6.43,6.43,6.44
147.78,4.95,-1.45,4.95,-1.45,1.44,1.57,1.67,6.39,6.39,6.40
149.26,4.90,-1.44,4.90,-1.46,1.44,1.56,1.65,6.34,6.34,6.34
150.75,4.85,-1.49,4.85,-1.46,1.44,1.55,1.63,6.29,6.29,6.34
152.26,4.80,-1.45,4.80,-1.44,1.43,1.54,1.61,6.24,6.24,6.25
153.78,4.76,-1.40,4.76,-1.41,1.41,1.53,1.58,6.17,6.17,6.15
155.32,4.71,-1.36,4.71,-1.39,1.39,1.52,1.56,6.10,6.10,6.07
156.88,4.66,-1.38,4.66,-1.37,1.37,1.51,1.54,6.03,6.03,6.04
158.44,4.61,-1.38,4.61,-1.34,1.34,1.50,1.52,5.95,5.95,5.99
160.03,4.56,-1.27,4.56,-1.31,1.31,1.49,1.50,5.87,5.87,5.84
161.63,4.51,-1.27,4.51,-1.27,1.28,1.48,1.49,5.79,5.79,5.78
163.24,4.46,-1.26,4.46,-1.25,1.26,1.47,1.47,5.72,5.72,5.72
164.88,4.41,-1.23,4.41,-1.24,1.24,1.46,1.45,5.65,5.65,5.64
166.53,4.36,-1.23,4.36,-1.22,1.23,1.45,1.43,5.59,5.59,5.59
168.19,4.31,-1.22,4.31,-1.21,1.22,1.44,1.42,5.53,5.53,5.53
169.87,4.26,-1.18,4.26,-1.21,1.22,1.43,1.41,5.47,5.47,5.44
171.57,4.21,-1.23,4.21,-1.22,1.21,1.42,1.39,5.42,5.42,5.44
173.29,4.16,-1.24,4.16,-1.22,1.20,1.41,1.38,5.36,5.36,5.39
175.02,4.11,-1.23,4.11,-1.22,1.20,1.40,1.37,5.31,5.31,5.34
176.77,4.06,-1.19,4.06,-1.20,1.19,1.39,1.36,5.25,5.25,5.25
178.54,4.01,-1.18,4.01,-1.18,1.19,1.38,1.35,5.19,5.19,5.19
180.32,3.96,-1.17,3.96,-1.16,1.18,1.37,1.34,5.14,5.14,5.13
182.13,3.91,-1.16,3.91,-1.17,1.18,1.36,1.33,5.09,5.09,5.07
183.95,3.86,-1.17,3.86,-1.17,1.18,1.35,1.33,5.04,5.04,5.04
185.79,3.82,-1.19,3.82,-1.18,1.18,1.34,1.32,5.00,5.00,5.01
187.65,3.77,-1.18,3.77,-1.20,1.19,1.33,1.32,4.96,4.96,4.95
189.52,3.73,-1.21,3.73,-1.21,1.19,1.32,1.32,4.92,4.92,4.94
191.42,3.69,-1.23,3.69,-1.22,1.20,1.31,1.31,4.89,4.89,4.92
193.33,3.65,-1.21,3.65,-1.23,1.21,1.30,1.31,4.86,4.86,4.86
195.27,3.61,-1.23,3.61,-1.22,1.23,1.29,1.31,4.84,4.84,4.84
197.22,3.57,-1.23,3.57,-1.22,1.25,1.28,1.31,4.81,4.81,4.80
199.19,3.52,-1.21,3.52,-1.23,1.27,1.27,1.31,4.79,4.79,4.74
201.18,3.48,-1.26,3.48,-1.26,1.28,1.26,1.31,4.76,4.76,4.74
203.19,3.44,-1.30,3.44,-1.30,1.29,1.25,1.32,4.72,4.72,4.74
205.23,3.39,-1.34,3.39,-1.32,1.28,1.24,1.32,4.68,4.68,4.73
207.28,3.35,-1.32,3.35,-1.32,1.27,1.24,1.32,4.62,4.62,4.66
209.35,3.30,-1.29,3.30,-1.29,1.25,1.23,1.33,4.55,4.55,4.59
211.44,3.25,-1.26,3.25,-1.24,1.22,1.22,1.33,4.47,4.47,4.51
213.56,3.20,-1.16,3.20,-1.18,1.20,1.21,1.33,4.40,4.40,4.37
215.69,3.15,-1.13,3.15,-1.13,1.17,1.20,1.34,4.33,4.33,4.28
217.85,3.10,-1.11,3.10,-1.10,1.16,1.19,1.34,4.26,4.26,4.21
220.03,3.05,-1.08,3.05,-1.10,1.14,1.18,1.35,4.20,4.20,4.14
222.23,3.00,-1.13,3.00,-1.14,1.14,1.18,1.35,4.14,4.14,4.14
224.45,2.95,-1.19,2.95,-1.18,1.15,1.17,1.36,4.10,4.10,4.14
226.70,2.90,-1.23,2.90,-1.22,1.16,1.16,1.36,4.06,4.06,4.14
228.96,2.85,-1.22,2.85,-1.22,1.18,1.15,1.36,4.04,4.04,4.07
231.25,2.80,-1.20,2.80,-1.21,1.21,1.15,1.37,4.01,4.02,4.01
233.57,2.75,-1.19,2.75,-1.21,1.24,1.14,1.37,4.00,4.00,3.95
235.90,2.71,-1.23,2.71,-1.23,1.27,1.13,1.37,3.98,3.98,3.94
238.26,2.66,-1.28,2.66,-1.27,1.30,1.12,1.37,3.96,3.96,3.94
240.64,2.61,-1.33,2.61,-1.33,1.33,1.12,1.37,3.94,3.94,3.94
243.05,2.56,-1.38,2.56,-1.38,1.36,1.11,1.37,3.92,3.92,3.94
245.48,2.51,-1.42,2.51,-1.42,1.38,1.10,1.37,3.90,3.90,3.94
247.93,2.46,-1.45,2.46,-1.44,1.41,1.10,1.37,3.87,3.87,3.91
250.41,2.41,-1.44,2.41,-1.44,1.42,1.09,1.37,3.84,3.84,3.85
252.92,2.36,-1.42,2.36,-1.42,1.43,1.09,1.36,3.80,3.80,3.79
255.45,2.31,-1.41,2.31,-1.40,1.43,1.08,1.36,3.75,3.75,3.72
258.00,2.26,-1.37,2.26,-1.40,1.43,1.07,1.35,3.69,3.69,3.64
260.58,2.21,-1.42,2.21,-1.41,1.42,1.07,1.35,3.63,3.63,3.64
263.19,2.16,-1.44,2.16,-1.43,1.41,1.06,1.34,3.57,3.57,3.61
265.82,2.11,-1.43,2.11,-1.43,1.40,1.06,1.33,3.52,3.52,3.54
268.48,2.06,-1.41,2.06,-1.41,1.40,1.05,1.32,3.46,3.46,3.47
271.16,2.01,-1.39,2.01,-1.39,1.39,1.05,1.31,3.41,3.41,3.41
273.87,1.97,-1.37,1.97,-1.37,1.39,1.05,1.30,3.36,3.36,3.34
276.61,1.92,-1.36,1.92,-1.37,1.39,1.04,1.29,3.31,3.31,3.27
279.38,1.87,-1.37,1.87,-1.38,1.39,1.04,1.28,3.26,3.26,3.24
282.17,1.82,-1.42,1.82,-1.39,1.39,1.03,1.27,3.21,3.21,3.23
284.99,1.77,-1.40,1.77,-1.41,1.40,1.03,1.26,3.17,3.17,3.16
287.84,1.72,-1.42,1.72,-1.43,1.41,1.03,1.25,3.13,3.13,3.14
290.72,1.67,-1.45,1.67,-1.43,1.42,1.02,1.24,3.09,3.09,3.12
293.63,1.62,-1.43,1.62,-1.43,1.43,1.02,1.23,3.05,3.05,3.05
296.57,1.57,-1.41,1.57,-1.43,1.44,1.02,1.21,3.01,3.01,2.97
299.53,1.52,-1.42,1.52,-1.43,1.46,1.02,1.20,2.98,2.98,2.94
302.53,1.47,-1.47,1.47,-1.44,1.47,1.02,1.19,2.94,2.94,2.94
305.55,1.42,-1.45,1.42,-1.45,1.47,1.01,1.18,2.89,2.89,2.87
308.61,1.37,-1.43,1.37,-1.44,1.44,1.01,1.17,2.81,2.81,2.80
311.69,1.32,-1.42,1.32,-1.42,1.39,1.01,1.16,2.71,2.71,2.74
314.81,1.28,-1.39,1.28,-1.41,1.30,1.01,1.15,2.58,2.58,2.67
317.96,1.23,-1.33,1.23,-1.32,1.20,1.01,1.14,2.42,2.42,2.56
321.14,1.18,-1.24,1.18,-1.15,1.08,1.01,1.14,2.26,2.26,2.42
324.35,1.13,-0.88,1.13,-0.95,0.97,1.01,1.13,2.10,2.10,2.02
327.59,1.09,-0.74,1.09,-0.77,0.88,1.01,1.12,1.96,1.96,1.83
330.87,1.04,-0.68,1.04,-0.66,0.81,1.01,1.12,1.85,1.85,1.72
334.18,1.00,-0.66,1.00,-0.68,0.78,1.01,1.11,1.78,1.78,1.65
337.52,0.95,-0.74,0.95,-0.74,0.80,1.01,1.11,1.74,1.74,1.69
340.90,0.90,-0.85,0.90,-0.84,0.85,1.02,1.10,1.76,1.76,1.75
344.30,0.86,-0.96,0.86,-0.97,0.95,1.02,1.10,1.81,1.81,1.82
347.75,0.81,-1.08,0.81,-1.07,1.05,1.02,1.10,1.87,1.87,1.89
351.23,0.77,-1.17,0.77,-1.16,1.15,1.02,1.10,1.92,1.92,1.94
354.74,0.72,-1.21,0.72,-1.23,1.20,1.03,1.10,1.92,1.92,1.94
358.28,0.68,-1.26,0.68,-1.25,1.19,1.03,1.10,1.87,1.87,1.94
361.87,0.64,-1.22,0.64,-1.21,1.11,1.03,1.10,1.74,1.74,1.86
365.49,0.59,-1.11,0.59,-1.11,0.97,1.04,1.10,1.56,1.56,1.70
369.14,0.55,-0.91,0.55,-0.90,0.78,1.04,1.10,1.33,1.33,1.46
372.83,0.51,-0.65,0.51,-0.63,0.58,1.05,1.11,1.08,1.08,1.15
376.56,0.46,-0.33,0.46,-0.33,0.38,1.05,1.11,0.84,0.84,0.79
380.33,0.42,-0.06,0.42,-0.06,0.21,1.06,1.12,0.63,0.63,0.48
384.13,0.38,0.12,0.38,0.10,0.09,1.06,1.12,0.46,0.46,0.25
387.97,0.33,0.16,0.33,0.12,0.03,1.07,1.13,0.36,0.36,0.17
391.85,0.29,-0.01,0.29,0.03,0.04,1.07,1.14,0.33,0.33,0.30
395.77,0.25,-0.14,0.25,-0.12,0.12,1.08,1.15,0.37,0.37,0.39
399.73,0.21,-0.29,0.21,-0.30,0.26,1.09,1.16,0.47,0.47,0.49
403.72,0.17,-0.46,0.17,-0.46,0.42,1.10,1.16,0.59,0.59,0.63
407.76,0.13,-0.63,0.13,-0.64,0.60,1.10,1.17,0.73,0.73,0.76
411.84,0.09,-0.81,0.09,-0.81,0.75,1.11,1.18,0.84,0.84,0.90
415.96,0.05,-0.98,0.05,-0.95,0.88,1.12,1.20,0.94,0.94,1.04
420.12,0.01,-1.02,0.01,-1.03,0.99,1.13,1.21,1.00,1.00,1.04
424.32,-0.03,-1.06,-0.03,-1.08,1.07,1.14,1.22,1.04,1.04,1.04
428.56,-0.06,-1.10,-0.06,-1.10,1.13,1.15,1.23,1.06,1.06,1.04
432.85,-0.10,-1.14,-0.10,-1.14,1.16,1.16,1.24,1.06,1.06,1.04
437.18,-0.14,-1.17,-0.14,-1.18,1.19,1.17,1.25,1.05,1.05,1.04
441.55,-0.17,-1.21,-0.17,-1.21,1.20,1.18,1.26,1.03,1.03,1.04
445.96,-0.21,-1.25,-0.21,-1.23,1.22,1.19,1.27,1.01,1.01,1.04
450.42,-0.25,-1.23,-0.25,-1.23,1.23,1.20,1.28,0.99,0.99,0.99
454.93,-0.28,-1.22,-0.28,-1.24,1.25,1.22,1.29,0.97,0.97,0.94
459.48,-0.32,-1.25,-0.32,-1.25,1.27,1.23,1.30,0.96,0.96,0.94
464.07,-0.35,-1.29,-0.35,-1.28,1.30,1.24,1.31,0.95,0.95,0.94
468.71,-0.38,-1.32,-0.38,-1.32,1.32,1.25,1.32,0.93,0.93,0.94
473.40,-0.42,-1.35,-0.42,-1.35,1.34,1.27,1.33,0.93,0.93,0.94
478.13,-0.45,-1.39,-0.45,-1.39,1.37,1.28,1.34,0.92,0.92,0.94
482.91,-0.48,-1.42,-0.48,-1.42,1.41,1.29,1.34,0.93,0.93,0.94
487.74,-0.51,-1.45,-0.51,-1.45,1.45,1.31,1.35,0.94,0.94,0.94
492.62,-0.54,-1.48,-0.54,-1.47,1.50,1.32,1.36,0.96,0.96,0.94
497.55,-0.57,-1.51,-0.57,-1.51,1.54,1.34,1.36,0.97,0.97,0.94
502.52,-0.60,-1.54,-0.60,-1.57,1.58,1.35,1.36,0.98,0.98,0.94
507.55,-0.63,-1.64,-0.63,-1.63,1.61,1.37,1.36,0.98,0.98,1.02
512.62,-0.65,-1.69,-0.65,-1.68,1.64,1.39,1.37,0.98,0.98,1.04
517.75,-0.68,-1.71,-0.68,-1.69,1.65,1.40,1.37,0.97,0.97,1.03
522.93,-0.71,-1.66,-0.71,-1.69,1.66,1.42,1.37,0.96,0.96,0.95
528.16,-0.73,-1.67,-0.73,-1.67,1.67,1.44,1.36,0.94,0.94,0.94
533.44,-0.75,-1.67,-0.75,-1.65,1.66,1.45,1.36,0.91,0.91,0.92
538.77,-0.77,-1.62,-0.77,-1.64,1.65,1.47,1.36,0.88,0.88,0.85
544.16,-0.79,-1.63,-0.79,-1.63,1.65,1.49,1.36,0.86,0.86,0.84
