frequency,raw,error,smoothed,error_smoothed,equalization,parametric_eq,fixed_band_eq,equalized_raw,equalized_smoothed,target
20.00,8.40,-1.91,8.40,-1.91,1.90,-0.19,0.29,10.30,10.30,10.31
20.20,8.44,-1.87,8.44,-1.87,1.87,-0.20,0.30,10.31,10.31,10.31
20.40,8.48,-1.83,8.48,-1.83,1.84,-0.20,0.31,10.32,10.31,10.31
20.61,8.51,-1.80,8.51,-1.80,1.81,-0.21,0.32,10.32,10.31,10.31
20.81,8.53,-1.77,8.53,-1.77,1.78,-0.21,0.34,10.31,10.31,10.31
21.02,8.56,-1.74,8.56,-1.74,1.75,-0.21,0.35,10.30,10.30,10.30
21.23,8.58,-1.72,8.58,-1.72,1.72,-0.22,0.36,10.30,10.30,10.30
21.44,8.61,-1.69,8.61,-1.69,1.69,-0.22,0.37,10.29,10.29,10.30
21.66,8.64,-1.66,8.64,-1.66,1.66,-0.23,0.39,10.29,10.29,10.30
21.87,8.66,-1.63,8.66,-1.63,1.63,-0.23,0.40,10.29,10.29,10.29
22.09,8.69,-1.60,8.69,-1.60,1.60,-0.24,0.41,10.29,10.29,10.29
22.31,8.72,-1.56,8.72,-1.56,1.57,-0.24,0.43,10.29,10.29,10.29
22.54,8.75,-1.53,8.75,-1.53,1.54,-0.25,0.44,10.28,10.28,10.28
22.76,8.77,-1.50,8.77,-1.50,1.50,-0.25,0.46,10.28,10.28,10.28
22.99,8.80,-1.47,8.80,-1.47,1.47,-0.26,0.48,10.27,10.27,10.27
23.22,8.82,-1.44,8.82,-1.44,1.44,-0.26,0.49,10.27,10.27,10.26
23.45,8.85,-1.41,8.85,-1.41,1.41,-0.27,0.51,10.26,10.26,10.26
23.69,8.87,-1.38,8.87,-1.38,1.38,-0.28,0.52,10.25,10.25,10.25
23.92,8.89,-1.34,8.89,-1.34,1.34,-0.28,0.54,10.23,10.23,10.24
24.16,8.92,-1.31,8.92,-1.31,1.30,-0.29,0.56,10.22,10.22,10.23
24.40,8.94,-1.26,8.94,-1.26,1.26,-0.29,0.58,10.20,10.20,10.21
24.65,8.96,-1.22,8.96,-1.22,1.21,-0.30,0.59,10.18,10.18,10.18
24.89,8.98,-1.17,8.98,-1.17,1.17,-0.31,0.61,10.15,10.15,10.16
25.14,9.00,-1.12,9.00,-1.12,1.12,-0.31,0.63,10.13,10.13,10.13
25.39,9.02,-1.07,9.02,-1.08,1.08,-0.32,0.64,10.10,10.10,10.10
25.65,9.04,-1.04,9.04,-1.04,1.05,-0.33,0.66,10.09,10.09,10.07
25.91,9.06,-1.00,9.06,-1.00,1.02,-0.33,0.68,10.07,10.07,10.06
26.16,9.08,-0.98,9.08,-0.98,0.99,-0.34,0.69,10.07,10.07,10.05
26.43,9.10,-0.96,9.10,-0.96,0.96,-0.35,0.71,10.06,10.06,10.06
26.69,9.12,-0.94,9.12,-0.94,0.94,-0.35,0.72,10.06,10.06,10.06
26.96,9.14,-0.93,9.14,-0.93,0.92,-0.36,0.74,10.05,10.05,10.06
27.23,9.16,-0.90,9.16,-0.90,0.89,-0.37,0.75,10.04,10.04,10.06
27.50,9.17,-0.87,9.17,-0.87,0.86,-0.38,0.76,10.03,10.03,10.04
27.77,9.19,-0.83,9.19,-0.83,0.82,-0.39,0.77,10.01,10.01,10.01
28.05,9.20,-0.78,9.20,-0.78,0.78,-0.39,0.78,9.98,9.98,9.98
28.33,9.21,-0.72,9.21,-0.73,0.73,-0.40,0.79,9.94,9.94,9.94
28.62,9.23,-0.67,9.23,-0.67,0.68,-0.41,0.79,9.91,9.91,9.90
28.90,9.24,-0.63,9.24,-0.63,0.63,-0.42,0.80,9.87,9.87,9.86
29.19,9.25,-0.58,9.25,-0.58,0.58,-0.43,0.80,9.83,9.83,9.83
29.48,9.27,-0.53,9.27,-0.53,0.53,-0.44,0.80,9.80,9.80,9.80
29.78,9.28,-0.49,9.28,-0.49,0.48,-0.45,0.80,9.76,9.76,9.77
30.08,9.30,-0.44,9.30,-0.43,0.43,-0.46,0.79,9.73,9.73,9.73
30.38,9.31,-0.38,9.31,-0.38,0.38,-0.47,0.78,9.70,9.70,9.70
30.68,9.33,-0.33,9.33,-0.33,0.34,-0.48,0.77,9.67,9.67,9.66
30.99,9.34,-0.29,9.34,-0.29,0.30,-0.49,0.76,9.65,9.64,9.63
31.30,9.35,-0.26,9.35,-0.26,0.27,-0.50,0.75,9.62,9.62,9.61
31.61,9.36,-0.23,9.36,-0.23,0.24,-0.51,0.73,9.60,9.60,9.59
31.93,9.37,-0.21,9.37,-0.21,0.20,-0.52,0.71,9.57,9.57,9.58
32.24,9.38,-0.18,9.38,-0.18,0.17,-0.53,0.68,9.55,9.55,9.56
32.57,9.39,-0.15,9.39,-0.15,0.14,-0.54,0.66,9.53,9.53,9.54
32.89,9.40,-0.12,9.40,-0.12,0.10,-0.55,0.63,9.50,9.50,9.52
33.22,9.41,-0.07,9.41,-0.07,0.06,-0.57,0.60,9.47,9.47,9.48
33.55,9.42,-0.02,9.42,-0.02,0.01,-0.58,0.56,9.43,9.43,9.44
33.89,9.43,0.04,9.43,0.04,-0.03,-0.59,0.53,9.40,9.40,9.39
34.23,9.44,0.09,9.44,0.09,-0.08,-0.60,0.49,9.36,9.36,9.35
34.57,9.45,0.14,9.45,0.14,-0.13,-0.62,0.45,9.32,9.32,9.31
34.92,9.46,0.19,9.46,0.18,-0.18,-0.63,0.41,9.28,9.28,9.27
35.27,9.46,0.22,9.46,0.22,-0.22,-0.65,0.36,9.24,9.24,9.24
35.62,9.47,0.26,9.47,0.26,-0.26,-0.66,0.32,9.21,9.21,9.21
35.97,9.47,0.30,9.47,0.30,-0.30,-0.67,0.27,9.17,9.17,9.18
36.33,9.48,0.34,9.48,0.34,-0.34,-0.69,0.22,9.14,9.14,9.14
36.70,9.48,0.38,9.48,0.38,-0.38,-0.71,0.17,9.11,9.11,9.10
37.06,9.48,0.42,9.48,0.42,-0.41,-0.72,0.12,9.07,9.07,9.07
37.43,9.49,0.45,9.49,0.45,-0.45,-0.74,0.06,9.03,9.03,9.03
37.81,9.49,0.49,9.49,0.49,-0.50,-0.75,0.01,8.99,8.99,9.00
38.19,9.49,0.53,9.49,0.53,-0.54,-0.77,-0.05,8.95,8.95,8.96
38.57,9.50,0.58,9.50,0.58,-0.59,-0.79,-0.10,8.91,8.91,8.92
38.95,9.50,0.63,9.50,0.63,-0.63,-0.81,-0.16,8.87,8.87,8.87
39.34,9.50,0.68,9.50,0.68,-0.68,-0.82,-0.22,8.83,8.83,8.82
39.74,9.50,0.73,9.50,0.73,-0.72,-0.84,-0.28,8.79,8.79,8.77
40.14,9.51,0.77,9.51,0.77,-0.76,-0.86,-0.34,8.75,8.75,8.73
40.54,9.51,0.81,9.51,0.81,-0.81,-0.88,-0.40,8.71,8.71,8.70
40.94,9.52,0.85,9.52,0.85,-0.85,-0.90,-0.46,8.67,8.67,8.67
41.35,9.52,0.89,9.52,0.89,-0.89,-0.92,-0.52,8.62,8.62,8.63
41.76,9.52,0.93,9.52,0.93,-0.94,-0.94,-0.58,8.58,8.58,8.59
42.18,9.52,0.97,9.52,0.97,-0.99,-0.96,-0.65,8.53,8.53,8.54
42.60,9.52,1.03,9.52,1.03,-1.04,-0.99,-0.71,8.48,8.48,8.49
43.03,9.51,1.09,9.51,1.09,-1.08,-1.01,-0.78,8.43,8.43,8.42
43.46,9.51,1.15,9.51,1.14,-1.13,-1.03,-0.84,8.38,8.38,8.36
43.90,9.50,1.20,9.50,1.19,-1.18,-1.06,-0.91,8.33,8.33,8.31
44.33,9.50,1.23,9.50,1.23,-1.22,-1.08,-0.97,8.28,8.28,8.27
44.78,9.50,1.26,9.50,1.27,-1.27,-1.11,-1.04,8.23,8.23,8.23
45.23,9.50,1.30,9.50,1.30,-1.31,-1.13,-1.11,8.19,8.19,8.20
45.68,9.50,1.34,9.50,1.34,-1.35,-1.16,-1.18,8.14,8.14,8.16
46.13,9.50,1.39,9.50,1.39,-1.40,-1.18,-1.25,8.10,8.10,8.10
46.60,9.50,1.45,9.50,1.45,-1.45,-1.21,-1.32,8.05,8.05,8.05
47.06,9.50,1.50,9.50,1.50,-1.50,-1.24,-1.39,8.00,8.00,8.00
47.53,9.49,1.55,9.49,1.55,-1.55,-1.27,-1.46,7.94,7.94,7.94
48.01,9.49,1.60,9.49,1.61,-1.61,-1.30,-1.53,7.89,7.89,7.89
48.49,9.49,1.66,9.49,1.66,-1.66,-1.33,-1.60,7.83,7.83,7.83
48.97,9.49,1.71,9.49,1.71,-1.71,-1.36,-1.68,7.78,7.78,7.78
49.46,9.48,1.77,9.48,1.76,-1.76,-1.39,-1.75,7.73,7.73,7.72
49.96,9.47,1.81,9.47,1.81,-1.80,-1.43,-1.82,7.68,7.68,7.66
50.46,9.46,1.85,9.46,1.85,-1.84,-1.46,-1.89,7.62,7.62,7.61
50.96,9.45,1.88,9.45,1.88,-1.88,-1.49,-1.97,7.57,7.57,7.57
51.47,9.44,1.91,9.44,1.91,-1.92,-1.53,-2.04,7.52,7.52,7.52
51.99,9.43,1.95,9.43,1.95,-1.96,-1.57,-2.11,7.46,7.46,7.48
52.51,9.42,1.99,9.42,2.00,-2.01,-1.60,-2.19,7.41,7.41,7.42
53.03,9.40,2.05,9.40,2.05,-2.05,-1.64,-2.26,7.35,7.35,7.36
53.56,9.39,2.10,9.39,2.10,-2.10,-1.68,-2.33,7.30,7.30,7.29
54.10,9.38,2.15,9.38,2.15,-2.15,-1.72,-2.40,7.24,7.24,7.23
54.64,9.37,2.20,9.37,2.20,-2.19,-1.76,-2.47,7.18,7.18,7.17
55.18,9.36,2.24,9.36,2.25,-2.24,-1.80,-2.54,7.12,7.12,7.12
55.74,9.35,2.29,9.35,2.29,-2.29,-1.85,-2.61,7.06,7.06,7.06
56.29,9.34,2.34,9.34,2.34,-2.34,-1.89,-2.67,7.00,7.00,7.00
56.86,9.33,2.38,9.33,2.38,-2.38,-1.94,-2.73,6.95,6.95,6.95
57.42,9.32,2.42,9.32,2.42,-2.42,-1.98,-2.79,6.89,6.89,6.90
58.00,9.30,2.47,9.30,2.47,-2.47,-2.03,-2.85,6.84,6.84,6.83
58.58,9.29,2.52,9.29,2.52,-2.51,-2.08,-2.91,6.78,6.78,6.77
59.16,9.28,2.56,9.28,2.55,-2.55,-2.13,-2.96,6.73,6.73,6.71
59.76,9.27,2.58,9.27,2.59,-2.59,-2.18,-3.01,6.67,6.67,6.68
60.35,9.25,2.62,9.25,2.62,-2.64,-2.23,-3.06,6.61,6.61,6.64
60.96,9.24,2.67,9.24,2.67,-2.69,-2.29,-3.10,6.55,6.55,6.57
61.57,9.22,2.74,9.22,2.73,-2.73,-2.34,-3.14,6.49,6.49,6.49
62.18,9.21,2.79,9.21,2.79,-2.78,-2.40,-3.18,6.43,6.43,6.42
62.80,9.20,2.83,9.20,2.84,-2.83,-2.45,-3.21,6.37,6.37,6.36
63.43,9.18,2.88,9.18,2.88,-2.88,-2.51,-3.24,6.30,6.30,6.30
64.07,9.17,2.93,9.17,2.93,-2.93,-2.57,-3.27,6.24,6.24,6.23
64.71,9.15,2.97,9.15,2.97,-2.97,-2.63,-3.30,6.18,6.18,6.17
65.35,9.12,3.01,9.12,3.01,-3.01,-2.69,-3.32,6.12,6.12,6.11
66.01,9.10,3.05,9.10,3.05,-3.04,-2.75,-3.34,6.05,6.05,6.05
66.67,9.07,3.08,9.07,3.08,-3.08,-2.81,-3.35,5.99,5.99,5.99
67.33,9.04,3.11,9.04,3.11,-3.12,-2.88,-3.37,5.92,5.92,5.93
68.01,9.02,3.14,9.02,3.15,-3.16,-2.94,-3.38,5.86,5.86,5.88
68.69,9.00,3.19,9.00,3.19,-3.20,-3.01,-3.39,5.80,5.80,5.81
69.37,8.98,3.24,8.98,3.24,-3.24,-3.07,-3.40,5.74,5.74,5.74
70.07,8.97,3.29,8.97,3.29,-3.28,-3.14,-3.41,5.68,5.69,5.68
70.77,8.95,3.33,8.95,3.33,-3.32,-3.21,-3.41,5.63,5.63,5.62
71.48,8.93,3.38,8.93,3.37,-3.36,-3.28,-3.42,5.57,5.57,5.56
72.19,8.91,3.42,8.91,3.41,-3.41,-3.34,-3.42,5.51,5.50,5.49
72.91,8.88,3.44,8.88,3.44,-3.44,-3.41,-3.43,5.44,5.44,5.44
73.64,8.85,3.48,8.85,3.48,-3.48,-3.48,-3.43,5.37,5.37,5.37
74.38,8.82,3.52,8.82,3.52,-3.52,-3.54,-3.44,5.30,5.30,5.30
75.12,8.79,3.56,8.79,3.56,-3.56,-3.61,-3.45,5.23,5.23,5.23
75.87,8.77,3.60,8.77,3.60,-3.60,-3.67,-3.46,5.17,5.17,5.18
76.63,8.76,3.64,8.75,3.64,-3.65,-3.73,-3.46,5.11,5.11,5.11
77.40,8.74,3.69,8.74,3.69,-3.70,-3.79,-3.48,5.04,5.04,5.05
78.17,8.72,3.74,8.72,3.74,-3.74,-3.85,-3.49,4.98,4.98,4.98
78.95,8.71,3.79,8.71,3.79,-3.79,-3.90,-3.50,4.92,4.92,4.92
79.74,8.69,3.84,8.69,3.84,-3.84,-3.96,-3.52,4.86,4.86,4.85
80.54,8.67,3.88,8.67,3.88,-3.88,-4.00,-3.54,4.79,4.79,4.79
81.35,8.65,3.92,8.64,3.92,-3.92,-4.04,-3.56,4.73,4.73,4.72
82.16,8.61,3.95,8.61,3.95,-3.95,-4.08,-3.58,4.66,4.66,4.66
82.98,8.57,3.97,8.57,3.97,-3.97,-4.11,-3.60,4.60,4.60,4.59
83.81,8.52,3.99,8.51,3.99,-3.98,-4.14,-3.63,4.53,4.53,4.52
84.65,8.45,3.99,8.45,3.99,-3.98,-4.15,-3.66,4.47,4.47,4.47
85.50,8.38,3.98,8.38,3.99,-3.97,-4.16,-3.70,4.41,4.41,4.40
86.35,8.31,3.97,8.30,3.97,-3.95,-4.17,-3.73,4.36,4.35,4.33
87.22,8.22,3.95,8.22,3.95,-3.93,-4.16,-3.77,4.29,4.29,4.26
88.09,8.12,3.92,8.12,3.92,-3.91,-4.15,-3.81,4.21,4.21,4.20
88.97,8.02,3.88,8.02,3.88,-3.90,-4.13,-3.86,4.12,4.12,4.14
89.86,7.93,3.85,7.94,3.86,-3.90,-4.11,-3.91,4.03,4.04,4.08
90.76,7.89,3.87,7.89,3.87,-3.91,-4.08,-3.96,3.98,3.98,4.02
91.66,7.87,3.92,7.87,3.92,-3.94,-4.05,-4.01,3.93,3.93,3.95
92.58,7.87,3.99,7.87,3.98,-3.98,-4.03,-4.07,3.89,3.88,3.88
93.51,7.87,4.05,7.87,4.05,-4.04,-4.01,-4.13,3.83,3.83,3.82
94.44,7.87,4.11,7.87,4.11,-4.11,-4.00,-4.19,3.76,3.76,3.76
95.39,7.87,4.18,7.87,4.18,-4.17,-4.00,-4.25,3.70,3.70,3.69
96.34,7.87,4.24,7.87,4.24,-4.23,-4.03,-4.32,3.64,3.64,3.63
97.30,7.87,4.30,7.87,4.30,-4.28,-4.06,-4.39,3.60,3.60,3.58
98.28,7.86,4.35,7.86,4.35,-4.31,-4.12,-4.46,3.56,3.55,3.51
99.26,7.83,4.38,7.82,4.37,-4.33,-4.19,-4.54,3.50,3.49,3.45
100.25,7.76,4.38,7.75,4.37,-4.36,-4.28,-4.61,3.40,3.40,3.38
101.25,7.67,4.35,7.68,4.37,-4.38,-4.37,-4.69,3.29,3.30,3.32
102.27,7.62,4.37,7.62,4.37,-4.42,-4.47,-4.77,3.20,3.20,3.25
103.29,7.59,4.41,7.59,4.41,-4.46,-4.57,-4.85,3.13,3.14,3.18
104.32,7.60,4.48,7.60,4.48,-4.51,-4.67,-4.93,3.09,3.09,3.13
105.37,7.64,4.57,7.63,4.57,-4.58,-4.77,-5.01,3.06,3.05,3.07
106.42,7.68,4.67,7.68,4.67,-4.66,-4.86,-5.09,3.02,3.01,3.01
107.48,7.72,4.77,7.71,4.77,-4.75,-4.95,-5.17,2.97,2.96,2.94
108.56,7.74,4.85,7.74,4.86,-4.84,-5.02,-5.25,2.90,2.90,2.89
109.64,7.76,4.94,7.76,4.94,-4.93,-5.09,-5.33,2.84,2.84,2.83
110.74,7.77,5.01,7.77,5.01,-5.00,-5.15,-5.41,2.77,2.77,2.75
111.85,7.76,5.08,7.76,5.07,-5.06,-5.20,-5.48,2.70,2.70,2.68
112.97,7.74,5.12,7.74,5.12,-5.11,-5.24,-5.55,2.63,2.63,2.62
114.10,7.71,5.15,7.71,5.16,-5.15,-5.28,-5.62,2.56,2.56,2.56
115.24,7.68,5.18,7.68,5.18,-5.18,-5.31,-5.68,2.50,2.50,2.50
116.39,7.65,5.20,7.65,5.21,-5.21,-5.34,-5.74,2.44,2.44,2.44
117.55,7.62,5.23,7.62,5.23,-5.23,-5.36,-5.79,2.38,2.38,2.39
118.73,7.58,5.25,7.58,5.24,-5.26,-5.38,-5.84,2.33,2.33,2.33
119.92,7.55,5.26,7.55,5.27,-5.28,-5.39,-5.88,2.27,2.27,2.29
121.12,7.51,5.29,7.51,5.30,-5.30,-5.40,-5.92,2.21,2.21,2.22
122.33,7.47,5.33,7.47,5.33,-5.33,-5.40,-5.94,2.14,2.14,2.14
123.55,7.42,5.37,7.42,5.36,-5.35,-5.40,-5.97,2.07,2.07,2.05
124.79,7.37,5.38,7.38,5.39,-5.38,-5.41,-5.98,2.00,2.00,2.00
126.03,7.33,5.41,7.33,5.41,-5.40,-5.41,-5.99,1.93,1.93,1.93
127.29,7.29,5.42,7.29,5.42,-5.42,-5.40,-5.98,1.87,1.87,1.86
128.57,7.25,5.44,7.25,5.44,-5.44,-5.40,-5.98,1.80,1.80,1.81
129.85,7.21,5.46,7.21,5.46,-5.46,-5.40,-5.96,1.74,1.74,1.75
131.15,7.17,5.48,7.17,5.48,-5.49,-5.39,-5.95,1.68,1.68,1.69
132.46,7.13,5.51,7.13,5.51,-5.51,-5.39,-5.92,1.63,1.63,1.63
133.79,7.10,5.53,7.10,5.53,-5.53,-5.39,-5.89,1.57,1.57,1.56
135.12,7.07,5.56,7.07,5.56,-5.55,-5.38,-5.85,1.51,1.51,1.51
136.48,7.03,5.58,7.03,5.58,-5.58,-5.38,-5.81,1.45,1.45,1.45
137.84,7.00,5.60,7.00,5.60,-5.61,-5.37,-5.77,1.39,1.39,1.40
139.22,6.96,5.63,6.96,5.63,-5.63,-5.37,-5.72,1.33,1.33,1.33
140.61,6.93,5.66,6.93,5.65,-5.66,-5.37,-5.67,1.27,1.27,1.27
142.02,6.89,5.68,6.89,5.68,-5.69,-5.37,-5.61,1.20,1.20,1.21
143.44,6.86,5.71,6.86,5.71,-5.72,-5.37,-5.56,1.14,1.14,1.15
144.87,6.83,5.75,6.83,5.74,-5.74,-5.36,-5.50,1.09,1.09,1.08
146.32,6.80,5.76,6.80,5.76,-5.76,-5.36,-5.44,1.03,1.03,1.04
147.78,6.76,5.77,6.76,5.79,-5.78,-5.36,-5.38,0.98,0.98,0.99
149.26,6.71,5.82,6.71,5.80,-5.78,-5.37,-5.32,0.93,0.93,0.90
150.75,6.67,5.81,6.67,5.79,-5.78,-5.37,-5.27,0.88,0.88,0.86
152.26,6.62,5.74,6.62,5.76,-5.77,-5.37,-5.21,0.85,0.85,0.88
153.78,6.57,5.72,6.57,5.73,-5.74,-5.37,-5.15,0.83,0.83,0.84
155.32,6.52,5.71,6.52,5.71,-5.69,-5.37,-5.10,0.82,0.82,0.81
156.88,6.47,5.68,6.47,5.66,-5.64,-5.38,-5.05,0.83,0.83,0.78
158.44,6.41,5.60,6.41,5.59,-5.57,-5.38,-5.00,0.84,0.84,0.82
160.03,6.36,5.48,6.36,5.51,-5.50,-5.38,-4.95,0.87,0.87,0.88
161.63,6.31,5.42,6.32,5.42,-5.43,-5.38,-4.91,0.89,0.89,0.89
163.24,6.27,5.35,6.27,5.34,-5.36,-5.39,-4.86,0.91,0.91,0.91
164.88,6.22,5.28,6.22,5.27,-5.29,-5.39,-4.83,0.93,0.93,0.94
166.53,6.17,5.21,6.17,5.21,-5.24,-5.39,-4.79,0.93,0.93,0.97
168.19,6.13,5.17,6.13,5.18,-5.20,-5.39,-4.76,0.93,0.93,0.96
169.87,6.08,5.17,6.08,5.17,-5.18,-5.39,-4.73,0.90,0.90,0.90
171.57,6.02,5.17,6.02,5.17,-5.17,-5.40,-4.71,0.85,0.85,0.85
173.29,5.97,5.17,5.97,5.17,-5.17,-5.40,-4.68,0.80,0.80,0.80
175.02,5.92,5.17,5.92,5.17,-5.18,-5.39,-4.67,0.74,0.74,0.75
176.77,5.87,5.17,5.87,5.19,-5.19,-5.39,-4.65,0.68,0.68,0.70
178.54,5.82,5.21,5.82,5.21,-5.20,-5.39,-4.64,0.63,0.63,0.61
180.32,5.77,5.26,5.77,5.22,-5.20,-5.39,-4.63,0.57,0.57,0.51
182.13,5.72,5.20,5.72,5.22,-5.20,-5.38,-4.63,0.53,0.53,0.52
183.95,5.67,5.18,5.67,5.19,-5.19,-5.38,-4.63,0.48,0.48,0.49
185.79,5.62,5.17,5.62,5.16,-5.17,-5.37,-4.63,0.45,0.45,0.45
187.65,5.57,5.14,5.57,5.15,-5.16,-5.36,-4.64,0.41,0.41,0.43
189.52,5.51,5.13,5.51,5.13,-5.14,-5.35,-4.65,0.37,0.37,0.38
191.42,5.46,5.12,5.46,5.12,-5.12,-5.34,-4.66,0.34,0.34,0.34
193.33,5.40,5.10,5.40,5.10,-5.10,-5.32,-4.68,0.30,0.30,0.30
195.27,5.35,5.08,5.35,5.08,-5.08,-5.31,-4.70,0.26,0.26,0.27
197.22,5.29,5.06,5.29,5.07,-5.07,-5.29,-4.72,0.22,0.23,0.23
199.19,5.24,5.06,5.24,5.06,-5.05,-5.27,-4.74,0.19,0.19,0.18
201.18,5.19,5.04,5.19,5.04,-5.03,-5.25,-4.77,0.16,0.16,0.14
203.19,5.13,5.02,5.13,5.02,-5.01,-5.22,-4.80,0.12,0.12,0.11
205.23,5.08,4.98,5.08,4.99,-4.99,-5.20,-4.83,0.09,0.09,0.10
207.28,5.03,4.95,5.03,4.96,-4.97,-5.17,-4.86,0.06,0.06,0.07
209.35,4.97,4.93,4.98,4.94,-4.94,-5.14,-4.89,0.03,0.03,0.04
211.44,4.93,4.93,4.93,4.92,-4.92,-5.11,-4.92,0.01,0.01,-0.00
213.56,4.88,4.89,4.88,4.90,-4.90,-5.08,-4.95,-0.02,-0.02,-0.01
215.69,4.83,4.87,4.83,4.88,-4.87,-5.04,-4.98,-0.04,-0.04,-0.04
217.85,4.79,4.86,4.79,4.85,-4.85,-5.00,-5.01,-0.06,-0.06,-0.07
220.03,4.74,4.83,4.74,4.83,-4.83,-4.97,-5.04,-0.09,-0.09,-0.09
222.23,4.69,4.80,4.69,4.80,-4.80,-4.93,-5.07,-0.11,-0.11,-0.11
224.45,4.65,4.77,4.65,4.77,-4.77,-4.88,-5.09,-0.13,-0.13,-0.13
226.70,4.60,4.75,4.60,4.75,-4.75,-4.84,-5.11,-0.15,-0.15,-0.15
228.96,4.55,4.72,4.55,4.72,-4.72,-4.79,-5.13,-0.17,-0.17,-0.17
231.25,4.50,4.69,4.50,4.68,-4.69,-4.75,-5.15,-0.19,-0.19,-0.19
233.57,4.45,4.65,4.45,4.65,-4.66,-4.70,-5.16,-0.21,-0.21,-0.21
235.90,4.39,4.61,4.39,4.62,-4.62,-4.65,-5.16,-0.23,-0.23,-0.21
238.26,4.34,4.60,4.34,4.59,-4.59,-4.60,-5.16,-0.24,-0.24,-0.25
240.64,4.29,4.57,4.29,4.56,-4.55,-4.55,-5.15,-0.26,-0.26,-0.28
243.05,4.23,4.51,4.23,4.51,-4.51,-4.49,-5.14,-0.27,-0.27,-0.27
245.48,4.18,4.46,4.18,4.46,-4.47,-4.44,-5.12,-0.29,-0.29,-0.28
247.93,4.12,4.42,4.12,4.42,-4.42,-4.38,-5.09,-0.30,-0.30,-0.29
250.41,4.07,4.38,4.07,4.37,-4.38,-4.33,-5.06,-0.31,-0.31,-0.31
252.92,4.01,4.33,4.01,4.33,-4.33,-4.27,-5.02,-0.31,-0.31,-0.32
255.45,3.96,4.28,3.96,4.28,-4.28,-4.22,-4.97,-0.32,-0.32,-0.32
258.00,3.91,4.23,3.91,4.23,-4.23,-4.16,-4.92,-0.32,-0.32,-0.32
260.58,3.85,4.18,3.85,4.18,-4.18,-4.10,-4.86,-0.33,-0.33,-0.33
263.19,3.80,4.13,3.80,4.13,-4.13,-4.05,-4.79,-0.33,-0.33,-0.33
265.82,3.75,4.08,3.75,4.08,-4.08,-3.99,-4.72,-0.34,-0.34,-0.33
268.48,3.69,4.03,3.69,4.03,-4.03,-3.93,-4.64,-0.34,-0.34,-0.33
271.16,3.64,3.98,3.64,3.98,-3.98,-3.87,-4.55,-0.34,-0.34,-0.34
273.87,3.58,3.93,3.58,3.92,-3.92,-3.82,-4.46,-0.34,-0.34,-0.34
276.61,3.53,3.87,3.53,3.86,-3.86,-3.76,-4.37,-0.33,-0.33,-0.34
279.38,3.47,3.80,3.47,3.80,-3.80,-3.71,-4.27,-0.33,-0.33,-0.33
282.17,3.41,3.74,3.41,3.74,-3.74,-3.65,-4.17,-0.33,-0.33,-0.32
284.99,3.36,3.68,3.36,3.68,-3.68,-3.60,-4.06,-0.33,-0.33,-0.32
287.84,3.30,3.62,3.30,3.61,-3.63,-3.54,-3.95,-0.32,-0.32,-0.31
290.72,3.25,3.55,3.25,3.55,-3.57,-3.49,-3.84,-0.32,-0.32,-0.30
293.63,3.20,3.48,3.20,3.50,-3.50,-3.44,-3.73,-0.31,-0.31,-0.28
296.57,3.14,3.44,3.14,3.45,-3.44,-3.38,-3.62,-0.30,-0.30,-0.30
299.53,3.09,3.44,3.09,3.40,-3.37,-3.33,-3.50,-0.28,-0.28,-0.35
302.53,3.04,3.32,3.04,3.32,-3.31,-3.28,-3.39,-0.27,-0.27,-0.28
305.55,2.98,3.21,2.98,3.24,-3.24,-3.22,-3.27,-0.25,-0.25,-0.23
308.61,2.93,3.15,2.93,3.15,-3.16,-3.17,-3.15,-0.23,-0.23,-0.22
311.69,2.88,3.09,2.88,3.08,-3.09,-3.11,-3.04,-0.21,-0.21,-0.21
314.81,2.82,3.01,2.82,3.01,-3.01,-3.05,-2.92,-0.19,-0.19,-0.18
317.96,2.77,2.93,2.77,2.93,-2.93,-2.99,-2.80,-0.16,-0.16,-0.16
321.14,2.72,2.86,2.72,2.86,-2.86,-2.93,-2.69,-0.14,-0.14,-0.14
324.35,2.66,2.79,2.66,2.79,-2.78,-2.87,-2.57,-0.12,-0.12,-0.12
327.59,2.61,2.71,2.61,2.71,-2.71,-2.80,-2.46,-0.10,-0.10,-0.10
330.87,2.56,2.64,2.56,2.64,-2.64,-2.73,-2.35,-0.08,-0.08,-0.08
334.18,2.51,2.56,2.50,2.56,-2.56,-2.65,-2.24,-0.06,-0.06,-0.06
337.52,2.45,2.48,2.45,2.48,-2.49,-2.57,-2.13,-0.04,-0.04,-0.03
340.90,2.40,2.41,2.40,2.41,-2.41,-2.49,-2.02,-0.01,-0.01,-0.01
344.30,2.35,2.34,2.35,2.34,-2.33,-2.40,-1.91,0.01,0.01,0.01
347.75,2.30,2.26,2.30,2.26,-2.26,-2.32,-1.80,0.04,0.04,0.03
351.23,2.25,2.19,2.25,2.18,-2.18,-2.23,-1.69,0.07,0.07,0.06
354.74,2.20,2.10,2.20,2.10,-2.10,-2.14,-1.59,0.10,0.10,0.10
358.28,2.15,2.00,2.15,2.01,-2.02,-2.04,-1.49,0.13,0.13,0.15
361.87,2.10,1.93,2.10,1.94,-1.94,-1.95,-1.38,0.16,0.16,0.17
365.49,2.05,1.88,2.05,1.86,-1.86,-1.86,-1.28,0.19,0.19,0.17
369.14,2.00,1.79,2.00,1.79,-1.79,-1.76,-1.18,0.21,0.21,0.21
372.83,1.95,1.71,1.95,1.71,-1.71,-1.67,-1.08,0.24,0.24,0.24
376.56,1.90,1.63,1.90,1.63,-1.63,-1.58,-0.99,0.27,0.27,0.27
380.33,1.85,1.55,1.85,1.55,-1.55,-1.48,-0.89,0.29,0.29,0.30
384.13,1.80,1.47,1.80,1.47,-1.47,-1.39,-0.79,0.32,0.32,0.32
387.97,1.75,1.40,1.75,1.39,-1.40,-1.30,-0.70,0.35,0.35,0.35
391.85,1.70,1.32,1.70,1.32,-1.32,-1.21,-0.61,0.38,0.38,0.38
395.77,1.65,1.24,1.65,1.24,-1.24,-1.13,-0.52,0.41,0.41,0.41
399.73,1.60,1.16,1.60,1.16,-1.16,-1.04,-0.43,0.44,0.44,0.44
403.72,1.55,1.08,1.55,1.08,-1.09,-0.95,-0.34,0.47,0.47,0.47
407.76,1.51,1.01,1.51,1.01,-1.01,-0.87,-0.25,0.50,0.50,0.50
411.84,1.46,0.93,1.46,0.93,-0.93,-0.78,-0.16,0.53,0.53,0.53
415.96,1.41,0.85,1.41,0.85,-0.85,-0.70,-0.08,0.56,0.56,0.56
420.12,1.36,0.77,1.36,0.77,-0.77,-0.62,0.01,0.60,0.60,0.59
424.32,1.32,0.70,1.32,0.69,-0.68,-0.54,0.09,0.63,0.63,0.62
428.56,1.27,0.60,1.27,0.60,-0.60,-0.46,0.17,0.67,0.67,0.67
432.85,1.22,0.51,1.22,0.51,-0.51,-0.38,0.25,0.71,0.71,0.71
437.18,1.18,0.41,1.18,0.41,-0.42,-0.30,0.32,0.76,0.76,0.77
441.55,1.13,0.32,1.13,0.33,-0.33,-0.23,0.40,0.80,0.80,0.81
445.96,1.09,0.24,1.09,0.24,-0.25,-0.15,0.47,0.84,0.84,0.85
450.42,1.04,0.16,1.04,0.16,-0.16,-0.07,0.54,0.88,0.88,0.88
454.93,1.00,0.07,1.00,0.08,-0.08,0.00,0.61,0.92,0.92,0.93
459.48,0.96,-0.00,0.96,-0.00,0.00,0.08,0.67,0.96,0.96,0.96
464.07,0.92,-0.08,0.92,-0.08,0.08,0.15,0.74,1.00,1.00,0.99
468.71,0.88,-0.15,0.88,-0.15,0.16,0.22,0.80,1.03,1.03,1.03
473.40,0.83,-0.23,0.83,-0.23,0.23,0.30,0.85,1.07,1.07,1.06
478.13,0.79,-0.31,0.79,-0.31,0.31,0.37,0.91,1.10,1.10,1.10
482.91,0.75,-0.39,0.75,-0.39,0.38,0.44,0.96,1.14,1.14,1.14
487.74,0.71,-0.46,0.71,-0.46,0.46,0.51,1.01,1.17,1.17,1.17
492.62,0.67,-0.53,0.67,-0.53,0.53,0.58,1.05,1.21,1.21,1.21
497.55,0.64,-0.60,0.64,-0.60,0.60,0.65,1.09,1.24,1.24,1.24
502.52,0.61,-0.67,0.61,-0.67,0.67,0.72,1.13,1.27,1.27,1.28
507.55,0.57,-0.73,0.58,-0.74,0.73,0.79,1.17,1.30,1.30,1.31
512.62,0.55,-0.80,0.55,-0.80,0.79,0.86,1.20,1.33,1.33,1.34
517.75,0.52,-0.86,0.52,-0.86,0.84,0.93,1.23,1.36,1.36,1.38
522.93,0.49,-0.92,0.49,-0.92,0.91,1.00,1.26,1.40,1.40,1.41
528.16,0.46,-0.97,0.46,-0.98,0.98,1.07,1.28,1.44,1.44,1.44
