frequency,raw,error,smoothed,error_smoothed,equalization,parametric_eq,fixed_band_eq,equalized_raw,equalized_smoothed,target
20.00,2.89,-9.88,2.89,-9.88,6.00,5.90,2.71,8.89,8.89,12.77
20.20,2.95,-9.79,2.95,-9.79,6.00,5.97,2.78,8.95,8.95,12.74
20.40,3.00,-9.70,3.00,-9.70,6.00,6.04,2.86,9.00,9.00,12.70
20.61,3.05,-9.61,3.05,-9.61,6.00,6.05,2.95,9.05,9.05,12.67
20.81,3.11,-9.53,3.11,-9.53,6.00,6.06,3.03,9.11,9.11,12.64
21.02,3.16,-9.45,3.16,-9.45,6.00,6.03,3.12,9.16,9.16,12.60
21.23,3.21,-9.36,3.21,-9.36,6.00,6.01,3.21,9.21,9.21,12.57
21.44,3.25,-9.28,3.25,-9.28,6.00,5.98,3.30,9.25,9.25,12.53
21.66,3.30,-9.20,3.30,-9.20,6.00,5.95,3.39,9.30,9.30,12.50
21.87,3.35,-9.11,3.35,-9.12,6.00,5.93,3.49,9.35,9.35,12.46
22.09,3.39,-9.03,3.39,-9.03,6.00,5.91,3.59,9.39,9.39,12.43
22.31,3.44,-8.95,3.44,-8.95,6.00,5.90,3.69,9.44,9.44,12.39
22.54,3.48,-8.87,3.48,-8.87,6.00,5.89,3.80,9.48,9.48,12.35
22.76,3.52,-8.79,3.52,-8.79,6.00,5.89,3.91,9.52,9.52,12.31
22.99,3.57,-8.71,3.57,-8.71,6.00,5.89,4.02,9.57,9.57,12.27
23.22,3.61,-8.63,3.61,-8.63,6.00,5.90,4.13,9.61,9.61,12.24
23.45,3.65,-8.54,3.65,-8.54,6.00,5.91,4.25,9.65,9.65,12.20
23.69,3.69,-8.46,3.69,-8.46,6.00,5.92,4.37,9.69,9.69,12.16
23.92,3.73,-8.38,3.73,-8.38,6.00,5.93,4.49,9.73,9.73,12.11
24.16,3.77,-8.30,3.77,-8.30,6.00,5.94,4.61,9.77,9.77,12.07
24.40,3.81,-8.21,3.81,-8.21,6.00,5.95,4.73,9.81,9.81,12.03
24.65,3.85,-8.13,3.85,-8.13,6.00,5.96,4.86,9.85,9.85,11.98
24.89,3.89,-8.05,3.89,-8.05,6.00,5.98,4.99,9.89,9.89,11.94
25.14,3.94,-7.96,3.94,-7.96,6.00,5.99,5.12,9.94,9.94,11.90
25.39,3.98,-7.88,3.98,-7.88,6.00,5.99,5.25,9.98,9.98,11.86
25.65,4.02,-7.80,4.02,-7.80,6.00,6.00,5.38,10.02,10.02,11.82
25.91,4.06,-7.72,4.06,-7.72,6.00,6.01,5.52,10.06,10.06,11.79
26.16,4.10,-7.64,4.10,-7.64,6.00,6.01,5.65,10.10,10.10,11.75
26.43,4.14,-7.56,4.14,-7.56,6.00,6.02,5.78,10.14,10.14,11.71
26.69,4.18,-7.48,4.18,-7.48,6.00,6.02,5.91,10.18,10.18,11.66
26.96,4.21,-7.40,4.21,-7.41,6.00,6.03,6.04,10.21,10.21,11.62
27.23,4.24,-7.33,4.24,-7.33,6.00,6.03,6.16,10.24,10.24,11.57
27.50,4.27,-7.25,4.27,-7.25,6.00,6.03,6.29,10.27,10.27,11.53
27.77,4.30,-7.18,4.30,-7.18,6.00,6.03,6.40,10.30,10.30,11.48
28.05,4.33,-7.11,4.33,-7.11,6.00,6.03,6.52,10.33,10.33,11.44
28.33,4.36,-7.04,4.36,-7.04,6.00,6.02,6.62,10.36,10.36,11.40
28.62,4.38,-6.97,4.38,-6.97,6.00,6.02,6.73,10.38,10.38,11.35
28.90,4.41,-6.90,4.41,-6.90,6.00,6.02,6.82,10.41,10.41,11.31
29.19,4.44,-6.82,4.44,-6.82,6.00,6.01,6.90,10.44,10.44,11.26
29.48,4.47,-6.75,4.47,-6.75,6.00,6.00,6.98,10.47,10.47,11.22
29.78,4.50,-6.67,4.50,-6.67,6.00,5.99,7.05,10.50,10.50,11.17
30.08,4.52,-6.60,4.52,-6.60,6.00,5.98,7.10,10.52,10.52,11.12
30.38,4.55,-6.52,4.55,-6.52,6.00,5.97,7.15,10.55,10.55,11.07
30.68,4.58,-6.45,4.58,-6.45,6.00,5.96,7.18,10.58,10.58,11.03
30.99,4.60,-6.38,4.60,-6.38,6.01,5.94,7.20,10.61,10.61,10.98
31.30,4.63,-6.31,4.63,-6.31,6.01,5.92,7.20,10.64,10.64,10.94
31.61,4.66,-6.23,4.66,-6.23,6.01,5.90,7.20,10.67,10.67,10.89
31.93,4.68,-6.16,4.68,-6.16,6.00,5.88,7.18,10.68,10.68,10.84
32.24,4.70,-6.09,4.70,-6.09,5.99,5.86,7.16,10.69,10.69,10.79
32.57,4.73,-6.02,4.73,-6.02,5.96,5.83,7.12,10.69,10.69,10.74
32.89,4.75,-5.95,4.75,-5.95,5.92,5.80,7.07,10.67,10.67,10.69
33.22,4.77,-5.88,4.77,-5.88,5.87,5.77,7.00,10.64,10.64,10.65
33.55,4.79,-5.81,4.79,-5.81,5.82,5.73,6.94,10.61,10.61,10.60
33.89,4.81,-5.74,4.81,-5.74,5.75,5.69,6.85,10.56,10.56,10.55
34.23,4.83,-5.67,4.83,-5.67,5.68,5.65,6.77,10.51,10.51,10.50
34.57,4.85,-5.60,4.85,-5.60,5.61,5.61,6.67,10.46,10.46,10.45
34.92,4.87,-5.53,4.87,-5.53,5.53,5.57,6.57,10.41,10.41,10.40
35.27,4.89,-5.46,4.89,-5.46,5.47,5.52,6.46,10.36,10.36,10.35
35.62,4.91,-5.40,4.91,-5.40,5.40,5.47,6.35,10.31,10.31,10.31
35.97,4.93,-5.33,4.93,-5.33,5.33,5.42,6.24,10.26,10.26,10.26
36.33,4.94,-5.27,4.94,-5.27,5.26,5.36,6.12,10.21,10.21,10.21
36.70,4.96,-5.20,4.96,-5.20,5.20,5.31,6.00,10.15,10.15,10.16
37.06,4.98,-5.13,4.98,-5.13,5.13,5.25,5.88,10.10,10.10,10.11
37.43,4.99,-5.06,4.99,-5.06,5.06,5.19,5.75,10.05,10.05,10.05
37.81,5.01,-4.99,5.01,-4.99,4.98,5.12,5.63,9.99,9.99,9.99
38.19,5.02,-4.92,5.02,-4.92,4.91,5.06,5.51,9.94,9.94,9.94
38.57,5.03,-4.84,5.03,-4.84,4.85,4.99,5.39,9.88,9.88,9.88
38.95,5.05,-4.77,5.05,-4.77,4.78,4.93,5.27,9.83,9.83,9.82
39.34,5.06,-4.71,5.06,-4.71,4.72,4.86,5.15,9.78,9.78,9.76
39.74,5.07,-4.65,5.07,-4.65,4.66,4.79,5.03,9.73,9.73,9.71
40.14,5.08,-4.59,5.08,-4.59,4.60,4.72,4.91,9.67,9.67,9.67
40.54,5.09,-4.54,5.09,-4.54,4.53,4.65,4.80,9.62,9.62,9.63
40.94,5.10,-4.49,5.10,-4.49,4.47,4.58,4.69,9.57,9.57,9.59
41.35,5.11,-4.43,5.11,-4.42,4.40,4.50,4.58,9.51,9.51,9.53
41.76,5.12,-4.35,5.12,-4.35,4.34,4.43,4.47,9.46,9.46,9.47
42.18,5.13,-4.26,5.13,-4.26,4.27,4.36,4.37,9.40,9.40,9.40
42.60,5.14,-4.18,5.14,-4.19,4.20,4.29,4.27,9.35,9.35,9.33
43.03,5.15,-4.12,5.15,-4.12,4.14,4.21,4.17,9.29,9.29,9.27
43.46,5.16,-4.06,5.16,-4.06,4.07,4.14,4.07,9.23,9.23,9.22
43.90,5.16,-4.01,5.16,-4.01,4.01,4.07,3.98,9.17,9.17,9.17
44.33,5.16,-3.97,5.16,-3.96,3.95,3.99,3.89,9.11,9.11,9.12
44.78,5.16,-3.91,5.16,-3.91,3.89,3.92,3.81,9.05,9.05,9.06
45.23,5.16,-3.84,5.16,-3.84,3.83,3.85,3.73,8.99,8.99,9.00
45.68,5.16,-3.78,5.16,-3.78,3.78,3.78,3.65,8.94,8.94,8.94
46.13,5.17,-3.71,5.17,-3.71,3.72,3.70,3.57,8.88,8.88,8.88
46.60,5.17,-3.65,5.17,-3.65,3.66,3.63,3.49,8.83,8.83,8.82
47.06,5.17,-3.59,5.17,-3.59,3.60,3.56,3.42,8.78,8.78,8.77
47.53,5.17,-3.54,5.17,-3.54,3.55,3.49,3.35,8.72,8.72,8.72
48.01,5.17,-3.49,5.17,-3.49,3.50,3.42,3.29,8.67,8.67,8.67
48.49,5.17,-3.45,5.17,-3.45,3.45,3.36,3.22,8.61,8.61,8.62
48.97,5.16,-3.40,5.16,-3.40,3.40,3.29,3.16,8.56,8.56,8.56
49.46,5.16,-3.35,5.16,-3.35,3.34,3.22,3.10,8.50,8.51,8.51
49.96,5.16,-3.30,5.16,-3.30,3.29,3.16,3.05,8.45,8.45,8.46
50.46,5.16,-3.24,5.16,-3.24,3.24,3.09,2.99,8.40,8.40,8.40
50.96,5.16,-3.18,5.16,-3.18,3.18,3.03,2.94,8.34,8.34,8.34
51.47,5.16,-3.12,5.16,-3.12,3.12,2.97,2.89,8.28,8.28,8.29
51.99,5.16,-3.06,5.16,-3.06,3.06,2.91,2.84,8.22,8.22,8.23
52.51,5.16,-3.00,5.16,-3.00,3.00,2.85,2.79,8.16,8.16,8.16
53.03,5.16,-2.94,5.16,-2.94,2.94,2.79,2.75,8.10,8.10,8.10
53.56,5.16,-2.88,5.16,-2.88,2.88,2.73,2.70,8.04,8.04,8.04
54.10,5.16,-2.82,5.16,-2.82,2.82,2.67,2.66,7.98,7.98,7.97
54.64,5.15,-2.76,5.15,-2.76,2.77,2.61,2.62,7.92,7.92,7.91
55.18,5.14,-2.71,5.14,-2.71,2.72,2.56,2.58,7.86,7.86,7.85
55.74,5.13,-2.67,5.13,-2.67,2.67,2.50,2.54,7.80,7.80,7.80
56.29,5.12,-2.63,5.12,-2.62,2.62,2.45,2.50,7.74,7.75,7.75
56.86,5.12,-2.58,5.12,-2.58,2.57,2.40,2.46,7.69,7.69,7.70
57.42,5.11,-2.53,5.11,-2.53,2.53,2.35,2.43,7.64,7.64,7.64
58.00,5.11,-2.48,5.11,-2.48,2.48,2.29,2.39,7.59,7.59,7.59
58.58,5.10,-2.43,5.10,-2.43,2.43,2.25,2.35,7.53,7.53,7.53
59.16,5.09,-2.39,5.09,-2.39,2.39,2.20,2.31,7.48,7.48,7.48
59.76,5.09,-2.34,5.09,-2.34,2.34,2.15,2.28,7.42,7.42,7.43
60.35,5.08,-2.29,5.08,-2.29,2.29,2.10,2.24,7.37,7.37,7.37
60.96,5.07,-2.24,5.07,-2.24,2.24,2.06,2.20,7.31,7.31,7.30
61.57,5.05,-2.18,5.05,-2.19,2.19,2.01,2.16,7.25,7.25,7.24
62.18,5.04,-2.14,5.04,-2.14,2.14,1.97,2.13,7.18,7.18,7.18
62.80,5.02,-2.10,5.02,-2.10,2.10,1.93,2.09,7.12,7.12,7.12
63.43,5.01,-2.05,5.01,-2.05,2.05,1.88,2.05,7.06,7.06,7.06
64.07,5.00,-2.01,5.00,-2.01,2.00,1.84,2.01,7.00,7.00,7.00
64.71,4.99,-1.96,4.99,-1.96,1.96,1.80,1.97,6.94,6.94,6.94
65.35,4.97,-1.91,4.97,-1.91,1.91,1.76,1.93,6.88,6.88,6.88
66.01,4.96,-1.86,4.96,-1.86,1.87,1.72,1.89,6.82,6.82,6.82
66.67,4.94,-1.82,4.94,-1.82,1.82,1.69,1.85,6.76,6.76,6.76
67.33,4.93,-1.77,4.93,-1.77,1.77,1.65,1.81,6.70,6.70,6.70
68.01,4.91,-1.73,4.91,-1.73,1.73,1.61,1.76,6.64,6.64,6.64
68.69,4.90,-1.68,4.90,-1.68,1.69,1.58,1.72,6.58,6.58,6.58
69.37,4.88,-1.64,4.88,-1.64,1.64,1.54,1.68,6.52,6.52,6.52
70.07,4.86,-1.60,4.86,-1.60,1.60,1.51,1.64,6.47,6.47,6.46
70.77,4.85,-1.56,4.85,-1.56,1.56,1.48,1.59,6.41,6.41,6.41
71.48,4.83,-1.52,4.83,-1.52,1.52,1.44,1.55,6.35,6.35,6.35
72.19,4.81,-1.48,4.81,-1.48,1.48,1.41,1.51,6.29,6.29,6.29
72.91,4.79,-1.44,4.79,-1.44,1.44,1.38,1.47,6.23,6.23,6.23
73.64,4.77,-1.41,4.77,-1.41,1.41,1.35,1.42,6.17,6.17,6.17
74.38,4.75,-1.37,4.75,-1.37,1.37,1.32,1.38,6.12,6.12,6.11
75.12,4.73,-1.33,4.73,-1.33,1.33,1.29,1.34,6.06,6.06,6.05
75.87,4.70,-1.29,4.70,-1.29,1.29,1.26,1.29,6.00,6.00,6.00
76.63,4.68,-1.26,4.68,-1.26,1.26,1.23,1.25,5.94,5.94,5.94
77.40,4.66,-1.23,4.66,-1.23,1.22,1.21,1.21,5.88,5.88,5.88
78.17,4.63,-1.19,4.63,-1.19,1.19,1.18,1.17,5.82,5.82,5.82
78.95,4.61,-1.16,4.61,-1.16,1.16,1.15,1.13,5.76,5.76,5.76
79.74,4.58,-1.13,4.58,-1.12,1.12,1.13,1.09,5.70,5.70,5.71
80.54,4.55,-1.09,4.55,-1.09,1.09,1.10,1.05,5.65,5.65,5.65
81.35,4.53,-1.06,4.53,-1.06,1.06,1.08,1.01,5.59,5.59,5.59
82.16,4.50,-1.02,4.50,-1.02,1.03,1.05,0.97,5.53,5.53,5.53
82.98,4.48,-0.99,4.48,-0.99,0.99,1.03,0.93,5.47,5.47,5.47
83.81,4.45,-0.96,4.45,-0.96,0.96,1.01,0.89,5.41,5.41,5.41
84.65,4.43,-0.93,4.43,-0.93,0.93,0.98,0.85,5.35,5.35,5.36
85.50,4.40,-0.90,4.40,-0.90,0.90,0.96,0.81,5.29,5.29,5.30
86.35,4.37,-0.86,4.37,-0.86,0.86,0.94,0.78,5.24,5.24,5.23
87.22,4.34,-0.83,4.34,-0.83,0.84,0.92,0.74,5.18,5.18,5.17
88.09,4.32,-0.80,4.31,-0.80,0.81,0.90,0.70,5.12,5.12,5.12
88.97,4.29,-0.78,4.29,-0.78,0.78,0.88,0.67,5.06,5.06,5.06
89.86,4.26,-0.75,4.26,-0.75,0.75,0.86,0.63,5.01,5.01,5.01
90.76,4.23,-0.73,4.23,-0.73,0.72,0.84,0.60,4.95,4.95,4.96
91.66,4.20,-0.70,4.20,-0.70,0.70,0.82,0.56,4.90,4.90,4.90
92.58,4.17,-0.67,4.17,-0.67,0.67,0.80,0.53,4.84,4.84,4.84
93.51,4.14,-0.64,4.14,-0.64,0.64,0.78,0.50,4.79,4.79,4.78
94.44,4.11,-0.61,4.11,-0.61,0.62,0.76,0.46,4.73,4.73,4.73
95.39,4.08,-0.59,4.08,-0.59,0.59,0.74,0.43,4.67,4.67,4.67
96.34,4.04,-0.56,4.04,-0.57,0.57,0.73,0.40,4.61,4.61,4.61
97.30,4.01,-0.55,4.01,-0.54,0.55,0.71,0.36,4.55,4.55,4.55
98.28,3.97,-0.53,3.97,-0.52,0.52,0.69,0.33,4.49,4.49,4.50
99.26,3.94,-0.50,3.94,-0.50,0.50,0.67,0.30,4.44,4.44,4.44
100.25,3.90,-0.48,3.91,-0.48,0.47,0.66,0.27,4.38,4.38,4.39
101.25,3.88,-0.45,3.88,-0.45,0.45,0.64,0.24,4.33,4.33,4.33
102.27,3.85,-0.42,3.85,-0.42,0.42,0.63,0.21,4.27,4.27,4.27
103.29,3.82,-0.40,3.82,-0.40,0.40,0.61,0.18,4.22,4.22,4.21
104.32,3.79,-0.37,3.79,-0.37,0.37,0.59,0.15,4.16,4.16,4.16
105.37,3.76,-0.35,3.76,-0.35,0.35,0.58,0.12,4.11,4.11,4.11
106.42,3.73,-0.32,3.73,-0.32,0.33,0.56,0.10,4.06,4.06,4.05
107.48,3.70,-0.30,3.70,-0.30,0.31,0.55,0.07,4.00,4.00,4.00
108.56,3.66,-0.28,3.66,-0.28,0.29,0.53,0.04,3.94,3.94,3.94
109.64,3.62,-0.27,3.62,-0.27,0.27,0.52,0.02,3.89,3.89,3.89
110.74,3.59,-0.25,3.59,-0.25,0.25,0.50,-0.01,3.83,3.83,3.84
111.85,3.55,-0.23,3.55,-0.23,0.23,0.49,-0.03,3.78,3.78,3.78
112.97,3.51,-0.21,3.51,-0.21,0.21,0.47,-0.05,3.72,3.72,3.72
114.10,3.48,-0.19,3.48,-0.19,0.19,0.46,-0.07,3.67,3.67,3.67
115.24,3.45,-0.17,3.45,-0.17,0.17,0.44,-0.09,3.62,3.62,3.62
116.39,3.41,-0.15,3.41,-0.15,0.15,0.43,-0.11,3.56,3.56,3.56
117.55,3.38,-0.13,3.38,-0.13,0.13,0.41,-0.13,3.51,3.51,3.51
118.73,3.34,-0.11,3.34,-0.12,0.12,0.40,-0.15,3.46,3.46,3.46
119.92,3.31,-0.11,3.31,-0.10,0.10,0.38,-0.17,3.41,3.41,3.41
121.12,3.27,-0.09,3.27,-0.09,0.08,0.37,-0.18,3.35,3.35,3.36
122.33,3.23,-0.06,3.23,-0.07,0.07,0.35,-0.19,3.30,3.30,3.30
123.55,3.19,-0.05,3.19,-0.05,0.05,0.34,-0.21,3.25,3.25,3.24
124.79,3.16,-0.04,3.16,-0.04,0.04,0.32,-0.22,3.19,3.19,3.19
126.03,3.12,-0.02,3.12,-0.02,0.02,0.31,-0.23,3.14,3.14,3.14
127.29,3.08,-0.01,3.08,-0.01,0.01,0.29,-0.23,3.09,3.09,3.09
128.57,3.04,0.01,3.04,0.01,-0.01,0.28,-0.24,3.04,3.04,3.03
129.85,3.01,0.02,3.01,0.02,-0.02,0.26,-0.25,2.98,2.98,2.98
131.15,2.97,0.04,2.97,0.04,-0.04,0.24,-0.25,2.93,2.93,2.93
132.46,2.93,0.05,2.93,0.05,-0.05,0.22,-0.26,2.88,2.88,2.88
133.79,2.90,0.06,2.90,0.06,-0.06,0.21,-0.26,2.83,2.83,2.84
135.12,2.86,0.08,2.86,0.08,-0.08,0.19,-0.26,2.78,2.78,2.78
136.48,2.82,0.09,2.82,0.09,-0.09,0.17,-0.26,2.73,2.73,2.73
137.84,2.79,0.10,2.79,0.10,-0.10,0.15,-0.26,2.68,2.68,2.68
139.22,2.75,0.11,2.75,0.11,-0.11,0.13,-0.26,2.63,2.63,2.63
140.61,2.71,0.12,2.71,0.12,-0.12,0.11,-0.26,2.59,2.59,2.59
142.02,2.67,0.14,2.67,0.14,-0.14,0.09,-0.25,2.54,2.54,2.54
143.44,2.63,0.15,2.63,0.15,-0.15,0.06,-0.25,2.49,2.49,2.49
144.87,2.60,0.15,2.60,0.16,-0.16,0.04,-0.25,2.44,2.44,2.44
146.32,2.56,0.17,2.56,0.17,-0.17,0.01,-0.24,2.39,2.39,2.39
147.78,2.52,0.18,2.52,0.18,-0.18,-0.01,-0.24,2.34,2.34,2.34
149.26,2.48,0.19,2.48,0.19,-0.19,-0.04,-0.23,2.30,2.30,2.29
150.75,2.44,0.20,2.44,0.20,-0.19,-0.07,-0.23,2.25,2.25,2.24
152.26,2.40,0.21,2.40,0.20,-0.20,-0.10,-0.22,2.20,2.20,2.19
153.78,2.36,0.21,2.36,0.21,-0.21,-0.14,-0.22,2.15,2.15,2.15
155.32,2.32,0.21,2.32,0.22,-0.22,-0.17,-0.21,2.10,2.10,2.11
156.88,2.28,0.22,2.28,0.22,-0.22,-0.20,-0.20,2.06,2.06,2.06
158.44,2.24,0.23,2.24,0.23,-0.23,-0.24,-0.20,2.01,2.01,2.01
160.03,2.20,0.24,2.20,0.24,-0.24,-0.28,-0.19,1.97,1.97,1.97
161.63,2.17,0.25,2.17,0.25,-0.25,-0.32,-0.18,1.92,1.92,1.92
163.24,2.13,0.26,2.13,0.26,-0.25,-0.35,-0.18,1.87,1.87,1.87
164.88,2.09,0.26,2.09,0.26,-0.26,-0.39,-0.17,1.83,1.83,1.83
166.53,2.05,0.27,2.05,0.27,-0.27,-0.43,-0.17,1.78,1.78,1.78
168.19,2.01,0.27,2.01,0.27,-0.27,-0.47,-0.16,1.73,1.73,1.73
169.87,1.97,0.28,1.97,0.28,-0.28,-0.50,-0.15,1.69,1.69,1.69
171.57,1.93,0.29,1.93,0.29,-0.29,-0.53,-0.15,1.64,1.64,1.64
173.29,1.89,0.30,1.89,0.30,-0.30,-0.56,-0.14,1.60,1.60,1.60
175.02,1.85,0.30,1.85,0.30,-0.30,-0.58,-0.14,1.55,1.55,1.55
176.77,1.81,0.31,1.81,0.31,-0.31,-0.60,-0.13,1.51,1.51,1.50
178.54,1.78,0.32,1.78,0.32,-0.32,-0.61,-0.13,1.46,1.46,1.46
180.32,1.74,0.33,1.74,0.32,-0.32,-0.62,-0.12,1.41,1.41,1.41
182.13,1.70,0.32,1.70,0.33,-0.33,-0.62,-0.12,1.37,1.37,1.37
183.95,1.66,0.33,1.66,0.33,-0.33,-0.61,-0.11,1.32,1.32,1.33
185.79,1.62,0.34,1.62,0.34,-0.34,-0.60,-0.11,1.28,1.28,1.28
187.65,1.58,0.34,1.58,0.34,-0.35,-0.58,-0.10,1.23,1.23,1.24
189.52,1.54,0.35,1.54,0.35,-0.35,-0.56,-0.10,1.19,1.19,1.19
191.42,1.50,0.36,1.50,0.36,-0.36,-0.53,-0.10,1.14,1.14,1.14
193.33,1.46,0.37,1.46,0.37,-0.37,-0.50,-0.09,1.09,1.09,1.09
195.27,1.42,0.38,1.42,0.38,-0.38,-0.47,-0.09,1.05,1.05,1.04
197.22,1.38,0.39,1.38,0.39,-0.39,-0.44,-0.09,1.00,1.00,1.00
199.19,1.34,0.39,1.34,0.39,-0.40,-0.41,-0.08,0.95,0.95,0.95
201.18,1.31,0.40,1.31,0.41,-0.41,-0.37,-0.08,0.90,0.90,0.90
203.19,1.27,0.42,1.27,0.42,-0.42,-0.34,-0.08,0.85,0.85,0.85
205.23,1.23,0.43,1.23,0.43,-0.43,-0.31,-0.07,0.80,0.80,0.80
207.28,1.19,0.45,1.19,0.45,-0.45,-0.28,-0.07,0.74,0.74,0.74
209.35,1.15,0.47,1.15,0.47,-0.47,-0.25,-0.07,0.68,0.68,0.68
211.44,1.11,0.49,1.11,0.49,-0.49,-0.23,-0.07,0.61,0.62,0.62
213.56,1.07,0.51,1.07,0.51,-0.53,-0.20,-0.06,0.54,0.54,0.56
215.69,1.03,0.54,1.03,0.54,-0.56,-0.18,-0.06,0.47,0.47,0.49
217.85,0.99,0.57,0.99,0.57,-0.60,-0.15,-0.06,0.39,0.39,0.42
220.03,0.95,0.59,0.95,0.59,-0.62,-0.13,-0.06,0.33,0.32,0.36
222.23,0.91,0.62,0.91,0.62,-0.62,-0.11,-0.05,0.28,0.28,0.29
224.45,0.87,0.64,0.87,0.64,-0.59,-0.09,-0.05,0.28,0.28,0.23
226.70,0.83,0.62,0.83,0.61,-0.52,-0.08,-0.05,0.31,0.31,0.20
228.96,0.78,0.53,0.78,0.52,-0.41,-0.06,-0.05,0.37,0.37,0.25
231.25,0.74,0.37,0.74,0.35,-0.27,-0.05,-0.04,0.47,0.47,0.37
233.57,0.70,0.14,0.70,0.13,-0.12,-0.03,-0.04,0.58,0.58,0.56
235.90,0.66,-0.12,0.66,-0.09,0.03,-0.02,-0.04,0.69,0.69,0.78
238.26,0.62,-0.28,0.62,-0.28,0.18,-0.01,-0.04,0.79,0.79,0.90
240.64,0.58,-0.40,0.58,-0.40,0.30,0.01,-0.03,0.88,0.88,0.98
243.05,0.54,-0.45,0.54,-0.45,0.39,0.02,-0.03,0.94,0.94,0.99
245.48,0.51,-0.45,0.51,-0.46,0.45,0.03,-0.03,0.95,0.95,0.96
247.93,0.47,-0.45,0.47,-0.45,0.46,0.04,-0.02,0.94,0.94,0.92
250.41,0.45,-0.42,0.45,-0.42,0.45,0.05,-0.02,0.89,0.89,0.86
252.92,0.43,-0.39,0.43,-0.39,0.41,0.05,-0.02,0.84,0.84,0.81
255.45,0.41,-0.35,0.41,-0.35,0.36,0.06,-0.01,0.78,0.77,0.77
258.00,0.41,-0.31,0.41,-0.31,0.31,0.07,-0.01,0.72,0.72,0.72
260.58,0.41,-0.26,0.41,-0.26,0.26,0.08,-0.01,0.67,0.67,0.67
263.19,0.41,-0.21,0.41,-0.21,0.21,0.09,-0.00,0.62,0.62,0.62
265.82,0.42,-0.16,0.42,-0.16,0.17,0.09,0.00,0.58,0.58,0.58
268.48,0.42,-0.11,0.42,-0.12,0.12,0.10,0.00,0.54,0.54,0.53
271.16,0.42,-0.08,0.42,-0.08,0.09,0.11,0.01,0.51,0.50,0.50
273.87,0.41,-0.05,0.41,-0.05,0.05,0.11,0.01,0.47,0.47,0.46
276.61,0.40,-0.02,0.40,-0.03,0.03,0.12,0.02,0.43,0.43,0.43
279.38,0.39,-0.01,0.39,-0.01,0.01,0.12,0.02,0.40,0.39,0.40
282.17,0.36,0.00,0.36,0.00,-0.00,0.13,0.03,0.36,0.36,0.36
284.99,0.34,0.01,0.34,0.01,-0.01,0.13,0.03,0.33,0.33,0.33
287.84,0.31,0.01,0.31,0.01,-0.01,0.14,0.04,0.30,0.30,0.30
290.72,0.28,0.01,0.28,0.01,-0.01,0.15,0.04,0.27,0.27,0.27
293.63,0.25,0.01,0.25,0.01,-0.01,0.15,0.05,0.25,0.25,0.24
296.57,0.22,0.00,0.22,-0.00,-0.00,0.16,0.05,0.22,0.22,0.22
299.53,0.19,-0.01,0.19,-0.01,0.00,0.16,0.06,0.19,0.19,0.20
302.53,0.16,-0.01,0.16,-0.01,0.01,0.17,0.06,0.17,0.17,0.17
305.55,0.13,-0.01,0.13,-0.02,0.01,0.17,0.07,0.15,0.15,0.14
308.61,0.10,-0.02,0.10,-0.02,0.02,0.18,0.07,0.12,0.12,0.12
311.69,0.07,-0.03,0.07,-0.03,0.03,0.18,0.08,0.10,0.10,0.10
314.81,0.04,-0.03,0.04,-0.03,0.04,0.18,0.08,0.08,0.08,0.07
317.96,0.01,-0.04,0.01,-0.04,0.04,0.19,0.09,0.05,0.05,0.05
321.14,-0.02,-0.05,-0.02,-0.05,0.05,0.19,0.09,0.03,0.03,0.03
324.35,-0.05,-0.06,-0.05,-0.06,0.06,0.20,0.10,0.01,0.01,0.01
327.59,-0.07,-0.07,-0.07,-0.07,0.07,0.20,0.11,-0.01,-0.01,-0.01
330.87,-0.10,-0.08,-0.10,-0.08,0.07,0.21,0.11,-0.03,-0.03,-0.03
334.18,-0.13,-0.08,-0.13,-0.08,0.08,0.21,0.12,-0.05,-0.05,-0.04
337.52,-0.16,-0.09,-0.16,-0.09,0.09,0.22,0.12,-0.06,-0.06,-0.07
340.90,-0.18,-0.10,-0.18,-0.10,0.10,0.22,0.13,-0.08,-0.08,-0.09
344.30,-0.21,-0.11,-0.21,-0.11,0.11,0.23,0.14,-0.10,-0.10,-0.10
347.75,-0.24,-0.12,-0.24,-0.12,0.12,0.23,0.14,-0.12,-0.12,-0.11
351.23,-0.26,-0.13,-0.26,-0.13,0.13,0.24,0.15,-0.13,-0.13,-0.13
354.74,-0.29,-0.14,-0.29,-0.14,0.14,0.24,0.15,-0.15,-0.15,-0.15
358.28,-0.31,-0.15,-0.31,-0.15,0.15,0.25,0.16,-0.16,-0.16,-0.16
361.87,-0.33,-0.16,-0.33,-0.16,0.16,0.25,0.17,-0.17,-0.17,-0.17
365.49,-0.36,-0.17,-0.36,-0.17,0.17,0.26,0.18,-0.19,-0.19,-0.19
369.14,-0.38,-0.18,-0.38,-0.18,0.18,0.27,0.18,-0.20,-0.20,-0.20
372.83,-0.41,-0.19,-0.41,-0.19,0.19,0.27,0.19,-0.21,-0.21,-0.21
376.56,-0.43,-0.21,-0.43,-0.21,0.20,0.28,0.20,-0.22,-0.22,-0.22
380.33,-0.45,-0.22,-0.45,-0.22,0.21,0.28,0.20,-0.24,-0.24,-0.23
384.13,-0.47,-0.23,-0.47,-0.23,0.22,0.29,0.21,-0.25,-0.25,-0.25
387.97,-0.49,-0.23,-0.49,-0.24,0.23,0.29,0.22,-0.26,-0.26,-0.26
391.85,-0.52,-0.24,-0.52,-0.24,0.24,0.30,0.23,-0.27,-0.27,-0.27
395.77,-0.54,-0.25,-0.54,-0.25,0.25,0.31,0.23,-0.28,-0.28,-0.28
399.73,-0.56,-0.26,-0.56,-0.26,0.27,0.31,0.24,-0.29,-0.29,-0.30
403.72,-0.58,-0.28,-0.58,-0.27,0.28,0.32,0.25,-0.30,-0.30,-0.30
407.76,-0.60,-0.29,-0.60,-0.29,0.29,0.32,0.26,-0.31,-0.31,-0.31
411.84,-0.62,-0.30,-0.62,-0.30,0.30,0.33,0.27,-0.32,-0.32,-0.32
415.96,-0.64,-0.31,-0.64,-0.31,0.31,0.34,0.27,-0.33,-0.33,-0.32
420.12,-0.65,-0.32,-0.65,-0.32,0.32,0.34,0.28,-0.33,-0.33,-0.33
424.32,-0.67,-0.33,-0.67,-0.33,0.33,0.35,0.29,-0.34,-0.34,-0.34
428.56,-0.69,-0.35,-0.69,-0.34,0.34,0.36,0.30,-0.35,-0.35,-0.35
432.85,-0.71,-0.36,-0.71,-0.36,0.36,0.36,0.31,-0.35,-0.35,-0.35
437.18,-0.73,-0.37,-0.73,-0.37,0.37,0.37,0.32,-0.36,-0.36,-0.36
441.55,-0.74,-0.38,-0.74,-0.38,0.38,0.38,0.32,-0.36,-0.36,-0.36
445.96,-0.76,-0.39,-0.76,-0.39,0.39,0.39,0.33,-0.37,-0.37,-0.37
450.42,-0.77,-0.40,-0.77,-0.40,0.40,0.39,0.34,-0.37,-0.37,-0.38
454.93,-0.79,-0.41,-0.79,-0.41,0.41,0.40,0.35,-0.38,-0.38,-0.38
459.48,-0.80,-0.43,-0.80,-0.43,0.42,0.41,0.36,-0.38,-0.38,-0.38
464.07,-0.82,-0.44,-0.82,-0.44,0.44,0.42,0.37,-0.38,-0.38,-0.38
468.71,-0.84,-0.45,-0.84,-0.45,0.45,0.43,0.38,-0.39,-0.39,-0.39
473.40,-0.85,-0.46,-0.85,-0.46,0.46,0.44,0.38,-0.39,-0.39,-0.39
478.13,-0.87,-0.47,-0.87,-0.47,0.47,0.44,0.39,-0.39,-0.39,-0.39
482.91,-0.88,-0.48,-0.88,-0.48,0.49,0.45,0.40,-0.39,-0.39,-0.40
487.74,-0.89,-0.50,-0.89,-0.50,0.50,0.46,0.41,-0.40,-0.40,-0.40
492.62,-0.91,-0.51,-0.91,-0.51,0.51,0.47,0.42,-0.40,-0.40,-0.40
497.55,-0.92,-0.52,-0.92,-0.52,0.52,0.48,0.43,-0.40,-0.40,-0.40
502.52,-0.93,-0.54,-0.93,-0.54,0.53,0.49,0.43,-0.40,-0.40,-0.39
507.55,-0.94,-0.55,-0.94,-0.55,0.54,0.50,0.44,-0.40,-0.40,-0.39
512.62,-0.95,-0.55,-0.95,-0.55,0.56,0.51,0.45,-0.40,-0.40,-0.40
517.75,-0.96,-0.56,-0.96,-0.56,0.57,0.52,0.46,-0.40,-0.40,-0.40
522.93,-0.97,-0.57,-0.97,-0.57,0.58,0.53,0.47,-0.39,-0.39,-0.40
528.16,-0.98,-0.59,-0.98,-0.59,0.59,0.54,0.48,-0.39,-0.39,-0.39
533.44,-0.99,-0.60,-0.99,-0.60,0.60,0.55,0.48,-0.39,-0.39,-0.39
