frequency,raw,error,smoothed,error_smoothed,equalization,parametric_eq,fixed_band_eq,equalized_raw,equalized_smoothed,target
20.00,1.82,-4.66,1.82,-4.66,4.63,-0.01,1.04,6.45,6.45,6.48
20.20,1.88,-4.59,1.88,-4.58,4.57,-0.01,1.07,6.45,6.45,6.47
20.40,1.94,-4.51,1.94,-4.51,4.52,-0.01,1.11,6.46,6.46,6.45
20.61,2.00,-4.44,2.00,-4.45,4.47,-0.01,1.14,6.47,6.47,6.44
20.81,2.06,-4.38,2.06,-4.39,4.42,-0.01,1.17,6.47,6.47,6.44
21.02,2.12,-4.34,2.12,-4.34,4.36,-0.01,1.21,6.48,6.48,6.45
21.23,2.17,-4.30,2.17,-4.30,4.31,-0.01,1.25,6.48,6.48,6.47
21.44,2.23,-4.26,2.23,-4.26,4.25,-0.01,1.29,6.49,6.49,6.49
21.66,2.29,-4.22,2.29,-4.22,4.21,-0.01,1.33,6.50,6.50,6.51
21.87,2.35,-4.17,2.35,-4.17,4.15,-0.01,1.37,6.50,6.50,6.52
22.09,2.40,-4.11,2.40,-4.11,4.10,-0.01,1.41,6.50,6.50,6.52
22.31,2.46,-4.05,2.46,-4.05,4.04,-0.01,1.45,6.49,6.49,6.50
22.54,2.51,-3.98,2.51,-3.97,3.97,-0.02,1.50,6.48,6.48,6.48
22.76,2.56,-3.90,2.56,-3.90,3.90,-0.02,1.54,6.47,6.47,6.46
22.99,2.61,-3.83,2.61,-3.83,3.84,-0.02,1.59,6.45,6.45,6.44
23.22,2.66,-3.76,2.66,-3.76,3.77,-0.02,1.63,6.43,6.43,6.42
23.45,2.71,-3.70,2.71,-3.70,3.70,-0.02,1.68,6.42,6.42,6.41
23.69,2.77,-3.64,2.77,-3.64,3.64,-0.02,1.73,6.41,6.41,6.40
23.92,2.82,-3.58,2.82,-3.58,3.58,-0.02,1.78,6.40,6.40,6.40
24.16,2.87,-3.53,2.87,-3.53,3.53,-0.02,1.83,6.40,6.40,6.40
24.40,2.92,-3.48,2.92,-3.48,3.48,-0.02,1.88,6.40,6.40,6.40
24.65,2.97,-3.43,2.97,-3.43,3.43,-0.02,1.94,6.40,6.40,6.40
24.89,3.02,-3.38,3.02,-3.38,3.38,-0.02,1.99,6.40,6.40,6.39
25.14,3.07,-3.32,3.07,-3.32,3.32,-0.02,2.04,6.39,6.39,6.39
25.39,3.12,-3.27,3.12,-3.27,3.27,-0.02,2.09,6.38,6.38,6.39
25.65,3.17,-3.21,3.17,-3.21,3.21,-0.02,2.15,6.37,6.37,6.38
25.91,3.21,-3.15,3.21,-3.15,3.14,-0.02,2.20,6.35,6.35,6.37
26.16,3.26,-3.08,3.26,-3.08,3.07,-0.02,2.25,6.33,6.33,6.35
26.43,3.31,-3.01,3.31,-3.01,3.00,-0.02,2.30,6.31,6.31,6.32
26.69,3.36,-2.93,3.36,-2.93,2.93,-0.02,2.35,6.29,6.29,6.29
26.96,3.41,-2.85,3.41,-2.85,2.87,-0.02,2.40,6.27,6.27,6.26
27.23,3.45,-2.79,3.45,-2.79,2.80,-0.02,2.45,6.26,6.26,6.24
27.50,3.50,-2.73,3.50,-2.73,2.74,-0.02,2.49,6.24,6.24,6.23
27.77,3.55,-2.68,3.55,-2.68,2.68,-0.02,2.53,6.23,6.23,6.22
28.05,3.59,-2.63,3.59,-2.63,2.63,-0.03,2.57,6.22,6.22,6.22
28.33,3.64,-2.59,3.64,-2.58,2.58,-0.03,2.61,6.21,6.21,6.22
28.62,3.68,-2.54,3.68,-2.54,2.52,-0.03,2.65,6.20,6.20,6.22
28.90,3.72,-2.48,3.72,-2.48,2.47,-0.03,2.68,6.19,6.19,6.20
29.19,3.76,-2.42,3.76,-2.42,2.42,-0.03,2.70,6.18,6.18,6.18
29.48,3.80,-2.36,3.80,-2.36,2.36,-0.03,2.72,6.16,6.16,6.16
29.78,3.84,-2.30,3.84,-2.30,2.31,-0.03,2.74,6.15,6.15,6.14
30.08,3.88,-2.24,3.88,-2.24,2.25,-0.03,2.76,6.13,6.13,6.12
30.38,3.92,-2.19,3.92,-2.19,2.20,-0.03,2.77,6.12,6.12,6.11
30.68,3.96,-2.14,3.96,-2.14,2.15,-0.03,2.77,6.10,6.10,6.10
30.99,3.99,-2.10,3.99,-2.10,2.10,-0.03,2.77,6.09,6.09,6.09
31.30,4.03,-2.05,4.03,-2.05,2.05,-0.03,2.76,6.08,6.08,6.08
31.61,4.07,-2.00,4.07,-2.00,2.00,-0.03,2.75,6.07,6.07,6.07
31.93,4.11,-1.95,4.11,-1.95,1.94,-0.04,2.73,6.05,6.05,6.06
32.24,4.15,-1.89,4.15,-1.89,1.89,-0.04,2.71,6.04,6.04,6.04
32.57,4.18,-1.84,4.18,-1.84,1.84,-0.04,2.68,6.02,6.02,6.02
32.89,4.22,-1.78,4.22,-1.78,1.78,-0.04,2.65,6.00,6.00,5.99
33.22,4.25,-1.72,4.25,-1.72,1.73,-0.04,2.61,5.98,5.98,5.97
33.55,4.29,-1.67,4.29,-1.67,1.67,-0.04,2.57,5.96,5.96,5.95
33.89,4.32,-1.62,4.32,-1.62,1.62,-0.04,2.52,5.94,5.94,5.94
34.23,4.36,-1.57,4.36,-1.57,1.57,-0.04,2.48,5.92,5.92,5.93
34.57,4.39,-1.52,4.39,-1.52,1.52,-0.04,2.42,5.91,5.91,5.91
34.92,4.42,-1.47,4.42,-1.47,1.47,-0.04,2.37,5.89,5.89,5.90
35.27,4.45,-1.42,4.45,-1.42,1.42,-0.05,2.31,5.88,5.88,5.88
35.62,4.48,-1.37,4.48,-1.37,1.38,-0.05,2.24,5.86,5.86,5.85
35.97,4.51,-1.32,4.51,-1.32,1.33,-0.05,2.18,5.84,5.84,5.84
36.33,4.54,-1.28,4.54,-1.28,1.29,-0.05,2.11,5.83,5.83,5.82
36.70,4.57,-1.24,4.57,-1.24,1.24,-0.05,2.04,5.81,5.81,5.81
37.06,4.60,-1.20,4.60,-1.20,1.19,-0.05,1.97,5.79,5.79,5.80
37.43,4.63,-1.15,4.63,-1.15,1.14,-0.05,1.90,5.77,5.77,5.78
37.81,4.66,-1.10,4.66,-1.10,1.09,-0.06,1.83,5.75,5.75,5.75
38.19,4.68,-1.04,4.68,-1.04,1.04,-0.06,1.75,5.72,5.72,5.73
38.57,4.71,-0.98,4.71,-0.99,0.99,-0.06,1.68,5.70,5.70,5.69
38.95,4.74,-0.93,4.74,-0.93,0.94,-0.06,1.61,5.67,5.67,5.67
39.34,4.76,-0.88,4.76,-0.88,0.89,-0.06,1.53,5.65,5.65,5.64
39.74,4.79,-0.84,4.79,-0.84,0.84,-0.06,1.46,5.63,5.63,5.62
40.14,4.81,-0.80,4.81,-0.80,0.80,-0.07,1.38,5.61,5.61,5.61
40.54,4.83,-0.76,4.83,-0.76,0.76,-0.07,1.30,5.59,5.59,5.59
40.94,4.85,-0.72,4.85,-0.72,0.72,-0.07,1.23,5.57,5.57,5.58
41.35,4.88,-0.68,4.88,-0.68,0.68,-0.07,1.16,5.55,5.55,5.56
41.76,4.90,-0.64,4.90,-0.64,0.64,-0.07,1.08,5.53,5.53,5.54
42.18,4.92,-0.60,4.92,-0.60,0.60,-0.08,1.01,5.51,5.51,5.52
42.60,4.94,-0.55,4.94,-0.55,0.56,-0.08,0.93,5.49,5.49,5.49
43.03,4.96,-0.51,4.96,-0.51,0.51,-0.08,0.86,5.47,5.47,5.47
43.46,4.98,-0.47,4.98,-0.47,0.47,-0.08,0.79,5.45,5.45,5.44
43.90,4.99,-0.43,4.99,-0.43,0.43,-0.09,0.71,5.42,5.42,5.42
44.33,5.01,-0.39,5.01,-0.39,0.39,-0.09,0.64,5.40,5.40,5.40
44.78,5.03,-0.35,5.03,-0.35,0.35,-0.09,0.57,5.37,5.37,5.37
45.23,5.04,-0.31,5.04,-0.31,0.30,-0.09,0.50,5.35,5.35,5.35
45.68,5.05,-0.27,5.06,-0.27,0.27,-0.10,0.43,5.32,5.32,5.32
46.13,5.07,-0.23,5.07,-0.23,0.23,-0.10,0.36,5.29,5.29,5.29
46.60,5.08,-0.19,5.08,-0.19,0.19,-0.10,0.29,5.27,5.27,5.27
47.06,5.09,-0.15,5.09,-0.15,0.15,-0.11,0.22,5.24,5.24,5.24
47.53,5.10,-0.11,5.10,-0.11,0.11,-0.11,0.16,5.21,5.21,5.21
48.01,5.11,-0.08,5.11,-0.08,0.08,-0.11,0.09,5.18,5.18,5.18
48.49,5.12,-0.04,5.12,-0.04,0.04,-0.12,0.02,5.16,5.16,5.16
48.97,5.12,-0.01,5.12,-0.01,0.01,-0.12,-0.04,5.13,5.13,5.13
49.46,5.13,0.03,5.13,0.03,-0.03,-0.13,-0.11,5.10,5.10,5.11
49.96,5.14,0.06,5.14,0.06,-0.06,-0.13,-0.17,5.08,5.08,5.08
50.46,5.15,0.09,5.15,0.09,-0.09,-0.14,-0.24,5.05,5.05,5.05
50.96,5.15,0.13,5.15,0.12,-0.12,-0.14,-0.30,5.03,5.03,5.03
51.47,5.15,0.15,5.15,0.15,-0.15,-0.15,-0.36,5.00,5.00,5.00
51.99,5.16,0.18,5.16,0.18,-0.18,-0.15,-0.42,4.98,4.98,4.98
52.51,5.16,0.21,5.16,0.21,-0.21,-0.16,-0.48,4.95,4.95,4.96
53.03,5.17,0.24,5.17,0.24,-0.24,-0.16,-0.54,4.93,4.93,4.93
53.56,5.17,0.27,5.17,0.27,-0.27,-0.17,-0.60,4.90,4.90,4.90
54.10,5.18,0.31,5.18,0.31,-0.30,-0.17,-0.65,4.87,4.87,4.87
54.64,5.18,0.34,5.18,0.34,-0.33,-0.18,-0.71,4.85,4.85,4.84
55.18,5.18,0.37,5.18,0.37,-0.36,-0.19,-0.76,4.82,4.82,4.81
55.74,5.18,0.40,5.18,0.40,-0.39,-0.19,-0.81,4.79,4.79,4.78
56.29,5.18,0.42,5.18,0.42,-0.42,-0.20,-0.85,4.75,4.75,4.75
56.86,5.17,0.45,5.17,0.45,-0.45,-0.21,-0.90,4.72,4.72,4.72
57.42,5.17,0.47,5.17,0.47,-0.48,-0.22,-0.94,4.69,4.69,4.69
58.00,5.16,0.50,5.16,0.50,-0.51,-0.23,-0.98,4.66,4.66,4.66
58.58,5.16,0.53,5.16,0.53,-0.54,-0.23,-1.02,4.62,4.62,4.63
59.16,5.15,0.56,5.15,0.56,-0.57,-0.24,-1.05,4.58,4.58,4.59
59.76,5.15,0.60,5.15,0.60,-0.60,-0.25,-1.08,4.54,4.54,4.55
60.35,5.14,0.63,5.14,0.63,-0.63,-0.26,-1.11,4.51,4.51,4.51
60.96,5.13,0.67,5.13,0.67,-0.66,-0.27,-1.13,4.47,4.47,4.46
61.57,5.12,0.70,5.12,0.70,-0.68,-0.28,-1.15,4.44,4.44,4.42
62.18,5.11,0.72,5.11,0.72,-0.70,-0.30,-1.17,4.41,4.41,4.39
62.80,5.10,0.72,5.10,0.72,-0.72,-0.31,-1.19,4.38,4.38,4.37
63.43,5.08,0.73,5.08,0.73,-0.73,-0.32,-1.20,4.35,4.35,4.36
64.07,5.07,0.73,5.07,0.73,-0.75,-0.33,-1.20,4.32,4.32,4.34
64.71,5.06,0.74,5.06,0.74,-0.76,-0.35,-1.21,4.29,4.29,4.31
65.35,5.04,0.76,5.04,0.76,-0.77,-0.36,-1.21,4.27,4.27,4.28
66.01,5.02,0.79,5.02,0.79,-0.78,-0.38,-1.21,4.24,4.24,4.23
66.67,5.00,0.81,5.00,0.81,-0.80,-0.39,-1.20,4.20,4.20,4.19
67.33,4.98,0.83,4.98,0.83,-0.81,-0.41,-1.20,4.17,4.17,4.15
68.01,4.96,0.83,4.96,0.83,-0.83,-0.43,-1.19,4.13,4.13,4.12
68.69,4.93,0.83,4.93,0.84,-0.85,-0.45,-1.17,4.09,4.09,4.10
69.37,4.91,0.84,4.91,0.85,-0.86,-0.47,-1.16,4.05,4.05,4.07
70.07,4.89,0.86,4.89,0.87,-0.88,-0.49,-1.14,4.01,4.01,4.03
70.77,4.86,0.89,4.87,0.89,-0.89,-0.51,-1.12,3.97,3.97,3.97
71.48,4.84,0.92,4.84,0.91,-0.91,-0.53,-1.10,3.94,3.94,3.92
72.19,4.81,0.93,4.81,0.93,-0.92,-0.55,-1.08,3.90,3.90,3.88
72.91,4.79,0.94,4.79,0.94,-0.93,-0.57,-1.06,3.86,3.86,3.85
73.64,4.76,0.94,4.76,0.94,-0.94,-0.60,-1.04,3.82,3.82,3.82
74.38,4.73,0.95,4.73,0.95,-0.95,-0.62,-1.01,3.78,3.78,3.78
75.12,4.71,0.96,4.71,0.96,-0.96,-0.65,-0.98,3.74,3.74,3.75
75.87,4.68,0.97,4.68,0.97,-0.97,-0.67,-0.96,3.71,3.71,3.71
76.63,4.65,0.97,4.65,0.97,-0.98,-0.70,-0.93,3.67,3.67,3.67
77.40,4.61,0.98,4.61,0.98,-0.99,-0.72,-0.90,3.63,3.63,3.64
78.17,4.58,0.99,4.58,0.99,-0.99,-0.75,-0.88,3.59,3.59,3.59
78.95,4.55,1.00,4.55,1.00,-1.00,-0.78,-0.85,3.55,3.55,3.54
79.74,4.51,1.01,4.51,1.01,-1.00,-0.80,-0.82,3.51,3.51,3.50
80.54,4.48,1.01,4.48,1.01,-1.01,-0.83,-0.80,3.47,3.47,3.46
81.35,4.44,1.01,4.44,1.01,-1.01,-0.85,-0.77,3.43,3.43,3.43
82.16,4.40,1.01,4.40,1.01,-1.01,-0.88,-0.74,3.38,3.38,3.39
82.98,4.36,1.01,4.36,1.01,-1.01,-0.90,-0.72,3.34,3.34,3.35
83.81,4.32,1.01,4.31,1.01,-1.01,-0.92,-0.69,3.30,3.30,3.30
84.65,4.27,1.01,4.27,1.01,-1.01,-0.94,-0.66,3.26,3.26,3.26
85.50,4.23,1.01,4.23,1.01,-1.01,-0.96,-0.64,3.22,3.22,3.22
86.35,4.19,1.01,4.19,1.01,-1.01,-0.98,-0.61,3.18,3.18,3.18
87.22,4.14,1.01,4.14,1.01,-1.01,-0.99,-0.59,3.14,3.14,3.14
88.09,4.10,1.00,4.10,1.01,-1.01,-1.00,-0.56,3.09,3.09,3.10
88.97,4.05,1.00,4.05,1.00,-1.00,-1.01,-0.54,3.05,3.05,3.05
89.86,4.00,1.00,4.00,1.00,-0.99,-1.01,-0.52,3.01,3.01,3.01
90.76,3.95,0.99,3.95,0.99,-0.99,-1.01,-0.49,2.97,2.97,2.96
91.66,3.90,0.98,3.90,0.98,-0.98,-1.01,-0.47,2.92,2.92,2.92
92.58,3.84,0.96,3.84,0.96,-0.96,-1.00,-0.45,2.88,2.88,2.88
93.51,3.78,0.95,3.78,0.95,-0.95,-0.99,-0.43,2.83,2.83,2.83
94.44,3.73,0.94,3.73,0.94,-0.94,-0.98,-0.41,2.79,2.79,2.79
95.39,3.67,0.92,3.67,0.92,-0.92,-0.96,-0.39,2.74,2.74,2.75
96.34,3.61,0.91,3.61,0.91,-0.91,-0.94,-0.37,2.70,2.70,2.70
97.30,3.55,0.89,3.55,0.89,-0.89,-0.92,-0.35,2.66,2.66,2.66
98.28,3.49,0.88,3.49,0.88,-0.88,-0.89,-0.33,2.61,2.61,2.61
99.26,3.43,0.86,3.43,0.86,-0.86,-0.86,-0.31,2.57,2.57,2.57
100.25,3.36,0.84,3.36,0.84,-0.84,-0.83,-0.29,2.52,2.52,2.52
101.25,3.30,0.82,3.30,0.82,-0.82,-0.80,-0.28,2.48,2.48,2.47
102.27,3.23,0.80,3.23,0.80,-0.80,-0.76,-0.26,2.43,2.43,2.43
103.29,3.16,0.78,3.16,0.78,-0.78,-0.73,-0.24,2.38,2.39,2.39
104.32,3.10,0.75,3.10,0.75,-0.76,-0.69,-0.23,2.34,2.34,2.34
105.37,3.03,0.73,3.03,0.73,-0.73,-0.65,-0.21,2.29,2.29,2.29
106.42,2.95,0.71,2.95,0.71,-0.71,-0.61,-0.19,2.25,2.25,2.25
107.48,2.88,0.68,2.88,0.68,-0.68,-0.58,-0.18,2.20,2.20,2.20
108.56,2.81,0.66,2.81,0.66,-0.65,-0.54,-0.16,2.15,2.15,2.15
109.64,2.73,0.63,2.73,0.63,-0.63,-0.50,-0.15,2.11,2.11,2.11
110.74,2.66,0.60,2.66,0.60,-0.59,-0.46,-0.13,2.07,2.06,2.06
111.85,2.58,0.56,2.58,0.56,-0.56,-0.42,-0.12,2.02,2.02,2.02
112.97,2.50,0.53,2.50,0.53,-0.53,-0.38,-0.10,1.98,1.98,1.98
114.10,2.42,0.49,2.42,0.49,-0.49,-0.34,-0.09,1.93,1.93,1.93
115.24,2.34,0.45,2.34,0.45,-0.45,-0.30,-0.08,1.89,1.89,1.89
116.39,2.26,0.41,2.26,0.41,-0.42,-0.26,-0.06,1.84,1.85,1.85
117.55,2.18,0.38,2.18,0.38,-0.38,-0.22,-0.05,1.80,1.80,1.80
118.73,2.10,0.34,2.10,0.34,-0.34,-0.19,-0.04,1.76,1.76,1.76
119.92,2.01,0.30,2.01,0.30,-0.30,-0.15,-0.02,1.71,1.71,1.71
121.12,1.92,0.26,1.92,0.26,-0.25,-0.11,-0.01,1.67,1.67,1.67
122.33,1.83,0.21,1.83,0.21,-0.21,-0.07,0.00,1.62,1.62,1.62
123.55,1.74,0.17,1.74,0.17,-0.17,-0.04,0.02,1.58,1.58,1.58
124.79,1.65,0.12,1.65,0.12,-0.12,0.00,0.03,1.53,1.53,1.53
126.03,1.56,0.07,1.56,0.07,-0.08,0.04,0.04,1.48,1.48,1.48
127.29,1.47,0.03,1.47,0.03,-0.03,0.08,0.05,1.44,1.44,1.44
128.57,1.37,-0.02,1.37,-0.02,0.02,0.11,0.07,1.39,1.39,1.39
129.85,1.28,-0.06,1.28,-0.06,0.06,0.15,0.08,1.34,1.34,1.34
131.15,1.19,-0.11,1.19,-0.11,0.11,0.19,0.09,1.29,1.29,1.29
132.46,1.09,-0.15,1.09,-0.15,0.15,0.23,0.10,1.25,1.25,1.24
133.79,1.00,-0.20,1.00,-0.20,0.20,0.27,0.11,1.20,1.20,1.20
135.12,0.90,-0.24,0.90,-0.24,0.24,0.31,0.13,1.15,1.15,1.14
136.48,0.81,-0.29,0.81,-0.29,0.29,0.35,0.14,1.10,1.10,1.09
137.84,0.71,-0.34,0.71,-0.34,0.34,0.39,0.15,1.05,1.05,1.05
139.22,0.61,-0.39,0.61,-0.39,0.39,0.43,0.17,1.00,1.00,1.00
140.61,0.51,-0.43,0.51,-0.44,0.44,0.47,0.18,0.95,0.95,0.94
142.02,0.41,-0.48,0.41,-0.48,0.48,0.51,0.19,0.90,0.90,0.90
143.44,0.31,-0.53,0.31,-0.53,0.53,0.55,0.20,0.85,0.85,0.85
144.87,0.22,-0.58,0.22,-0.58,0.58,0.60,0.22,0.80,0.80,0.80
146.32,0.12,-0.63,0.12,-0.63,0.63,0.64,0.23,0.75,0.75,0.75
147.78,0.02,-0.68,0.02,-0.68,0.68,0.69,0.24,0.70,0.70,0.70
149.26,-0.07,-0.73,-0.07,-0.73,0.73,0.73,0.26,0.65,0.65,0.65
150.75,-0.17,-0.78,-0.17,-0.78,0.78,0.78,0.27,0.61,0.61,0.61
152.26,-0.26,-0.82,-0.26,-0.82,0.83,0.83,0.29,0.56,0.56,0.56
153.78,-0.36,-0.88,-0.36,-0.88,0.88,0.88,0.30,0.53,0.53,0.52
155.32,-0.45,-0.93,-0.45,-0.94,0.94,0.93,0.32,0.49,0.49,0.48
156.88,-0.54,-1.00,-0.54,-1.00,1.01,0.98,0.33,0.46,0.46,0.46
158.44,-0.63,-1.07,-0.63,-1.07,1.07,1.03,0.35,0.44,0.44,0.44
160.03,-0.72,-1.13,-0.72,-1.14,1.14,1.08,0.36,0.41,0.41,0.41
161.63,-0.81,-1.20,-0.81,-1.20,1.20,1.13,0.38,0.39,0.39,0.40
163.24,-0.89,-1.27,-0.89,-1.27,1.27,1.19,0.40,0.37,0.37,0.38
164.88,-0.97,-1.34,-0.97,-1.33,1.33,1.24,0.41,0.35,0.35,0.37
166.53,-1.05,-1.38,-1.05,-1.38,1.38,1.29,0.43,0.33,0.33,0.33
168.19,-1.12,-1.43,-1.12,-1.43,1.43,1.34,0.45,0.31,0.31,0.31
169.87,-1.20,-1.48,-1.20,-1.48,1.47,1.40,0.47,0.28,0.28,0.28
171.57,-1.27,-1.51,-1.27,-1.51,1.51,1.45,0.49,0.25,0.25,0.25
173.29,-1.34,-1.54,-1.34,-1.55,1.55,1.50,0.51,0.21,0.21,0.21
175.02,-1.40,-1.57,-1.40,-1.57,1.58,1.54,0.53,0.17,0.17,0.17
176.77,-1.46,-1.60,-1.46,-1.60,1.60,1.59,0.55,0.14,0.14,0.13
178.54,-1.52,-1.62,-1.52,-1.62,1.62,1.62,0.57,0.10,0.10,0.10
180.32,-1.58,-1.65,-1.58,-1.64,1.64,1.66,0.59,0.06,0.06,0.07
182.13,-1.63,-1.65,-1.63,-1.65,1.65,1.69,0.61,0.01,0.02,0.01
183.95,-1.68,-1.65,-1.68,-1.65,1.65,1.72,0.63,-0.03,-0.03,-0.03
185.79,-1.73,-1.66,-1.73,-1.65,1.66,1.73,0.65,-0.07,-0.07,-0.07
187.65,-1.77,-1.66,-1.77,-1.65,1.66,1.75,0.68,-0.11,-0.11,-0.11
189.52,-1.81,-1.65,-1.81,-1.65,1.65,1.75,0.70,-0.16,-0.16,-0.16
191.42,-1.84,-1.64,-1.84,-1.64,1.64,1.76,0.72,-0.20,-0.20,-0.20
193.33,-1.88,-1.63,-1.88,-1.63,1.63,1.75,0.75,-0.25,-0.25,-0.24
195.27,-1.90,-1.62,-1.90,-1.62,1.62,1.73,0.77,-0.29,-0.29,-0.29
197.22,-1.92,-1.60,-1.92,-1.60,1.60,1.71,0.79,-0.33,-0.33,-0.33
199.19,-1.94,-1.57,-1.94,-1.58,1.58,1.68,0.82,-0.37,-0.37,-0.37
201.18,-1.96,-1.55,-1.96,-1.55,1.55,1.65,0.84,-0.41,-0.41,-0.41
203.19,-1.97,-1.53,-1.97,-1.52,1.53,1.61,0.87,-0.45,-0.45,-0.45
205.23,-1.98,-1.50,-1.98,-1.50,1.50,1.57,0.89,-0.49,-0.49,-0.49
207.28,-1.99,-1.46,-1.99,-1.47,1.47,1.52,0.91,-0.52,-0.53,-0.53
209.35,-2.00,-1.43,-2.00,-1.43,1.43,1.47,0.94,-0.56,-0.56,-0.56
211.44,-2.00,-1.40,-2.00,-1.40,1.40,1.42,0.96,-0.60,-0.60,-0.60
213.56,-2.00,-1.36,-2.00,-1.36,1.36,1.37,0.98,-0.64,-0.64,-0.64
215.69,-2.00,-1.32,-2.00,-1.32,1.32,1.31,1.00,-0.68,-0.68,-0.68
217.85,-2.00,-1.28,-2.00,-1.28,1.28,1.26,1.03,-0.72,-0.72,-0.72
220.03,-1.99,-1.23,-1.99,-1.23,1.23,1.20,1.05,-0.76,-0.76,-0.76
222.23,-1.98,-1.19,-1.98,-1.19,1.19,1.15,1.06,-0.79,-0.80,-0.79
224.45,-1.97,-1.14,-1.97,-1.14,1.14,1.09,1.08,-0.83,-0.83,-0.83
226.70,-1.96,-1.09,-1.96,-1.09,1.09,1.04,1.10,-0.87,-0.87,-0.87
228.96,-1.95,-1.04,-1.95,-1.05,1.04,0.98,1.11,-0.91,-0.91,-0.91
231.25,-1.94,-1.00,-1.94,-1.00,1.00,0.93,1.13,-0.94,-0.94,-0.94
233.57,-1.92,-0.95,-1.92,-0.95,0.95,0.88,1.14,-0.98,-0.98,-0.97
235.90,-1.91,-0.89,-1.91,-0.90,0.90,0.84,1.15,-1.01,-1.01,-1.01
238.26,-1.89,-0.85,-1.89,-0.85,0.85,0.79,1.15,-1.05,-1.05,-1.05
240.64,-1.88,-0.80,-1.88,-0.80,0.80,0.74,1.16,-1.08,-1.08,-1.08
243.05,-1.86,-0.75,-1.86,-0.75,0.75,0.70,1.16,-1.11,-1.11,-1.11
245.48,-1.85,-0.70,-1.85,-0.70,0.70,0.66,1.16,-1.15,-1.15,-1.14
247.93,-1.83,-0.66,-1.83,-0.65,0.65,0.62,1.16,-1.18,-1.18,-1.18
250.41,-1.81,-0.60,-1.81,-0.60,0.60,0.58,1.16,-1.21,-1.21,-1.21
252.92,-1.80,-0.55,-1.80,-0.55,0.56,0.54,1.15,-1.24,-1.24,-1.24
255.45,-1.78,-0.51,-1.78,-0.51,0.51,0.50,1.14,-1.27,-1.27,-1.28
258.00,-1.77,-0.46,-1.77,-0.46,0.46,0.47,1.13,-1.30,-1.30,-1.30
260.58,-1.75,-0.42,-1.75,-0.42,0.42,0.43,1.12,-1.34,-1.34,-1.33
263.19,-1.74,-0.37,-1.74,-0.37,0.37,0.40,1.10,-1.37,-1.37,-1.37
265.82,-1.72,-0.32,-1.72,-0.33,0.33,0.37,1.08,-1.40,-1.40,-1.40
268.48,-1.71,-0.29,-1.71,-0.28,0.28,0.33,1.06,-1.43,-1.42,-1.42
271.16,-1.70,-0.24,-1.70,-0.24,0.24,0.30,1.04,-1.45,-1.45,-1.45
273.87,-1.68,-0.20,-1.68,-0.20,0.20,0.27,1.02,-1.48,-1.48,-1.48
276.61,-1.67,-0.16,-1.67,-0.16,0.16,0.24,0.99,-1.51,-1.51,-1.51
279.38,-1.66,-0.12,-1.66,-0.12,0.13,0.21,0.96,-1.54,-1.54,-1.54
282.17,-1.65,-0.09,-1.65,-0.09,0.09,0.18,0.93,-1.56,-1.56,-1.56
284.99,-1.64,-0.05,-1.64,-0.05,0.05,0.16,0.90,-1.59,-1.59,-1.59
287.84,-1.63,-0.02,-1.63,-0.02,0.02,0.13,0.87,-1.61,-1.61,-1.61
290.72,-1.62,0.01,-1.62,0.01,-0.01,0.10,0.84,-1.63,-1.63,-1.63
293.63,-1.61,0.04,-1.61,0.04,-0.04,0.07,0.81,-1.66,-1.66,-1.65
296.57,-1.61,0.07,-1.61,0.07,-0.07,0.04,0.77,-1.68,-1.68,-1.68
299.53,-1.60,0.10,-1.60,0.10,-0.10,0.02,0.74,-1.69,-1.69,-1.70
302.53,-1.59,0.12,-1.59,0.12,-0.12,-0.01,0.70,-1.71,-1.71,-1.71
305.55,-1.59,0.14,-1.59,0.14,-0.14,-0.04,0.67,-1.73,-1.73,-1.73
308.61,-1.58,0.17,-1.58,0.16,-0.17,-0.07,0.63,-1.75,-1.75,-1.75
311.69,-1.58,0.18,-1.58,0.19,-0.19,-0.10,0.59,-1.77,-1.77,-1.77
314.81,-1.58,0.21,-1.58,0.21,-0.21,-0.13,0.55,-1.79,-1.79,-1.78
317.96,-1.58,0.23,-1.58,0.23,-0.23,-0.16,0.52,-1.80,-1.80,-1.80
321.14,-1.57,0.25,-1.57,0.25,-0.25,-0.18,0.48,-1.82,-1.82,-1.82
324.35,-1.57,0.26,-1.57,0.27,-0.26,-0.21,0.44,-1.84,-1.84,-1.84
327.59,-1.57,0.28,-1.57,0.28,-0.28,-0.24,0.40,-1.85,-1.85,-1.86
330.87,-1.57,0.30,-1.57,0.30,-0.30,-0.27,0.36,-1.87,-1.87,-1.87
334.18,-1.58,0.31,-1.58,0.31,-0.31,-0.31,0.33,-1.89,-1.89,-1.89
337.52,-1.58,0.32,-1.58,0.33,-0.33,-0.34,0.29,-1.91,-1.90,-1.90
340.90,-1.58,0.34,-1.58,0.34,-0.34,-0.37,0.25,-1.92,-1.92,-1.92
344.30,-1.58,0.35,-1.58,0.35,-0.35,-0.40,0.21,-1.93,-1.94,-1.93
347.75,-1.59,0.37,-1.59,0.36,-0.36,-0.43,0.17,-1.95,-1.95,-1.95
351.23,-1.59,0.38,-1.59,0.38,-0.37,-0.46,0.13,-1.96,-1.96,-1.97
354.74,-1.59,0.38,-1.59,0.38,-0.38,-0.49,0.10,-1.98,-1.98,-1.98
358.28,-1.60,0.39,-1.60,0.39,-0.39,-0.52,0.06,-1.99,-1.99,-1.99
361.87,-1.61,0.40,-1.61,0.40,-0.40,-0.55,0.02,-2.00,-2.00,-2.00
365.49,-1.61,0.40,-1.61,0.40,-0.40,-0.58,-0.02,-2.02,-2.02,-2.01
369.14,-1.62,0.41,-1.62,0.41,-0.41,-0.60,-0.06,-2.03,-2.03,-2.03
372.83,-1.63,0.41,-1.63,0.41,-0.41,-0.63,-0.09,-2.04,-2.04,-2.04
376.56,-1.63,0.41,-1.63,0.42,-0.42,-0.65,-0.13,-2.05,-2.05,-2.05
380.33,-1.64,0.42,-1.64,0.42,-0.42,-0.67,-0.17,-2.06,-2.06,-2.06
384.13,-1.65,0.42,-1.65,0.42,-0.42,-0.69,-0.21,-2.07,-2.07,-2.07
387.97,-1.66,0.42,-1.66,0.42,-0.42,-0.71,-0.24,-2.08,-2.08,-2.08
391.85,-1.67,0.42,-1.67,0.42,-0.42,-0.72,-0.28,-2.09,-2.09,-2.09
395.77,-1.68,0.42,-1.68,0.42,-0.42,-0.73,-0.31,-2.10,-2.10,-2.10
399.73,-1.69,0.42,-1.69,0.42,-0.42,-0.74,-0.35,-2.10,-2.10,-2.10
403.72,-1.69,0.42,-1.69,0.42,-0.42,-0.74,-0.39,-2.11,-2.11,-2.11
407.76,-1.70,0.41,-1.70,0.41,-0.42,-0.74,-0.42,-2.12,-2.12,-2.12
411.84,-1.71,0.41,-1.71,0.41,-0.41,-0.74,-0.46,-2.13,-2.13,-2.13
415.96,-1.72,0.41,-1.72,0.41,-0.41,-0.73,-0.49,-2.13,-2.13,-2.13
420.12,-1.73,0.41,-1.73,0.41,-0.41,-0.72,-0.52,-2.14,-2.14,-2.14
424.32,-1.74,0.41,-1.74,0.41,-0.40,-0.71,-0.55,-2.15,-2.15,-2.15
428.56,-1.75,0.40,-1.75,0.40,-0.40,-0.69,-0.58,-2.15,-2.15,-2.15
432.85,-1.76,0.39,-1.76,0.39,-0.39,-0.67,-0.61,-2.15,-2.15,-2.16
437.18,-1.77,0.38,-1.77,0.38,-0.39,-0.65,-0.64,-2.16,-2.16,-2.16
441.55,-1.78,0.38,-1.78,0.38,-0.38,-0.63,-0.67,-2.16,-2.16,-2.16
445.96,-1.79,0.37,-1.79,0.37,-0.37,-0.61,-0.70,-2.16,-2.16,-2.16
450.42,-1.80,0.36,-1.80,0.36,-0.36,-0.59,-0.72,-2.16,-2.16,-2.16
454.93,-1.81,0.35,-1.81,0.35,-0.35,-0.56,-0.74,-2.16,-2.17,-2.17
459.48,-1.82,0.34,-1.82,0.34,-0.34,-0.54,-0.76,-2.17,-2.17,-2.17
464.07,-1.83,0.33,-1.83,0.33,-0.34,-0.51,-0.78,-2.17,-2.17,-2.17
468.71,-1.84,0.32,-1.84,0.33,-0.33,-0.48,-0.80,-2.17,-2.17,-2.17
473.40,-1.85,0.32,-1.85,0.32,-0.32,-0.46,-0.81,-2.17,-2.17,-2.17
478.13,-1.86,0.31,-1.86,0.31,-0.31,-0.43,-0.82,-2.17,-2.17,-2.17
482.91,-1.87,0.30,-1.87,0.30,-0.30,-0.41,-0.83,-2.17,-2.17,-2.17
487.74,-1.88,0.29,-1.88,0.29,-0.29,-0.38,-0.83,-2.17,-2.16,-2.17
492.62,-1.88,0.28,-1.89,0.28,-0.28,-0.36,-0.84,-2.16,-2.16,-2.16
497.55,-1.89,0.27,-1.89,0.27,-0.27,-0.34,-0.84,-2.16,-2.16,-2.16
502.52,-1.90,0.25,-1.90,0.25,-0.25,-0.31,-0.83,-2.16,-2.16,-2.15
507.55,-1.91,0.24,-1.91,0.24,-0.24,-0.29,-0.83,-2.15,-2.15,-2.15
