frequency,raw,error,smoothed,error_smoothed,equalization,parametric_eq,fixed_band_eq,equalized_raw,equalized_smoothed,target
20.00,-0.24,-9.38,-0.24,-9.38,6.00,5.80,2.69,5.76,5.76,9.14
20.20,-0.18,-9.33,-0.18,-9.33,6.00,5.89,2.77,5.82,5.82,9.15
20.40,-0.13,-9.28,-0.13,-9.28,6.00,5.99,2.85,5.87,5.87,9.15
20.61,-0.08,-9.23,-0.08,-9.23,6.00,6.03,2.93,5.92,5.92,9.16
20.81,-0.03,-9.19,-0.03,-9.19,6.00,6.07,3.01,5.97,5.97,9.16
21.02,0.01,-9.16,0.01,-9.16,6.00,6.06,3.10,6.01,6.01,9.17
21.23,0.05,-9.13,0.05,-9.13,6.00,6.04,3.18,6.05,6.05,9.18
21.44,0.08,-9.10,0.08,-9.10,6.00,6.00,3.28,6.08,6.08,9.18
21.66,0.12,-9.07,0.12,-9.07,6.00,5.97,3.37,6.12,6.12,9.18
21.87,0.15,-9.04,0.15,-9.04,6.00,5.95,3.46,6.15,6.15,9.19
22.09,0.19,-9.01,0.19,-9.01,6.00,5.93,3.56,6.19,6.19,9.19
22.31,0.23,-8.97,0.23,-8.97,6.00,5.93,3.66,6.23,6.23,9.20
22.54,0.27,-8.94,0.27,-8.94,6.00,5.93,3.77,6.27,6.27,9.20
22.76,0.31,-8.90,0.31,-8.90,6.00,5.93,3.88,6.31,6.31,9.21
22.99,0.35,-8.86,0.35,-8.86,6.00,5.94,3.98,6.35,6.35,9.21
23.22,0.39,-8.83,0.39,-8.83,6.00,5.94,4.10,6.39,6.39,9.22
23.45,0.43,-8.80,0.43,-8.79,6.00,5.94,4.21,6.43,6.43,9.22
23.69,0.46,-8.77,0.46,-8.77,6.00,5.94,4.33,6.46,6.46,9.23
23.92,0.49,-8.74,0.49,-8.74,6.00,5.94,4.45,6.49,6.49,9.23
24.16,0.53,-8.71,0.53,-8.71,6.00,5.94,4.57,6.53,6.53,9.23
24.40,0.56,-8.68,0.56,-8.68,6.00,5.93,4.69,6.56,6.56,9.23
24.65,0.59,-8.65,0.59,-8.65,6.00,5.93,4.82,6.59,6.59,9.23
24.89,0.62,-8.62,0.62,-8.62,6.00,5.92,4.94,6.62,6.62,9.23
25.14,0.65,-8.59,0.65,-8.59,6.00,5.92,5.07,6.65,6.65,9.23
25.39,0.68,-8.56,0.68,-8.56,6.00,5.91,5.20,6.68,6.68,9.23
25.65,0.70,-8.53,0.70,-8.53,6.00,5.91,5.33,6.70,6.70,9.23
25.91,0.73,-8.51,0.73,-8.51,6.00,5.90,5.46,6.73,6.73,9.23
26.16,0.75,-8.48,0.75,-8.49,6.00,5.90,5.59,6.75,6.75,9.24
26.43,0.77,-8.46,0.77,-8.46,6.00,5.89,5.72,6.77,6.77,9.24
26.69,0.80,-8.44,0.80,-8.44,6.00,5.89,5.85,6.80,6.80,9.24
26.96,0.82,-8.42,0.82,-8.42,6.00,5.89,5.98,6.82,6.82,9.24
27.23,0.85,-8.39,0.85,-8.39,6.00,5.89,6.11,6.85,6.85,9.24
27.50,0.88,-8.36,0.88,-8.36,6.00,5.89,6.23,6.88,6.88,9.24
27.77,0.91,-8.32,0.91,-8.32,6.00,5.89,6.35,6.91,6.91,9.23
28.05,0.94,-8.29,0.94,-8.29,6.00,5.89,6.47,6.94,6.94,9.23
28.33,0.97,-8.25,0.97,-8.25,6.00,5.89,6.58,6.97,6.97,9.22
28.62,0.99,-8.22,0.99,-8.22,6.00,5.89,6.68,6.99,6.99,9.22
28.90,1.02,-8.19,1.02,-8.20,6.00,5.90,6.78,7.02,7.02,9.21
29.19,1.04,-8.17,1.04,-8.17,6.00,5.90,6.87,7.04,7.04,9.21
29.48,1.06,-8.14,1.06,-8.14,6.00,5.91,6.95,7.06,7.06,9.20
29.78,1.09,-8.11,1.09,-8.11,6.00,5.92,7.03,7.09,7.09,9.20
30.08,1.12,-8.08,1.12,-8.08,6.00,5.92,7.09,7.12,7.12,9.20
30.38,1.15,-8.04,1.15,-8.04,6.00,5.93,7.15,7.15,7.15,9.19
30.68,1.18,-8.00,1.18,-8.00,6.00,5.94,7.20,7.18,7.18,9.18
30.99,1.21,-7.96,1.21,-7.96,6.00,5.95,7.24,7.21,7.21,9.17
31.30,1.24,-7.92,1.24,-7.92,6.00,5.96,7.26,7.24,7.24,9.16
31.61,1.27,-7.88,1.27,-7.88,6.00,5.97,7.28,7.27,7.27,9.15
31.93,1.29,-7.85,1.29,-7.85,6.00,5.98,7.28,7.29,7.29,9.14
32.24,1.31,-7.81,1.31,-7.81,6.00,5.99,7.28,7.31,7.31,9.12
32.57,1.33,-7.78,1.33,-7.78,6.00,6.00,7.26,7.33,7.33,9.11
32.89,1.36,-7.74,1.36,-7.74,6.00,6.01,7.24,7.36,7.36,9.10
33.22,1.38,-7.71,1.38,-7.71,6.00,6.02,7.20,7.38,7.38,9.08
33.55,1.40,-7.67,1.40,-7.67,6.00,6.03,7.16,7.40,7.40,9.07
33.89,1.43,-7.63,1.43,-7.63,6.00,6.04,7.11,7.43,7.43,9.06
34.23,1.45,-7.60,1.45,-7.60,6.00,6.05,7.06,7.45,7.45,9.05
34.57,1.47,-7.57,1.47,-7.57,6.00,6.06,7.00,7.47,7.47,9.04
34.92,1.49,-7.53,1.49,-7.53,6.00,6.07,6.93,7.49,7.49,9.03
35.27,1.51,-7.50,1.51,-7.50,6.00,6.08,6.86,7.51,7.51,9.01
35.62,1.53,-7.47,1.53,-7.47,6.00,6.09,6.79,7.53,7.53,9.00
35.97,1.55,-7.43,1.55,-7.43,6.00,6.10,6.71,7.55,7.55,8.98
36.33,1.57,-7.40,1.57,-7.40,6.00,6.11,6.63,7.57,7.57,8.96
36.70,1.58,-7.36,1.58,-7.36,6.00,6.12,6.55,7.58,7.58,8.95
37.06,1.60,-7.32,1.60,-7.32,6.00,6.12,6.48,7.60,7.60,8.93
37.43,1.62,-7.29,1.62,-7.29,6.00,6.13,6.40,7.62,7.62,8.91
37.81,1.63,-7.25,1.63,-7.25,6.00,6.14,6.32,7.63,7.63,8.89
38.19,1.65,-7.22,1.65,-7.22,6.00,6.14,6.24,7.65,7.65,8.87
38.57,1.67,-7.18,1.67,-7.18,6.00,6.14,6.16,7.67,7.67,8.85
38.95,1.68,-7.14,1.68,-7.15,6.00,6.15,6.09,7.68,7.68,8.83
39.34,1.70,-7.11,1.70,-7.11,6.00,6.15,6.02,7.70,7.70,8.81
39.74,1.71,-7.08,1.71,-7.08,6.00,6.15,5.95,7.71,7.71,8.79
40.14,1.73,-7.04,1.73,-7.04,6.00,6.15,5.88,7.73,7.73,8.77
40.54,1.74,-7.01,1.74,-7.01,6.00,6.15,5.82,7.74,7.74,8.75
40.94,1.76,-6.97,1.76,-6.97,6.00,6.15,5.76,7.76,7.76,8.73
41.35,1.77,-6.93,1.77,-6.93,6.00,6.15,5.70,7.77,7.77,8.71
41.76,1.79,-6.89,1.79,-6.89,6.00,6.14,5.65,7.79,7.79,8.68
42.18,1.80,-6.86,1.80,-6.86,6.00,6.14,5.60,7.80,7.80,8.66
42.60,1.82,-6.82,1.82,-6.82,6.00,6.13,5.55,7.82,7.82,8.64
43.03,1.83,-6.79,1.83,-6.79,6.00,6.12,5.51,7.83,7.83,8.62
43.46,1.85,-6.75,1.85,-6.75,6.00,6.12,5.48,7.85,7.85,8.60
43.90,1.86,-6.72,1.86,-6.72,6.00,6.11,5.45,7.86,7.86,8.58
44.33,1.88,-6.68,1.88,-6.68,6.00,6.10,5.42,7.88,7.88,8.56
44.78,1.90,-6.63,1.90,-6.63,6.00,6.09,5.39,7.90,7.90,8.53
45.23,1.91,-6.59,1.91,-6.59,6.00,6.07,5.37,7.91,7.91,8.50
45.68,1.93,-6.55,1.93,-6.55,6.00,6.06,5.36,7.93,7.93,8.48
46.13,1.94,-6.51,1.94,-6.51,6.00,6.04,5.34,7.94,7.94,8.45
46.60,1.96,-6.47,1.96,-6.47,6.00,6.03,5.34,7.96,7.96,8.43
47.06,1.97,-6.44,1.97,-6.44,6.00,6.01,5.33,7.97,7.97,8.40
47.53,1.98,-6.40,1.98,-6.40,6.00,5.99,5.33,7.98,7.98,8.38
48.01,1.99,-6.36,1.99,-6.36,6.00,5.97,5.33,7.99,7.99,8.35
48.49,2.00,-6.33,2.00,-6.33,6.00,5.95,5.34,8.00,8.00,8.32
48.97,2.00,-6.29,2.00,-6.29,6.01,5.93,5.35,8.01,8.01,8.29
49.46,2.01,-6.25,2.01,-6.25,6.01,5.90,5.36,8.02,8.02,8.26
49.96,2.02,-6.20,2.02,-6.20,6.01,5.88,5.38,8.03,8.03,8.22
50.46,2.03,-6.16,2.03,-6.16,6.01,5.85,5.40,8.04,8.04,8.19
50.96,2.05,-6.11,2.05,-6.11,5.99,5.83,5.42,8.05,8.05,8.16
51.47,2.08,-6.06,2.08,-6.05,5.97,5.80,5.44,8.05,8.05,8.13
51.99,2.11,-5.99,2.11,-5.99,5.94,5.77,5.46,8.05,8.05,8.10
52.51,2.14,-5.92,2.14,-5.92,5.90,5.74,5.49,8.04,8.04,8.06
53.03,2.18,-5.85,2.18,-5.85,5.86,5.71,5.52,8.04,8.04,8.03
53.56,2.21,-5.78,2.21,-5.79,5.82,5.67,5.54,8.02,8.02,7.99
54.10,2.22,-5.73,2.22,-5.73,5.77,5.64,5.57,8.00,7.99,7.96
54.64,2.22,-5.70,2.22,-5.70,5.73,5.61,5.60,7.95,7.95,7.92
55.18,2.20,-5.68,2.20,-5.68,5.68,5.57,5.62,7.89,7.89,7.88
55.74,2.18,-5.66,2.19,-5.66,5.64,5.53,5.64,7.83,7.83,7.85
56.29,2.18,-5.63,2.18,-5.63,5.61,5.50,5.66,7.79,7.79,7.81
56.86,2.18,-5.59,2.19,-5.59,5.57,5.46,5.68,7.75,7.75,7.77
57.42,2.20,-5.53,2.20,-5.53,5.53,5.42,5.70,7.73,7.73,7.73
58.00,2.22,-5.48,2.22,-5.48,5.48,5.38,5.71,7.70,7.70,7.69
58.58,2.23,-5.42,2.23,-5.42,5.43,5.34,5.72,7.66,7.66,7.65
59.16,2.24,-5.37,2.24,-5.37,5.38,5.30,5.72,7.62,7.62,7.61
59.76,2.25,-5.32,2.25,-5.32,5.33,5.25,5.72,7.58,7.58,7.57
60.35,2.26,-5.28,2.26,-5.28,5.28,5.21,5.72,7.54,7.54,7.54
60.96,2.26,-5.23,2.27,-5.23,5.24,5.16,5.70,7.50,7.50,7.50
61.57,2.27,-5.19,2.27,-5.19,5.19,5.12,5.69,7.46,7.46,7.46
62.18,2.28,-5.15,2.28,-5.15,5.15,5.07,5.66,7.42,7.42,7.43
62.80,2.28,-5.11,2.28,-5.11,5.10,5.03,5.63,7.38,7.38,7.39
63.43,2.29,-5.06,2.29,-5.06,5.06,4.98,5.59,7.34,7.34,7.35
64.07,2.29,-5.01,2.29,-5.01,5.01,4.93,5.55,7.30,7.30,7.31
64.71,2.30,-4.96,2.30,-4.96,4.96,4.88,5.50,7.26,7.26,7.26
65.35,2.31,-4.90,2.31,-4.90,4.90,4.84,5.45,7.21,7.21,7.21
66.01,2.32,-4.85,2.32,-4.85,4.84,4.79,5.39,7.17,7.17,7.17
66.67,2.33,-4.79,2.33,-4.79,4.79,4.74,5.32,7.12,7.12,7.12
67.33,2.34,-4.72,2.34,-4.72,4.72,4.69,5.25,7.07,7.07,7.07
68.01,2.35,-4.66,2.35,-4.66,4.66,4.64,5.18,7.02,7.02,7.02
68.69,2.36,-4.60,2.36,-4.60,4.60,4.58,5.10,6.96,6.96,6.96
69.37,2.37,-4.54,2.37,-4.54,4.54,4.53,5.02,6.91,6.91,6.91
70.07,2.38,-4.48,2.37,-4.48,4.49,4.48,4.93,6.86,6.86,6.86
70.77,2.38,-4.43,2.38,-4.43,4.43,4.43,4.84,6.81,6.81,6.81
71.48,2.39,-4.38,2.39,-4.38,4.38,4.37,4.75,6.76,6.76,6.76
72.19,2.39,-4.33,2.39,-4.33,4.33,4.32,4.66,6.72,6.72,6.72
72.91,2.40,-4.28,2.40,-4.28,4.28,4.27,4.57,6.67,6.67,6.67
73.64,2.40,-4.23,2.40,-4.23,4.23,4.21,4.47,6.63,6.63,6.63
74.38,2.41,-4.18,2.41,-4.18,4.18,4.16,4.38,6.59,6.59,6.59
75.12,2.42,-4.13,2.42,-4.13,4.13,4.10,4.28,6.55,6.55,6.55
75.87,2.43,-4.08,2.43,-4.08,4.08,4.05,4.19,6.51,6.51,6.51
76.63,2.43,-4.03,2.43,-4.03,4.03,3.99,4.09,6.46,6.46,6.46
77.40,2.44,-3.97,2.44,-3.97,3.97,3.94,4.00,6.41,6.41,6.41
78.17,2.45,-3.92,2.45,-3.92,3.92,3.88,3.90,6.36,6.36,6.36
78.95,2.45,-3.86,2.45,-3.86,3.86,3.83,3.81,6.31,6.31,6.31
79.74,2.46,-3.80,2.46,-3.80,3.80,3.77,3.72,6.26,6.26,6.26
80.54,2.46,-3.74,2.46,-3.74,3.74,3.71,3.63,6.20,6.20,6.20
81.35,2.46,-3.68,2.46,-3.68,3.68,3.66,3.54,6.14,6.14,6.15
82.16,2.47,-3.62,2.47,-3.62,3.62,3.60,3.46,6.09,6.09,6.09
82.98,2.47,-3.56,2.47,-3.55,3.55,3.54,3.37,6.03,6.03,6.03
83.81,2.48,-3.49,2.48,-3.49,3.49,3.49,3.29,5.96,5.96,5.97
84.65,2.49,-3.42,2.49,-3.42,3.42,3.43,3.21,5.90,5.90,5.90
85.50,2.49,-3.35,2.49,-3.35,3.35,3.37,3.13,5.84,5.84,5.84
86.35,2.50,-3.28,2.50,-3.28,3.28,3.32,3.05,5.78,5.78,5.78
87.22,2.50,-3.22,2.50,-3.22,3.22,3.26,2.98,5.72,5.72,5.72
88.09,2.51,-3.16,2.51,-3.15,3.16,3.20,2.91,5.66,5.66,5.66
88.97,2.51,-3.09,2.51,-3.09,3.10,3.15,2.84,5.61,5.61,5.60
89.86,2.51,-3.03,2.52,-3.03,3.04,3.09,2.77,5.55,5.55,5.55
90.76,2.52,-2.98,2.52,-2.98,2.98,3.03,2.71,5.50,5.50,5.50
91.66,2.52,-2.93,2.52,-2.93,2.93,2.98,2.64,5.46,5.46,5.45
92.58,2.53,-2.88,2.53,-2.88,2.88,2.92,2.58,5.41,5.41,5.41
93.51,2.53,-2.83,2.53,-2.83,2.83,2.86,2.52,5.36,5.36,5.36
94.44,2.53,-2.78,2.53,-2.79,2.78,2.80,2.47,5.31,5.31,5.31
95.39,2.53,-2.73,2.53,-2.73,2.73,2.75,2.41,5.26,5.26,5.26
96.34,2.53,-2.68,2.53,-2.68,2.68,2.69,2.36,5.21,5.21,5.21
97.30,2.53,-2.62,2.53,-2.62,2.62,2.63,2.31,5.15,5.15,5.16
98.28,2.53,-2.57,2.53,-2.57,2.56,2.58,2.26,5.10,5.10,5.10
99.26,2.53,-2.51,2.53,-2.51,2.50,2.52,2.21,5.04,5.04,5.04
100.25,2.54,-2.44,2.54,-2.44,2.44,2.46,2.16,4.98,4.98,4.98
101.25,2.54,-2.38,2.54,-2.38,2.38,2.41,2.12,4.92,4.92,4.92
102.27,2.55,-2.31,2.55,-2.31,2.31,2.35,2.07,4.86,4.86,4.86
103.29,2.56,-2.25,2.56,-2.25,2.25,2.29,2.03,4.81,4.81,4.80
104.32,2.56,-2.18,2.56,-2.18,2.18,2.24,1.99,4.75,4.75,4.74
105.37,2.57,-2.12,2.57,-2.12,2.12,2.18,1.95,4.69,4.69,4.68
106.42,2.57,-2.06,2.57,-2.06,2.06,2.12,1.91,4.63,4.63,4.62
107.48,2.57,-2.00,2.57,-2.00,2.00,2.07,1.88,4.57,4.57,4.57
108.56,2.57,-1.94,2.57,-1.94,1.94,2.01,1.84,4.51,4.51,4.51
109.64,2.57,-1.88,2.57,-1.88,1.88,1.95,1.80,4.45,4.45,4.45
110.74,2.57,-1.82,2.57,-1.82,1.82,1.90,1.77,4.40,4.40,4.40
111.85,2.58,-1.77,2.58,-1.77,1.77,1.84,1.73,4.34,4.34,4.34
112.97,2.58,-1.71,2.58,-1.71,1.70,1.79,1.70,4.28,4.28,4.29
114.10,2.58,-1.65,2.58,-1.65,1.64,1.73,1.66,4.23,4.23,4.23
115.24,2.59,-1.58,2.59,-1.58,1.58,1.67,1.63,4.16,4.16,4.17
116.39,2.59,-1.52,2.59,-1.52,1.51,1.62,1.60,4.10,4.10,4.11
117.55,2.59,-1.45,2.59,-1.45,1.45,1.56,1.56,4.04,4.04,4.04
118.73,2.59,-1.38,2.59,-1.38,1.39,1.51,1.53,3.98,3.98,3.97
119.92,2.59,-1.31,2.59,-1.32,1.32,1.45,1.50,3.92,3.92,3.91
121.12,2.59,-1.26,2.59,-1.26,1.27,1.40,1.46,3.86,3.86,3.85
122.33,2.59,-1.21,2.59,-1.21,1.21,1.34,1.43,3.80,3.80,3.80
123.55,2.59,-1.16,2.59,-1.16,1.16,1.29,1.39,3.75,3.75,3.75
124.79,2.59,-1.11,2.59,-1.11,1.11,1.23,1.36,3.70,3.70,3.70
126.03,2.58,-1.07,2.58,-1.07,1.07,1.18,1.32,3.65,3.65,3.65
127.29,2.58,-1.03,2.58,-1.03,1.03,1.13,1.29,3.61,3.61,3.61
128.57,2.57,-0.99,2.57,-0.99,0.99,1.07,1.25,3.56,3.56,3.56
129.85,2.56,-0.95,2.56,-0.95,0.95,1.02,1.22,3.52,3.52,3.51
131.15,2.55,-0.91,2.55,-0.92,0.92,0.97,1.18,3.47,3.47,3.47
132.46,2.54,-0.88,2.54,-0.88,0.87,0.91,1.14,3.42,3.42,3.42
133.79,2.53,-0.84,2.53,-0.84,0.83,0.86,1.10,3.37,3.37,3.37
135.12,2.52,-0.79,2.52,-0.79,0.79,0.81,1.06,3.31,3.31,3.32
136.48,2.51,-0.75,2.51,-0.74,0.74,0.75,1.03,3.25,3.25,3.26
137.84,2.51,-0.69,2.51,-0.69,0.69,0.70,0.99,3.20,3.20,3.20
139.22,2.50,-0.64,2.50,-0.64,0.64,0.65,0.95,3.14,3.14,3.14
140.61,2.51,-0.58,2.51,-0.58,0.58,0.60,0.91,3.09,3.09,3.09
142.02,2.51,-0.52,2.51,-0.52,0.53,0.55,0.87,3.04,3.04,3.04
143.44,2.52,-0.47,2.52,-0.47,0.47,0.50,0.82,2.99,2.99,2.99
144.87,2.53,-0.41,2.53,-0.42,0.42,0.45,0.78,2.95,2.94,2.94
146.32,2.54,-0.36,2.54,-0.36,0.36,0.40,0.74,2.90,2.90,2.90
147.78,2.54,-0.31,2.54,-0.31,0.31,0.35,0.70,2.86,2.86,2.86
149.26,2.55,-0.26,2.55,-0.26,0.27,0.30,0.66,2.81,2.81,2.81
150.75,2.55,-0.22,2.55,-0.22,0.22,0.25,0.62,2.77,2.77,2.77
152.26,2.55,-0.18,2.55,-0.18,0.18,0.20,0.57,2.73,2.73,2.73
153.78,2.55,-0.14,2.55,-0.14,0.14,0.15,0.53,2.69,2.69,2.69
155.32,2.55,-0.10,2.55,-0.10,0.10,0.10,0.49,2.65,2.65,2.65
156.88,2.54,-0.07,2.54,-0.07,0.07,0.06,0.45,2.61,2.61,2.62
158.44,2.54,-0.04,2.54,-0.04,0.04,0.01,0.40,2.59,2.59,2.59
160.03,2.54,-0.01,2.54,-0.01,0.02,-0.04,0.36,2.56,2.56,2.56
161.63,2.54,0.01,2.54,0.01,0.00,-0.08,0.32,2.54,2.54,2.53
163.24,2.53,0.02,2.53,0.02,-0.01,-0.13,0.27,2.52,2.52,2.51
164.88,2.53,0.03,2.53,0.03,-0.02,-0.17,0.23,2.51,2.51,2.49
166.53,2.51,0.03,2.51,0.03,-0.03,-0.21,0.19,2.49,2.49,2.48
168.19,2.50,0.03,2.50,0.03,-0.04,-0.26,0.14,2.46,2.46,2.47
169.87,2.49,0.04,2.49,0.04,-0.06,-0.30,0.10,2.43,2.43,2.45
171.57,2.47,0.06,2.48,0.06,-0.08,-0.34,0.05,2.39,2.39,2.41
173.29,2.46,0.10,2.46,0.10,-0.12,-0.38,0.01,2.34,2.34,2.36
175.02,2.45,0.15,2.45,0.15,-0.17,-0.42,-0.03,2.29,2.29,2.30
176.77,2.44,0.22,2.44,0.22,-0.22,-0.46,-0.08,2.22,2.22,2.23
178.54,2.44,0.29,2.44,0.29,-0.28,-0.49,-0.12,2.16,2.16,2.15
180.32,2.43,0.36,2.43,0.36,-0.34,-0.53,-0.17,2.09,2.09,2.08
182.13,2.43,0.42,2.43,0.42,-0.41,-0.57,-0.21,2.03,2.03,2.01
183.95,2.44,0.48,2.43,0.48,-0.47,-0.60,-0.26,1.97,1.97,1.96
185.79,2.44,0.53,2.44,0.53,-0.53,-0.63,-0.30,1.91,1.91,1.91
187.65,2.44,0.58,2.44,0.58,-0.58,-0.67,-0.35,1.86,1.86,1.86
189.52,2.44,0.62,2.44,0.62,-0.62,-0.70,-0.40,1.82,1.82,1.82
191.42,2.45,0.67,2.45,0.67,-0.67,-0.73,-0.44,1.78,1.78,1.78
193.33,2.45,0.71,2.45,0.71,-0.71,-0.76,-0.49,1.74,1.74,1.74
195.27,2.45,0.75,2.45,0.75,-0.75,-0.79,-0.53,1.70,1.70,1.70
197.22,2.45,0.79,2.45,0.79,-0.79,-0.81,-0.58,1.66,1.66,1.67
199.19,2.45,0.82,2.45,0.82,-0.82,-0.84,-0.62,1.63,1.63,1.63
201.18,2.45,0.86,2.45,0.86,-0.86,-0.86,-0.67,1.59,1.59,1.59
203.19,2.44,0.89,2.44,0.89,-0.89,-0.89,-0.71,1.56,1.55,1.55
205.23,2.44,0.92,2.44,0.92,-0.91,-0.91,-0.76,1.52,1.52,1.52
207.28,2.43,0.94,2.43,0.94,-0.94,-0.93,-0.80,1.49,1.49,1.49
209.35,2.43,0.96,2.42,0.96,-0.96,-0.95,-0.85,1.47,1.47,1.46
211.44,2.42,0.98,2.42,0.98,-0.98,-0.97,-0.89,1.44,1.44,1.44
213.56,2.41,0.99,2.41,0.99,-0.99,-0.99,-0.93,1.41,1.41,1.41
215.69,2.40,1.01,2.40,1.01,-1.01,-1.00,-0.97,1.39,1.39,1.39
217.85,2.38,1.02,2.38,1.02,-1.02,-1.01,-1.01,1.36,1.36,1.36
220.03,2.37,1.03,2.37,1.03,-1.04,-1.03,-1.05,1.34,1.34,1.34
222.23,2.37,1.05,2.37,1.05,-1.05,-1.04,-1.08,1.31,1.31,1.32
224.45,2.36,1.06,2.36,1.06,-1.07,-1.05,-1.12,1.29,1.29,1.29
226.70,2.35,1.08,2.35,1.08,-1.08,-1.06,-1.15,1.27,1.27,1.27
228.96,2.34,1.09,2.34,1.09,-1.09,-1.07,-1.18,1.25,1.25,1.25
231.25,2.34,1.10,2.34,1.10,-1.10,-1.07,-1.21,1.23,1.23,1.23
233.57,2.33,1.11,2.33,1.11,-1.11,-1.08,-1.24,1.22,1.22,1.22
235.90,2.32,1.12,2.32,1.12,-1.12,-1.08,-1.26,1.20,1.20,1.20
238.26,2.32,1.13,2.32,1.13,-1.13,-1.08,-1.28,1.19,1.19,1.19
240.64,2.31,1.13,2.31,1.13,-1.13,-1.09,-1.30,1.18,1.18,1.18
243.05,2.30,1.13,2.30,1.13,-1.14,-1.09,-1.31,1.16,1.16,1.16
245.48,2.29,1.14,2.29,1.14,-1.14,-1.08,-1.32,1.15,1.15,1.15
247.93,2.27,1.14,2.27,1.14,-1.14,-1.08,-1.33,1.14,1.14,1.13
250.41,2.26,1.14,2.26,1.14,-1.13,-1.08,-1.34,1.13,1.13,1.12
252.92,2.24,1.13,2.24,1.13,-1.13,-1.07,-1.34,1.11,1.11,1.11
255.45,2.23,1.13,2.23,1.13,-1.13,-1.07,-1.34,1.10,1.10,1.10
258.00,2.21,1.12,2.21,1.12,-1.12,-1.06,-1.33,1.09,1.09,1.09
260.58,2.19,1.11,2.19,1.11,-1.12,-1.05,-1.33,1.07,1.07,1.08
263.19,2.17,1.11,2.17,1.11,-1.11,-1.05,-1.32,1.06,1.06,1.06
265.82,2.15,1.11,2.15,1.11,-1.11,-1.04,-1.30,1.05,1.05,1.05
268.48,2.14,1.10,2.14,1.10,-1.10,-1.02,-1.29,1.04,1.04,1.03
271.16,2.12,1.10,2.12,1.10,-1.09,-1.01,-1.27,1.03,1.02,1.02
273.87,2.10,1.09,2.09,1.09,-1.08,-1.00,-1.25,1.01,1.01,1.01
276.61,2.07,1.07,2.07,1.07,-1.07,-0.99,-1.23,1.00,1.00,1.00
279.38,2.05,1.06,2.05,1.06,-1.06,-0.97,-1.20,0.99,0.99,0.99
282.17,2.02,1.04,2.02,1.04,-1.04,-0.96,-1.18,0.98,0.98,0.98
284.99,2.00,1.02,2.00,1.02,-1.03,-0.94,-1.15,0.97,0.97,0.97
287.84,1.97,1.01,1.97,1.01,-1.01,-0.93,-1.12,0.96,0.96,0.97
290.72,1.95,0.99,1.95,0.99,-0.99,-0.91,-1.09,0.96,0.96,0.96
293.63,1.92,0.97,1.92,0.97,-0.98,-0.89,-1.06,0.95,0.95,0.95
296.57,1.90,0.96,1.90,0.96,-0.96,-0.88,-1.03,0.94,0.94,0.94
299.53,1.88,0.94,1.88,0.94,-0.94,-0.86,-0.99,0.94,0.94,0.94
302.53,1.86,0.93,1.86,0.93,-0.93,-0.84,-0.96,0.93,0.93,0.93
305.55,1.84,0.91,1.84,0.91,-0.91,-0.82,-0.92,0.93,0.93,0.93
308.61,1.82,0.89,1.82,0.89,-0.89,-0.80,-0.89,0.92,0.92,0.92
311.69,1.80,0.87,1.80,0.87,-0.87,-0.78,-0.85,0.92,0.92,0.92
314.81,1.77,0.85,1.77,0.85,-0.85,-0.76,-0.82,0.92,0.92,0.92
317.96,1.75,0.83,1.75,0.83,-0.83,-0.74,-0.78,0.92,0.92,0.92
321.14,1.72,0.81,1.72,0.81,-0.80,-0.71,-0.75,0.92,0.92,0.92
324.35,1.70,0.78,1.70,0.78,-0.78,-0.69,-0.71,0.92,0.92,0.92
327.59,1.67,0.75,1.67,0.75,-0.75,-0.67,-0.68,0.92,0.92,0.92
330.87,1.64,0.72,1.64,0.72,-0.72,-0.65,-0.64,0.92,0.92,0.92
334.18,1.61,0.69,1.61,0.69,-0.69,-0.62,-0.61,0.91,0.91,0.92
337.52,1.58,0.66,1.58,0.66,-0.66,-0.60,-0.57,0.91,0.91,0.91
340.90,1.55,0.63,1.55,0.63,-0.64,-0.58,-0.54,0.91,0.91,0.91
344.30,1.52,0.61,1.52,0.61,-0.61,-0.56,-0.51,0.91,0.91,0.91
347.75,1.48,0.58,1.48,0.58,-0.58,-0.53,-0.47,0.91,0.91,0.91
351.23,1.45,0.55,1.45,0.55,-0.55,-0.51,-0.44,0.90,0.90,0.90
354.74,1.42,0.52,1.42,0.52,-0.52,-0.48,-0.41,0.90,0.90,0.90
358.28,1.38,0.49,1.38,0.49,-0.48,-0.46,-0.38,0.90,0.90,0.90
361.87,1.35,0.45,1.35,0.45,-0.45,-0.44,-0.35,0.89,0.89,0.89
365.49,1.31,0.42,1.31,0.42,-0.42,-0.41,-0.31,0.89,0.89,0.89
369.14,1.28,0.39,1.28,0.39,-0.39,-0.39,-0.28,0.89,0.89,0.89
372.83,1.24,0.36,1.24,0.36,-0.35,-0.36,-0.25,0.89,0.89,0.89
376.56,1.20,0.32,1.20,0.32,-0.32,-0.34,-0.22,0.88,0.88,0.88
380.33,1.17,0.29,1.17,0.29,-0.29,-0.31,-0.19,0.88,0.88,0.88
384.13,1.13,0.25,1.13,0.25,-0.25,-0.29,-0.17,0.87,0.87,0.87
387.97,1.09,0.22,1.09,0.22,-0.22,-0.27,-0.14,0.87,0.87,0.87
391.85,1.05,0.18,1.05,0.18,-0.19,-0.24,-0.11,0.86,0.86,0.86
395.77,1.01,0.15,1.01,0.15,-0.15,-0.22,-0.08,0.86,0.86,0.86
399.73,0.97,0.12,0.97,0.12,-0.12,-0.19,-0.05,0.85,0.85,0.85
403.72,0.93,0.09,0.93,0.09,-0.09,-0.17,-0.03,0.85,0.85,0.85
407.76,0.90,0.05,0.90,0.05,-0.05,-0.14,0.00,0.84,0.84,0.84
411.84,0.86,0.02,0.86,0.02,-0.02,-0.12,0.03,0.84,0.84,0.84
415.96,0.82,-0.01,0.82,-0.01,0.01,-0.09,0.05,0.83,0.83,0.83
420.12,0.78,-0.05,0.78,-0.05,0.05,-0.07,0.08,0.82,0.82,0.82
424.32,0.74,-0.08,0.74,-0.08,0.08,-0.04,0.10,0.82,0.82,0.82
428.56,0.70,-0.12,0.70,-0.12,0.12,-0.02,0.13,0.81,0.81,0.82
432.85,0.66,-0.15,0.66,-0.15,0.15,0.00,0.15,0.81,0.81,0.81
437.18,0.63,-0.18,0.62,-0.18,0.18,0.03,0.18,0.81,0.81,0.81
441.55,0.59,-0.22,0.59,-0.22,0.22,0.05,0.20,0.81,0.81,0.81
445.96,0.55,-0.25,0.55,-0.25,0.25,0.08,0.22,0.80,0.80,0.80
450.42,0.52,-0.28,0.52,-0.28,0.28,0.10,0.24,0.80,0.80,0.80
454.93,0.48,-0.32,0.48,-0.32,0.32,0.13,0.27,0.80,0.80,0.80
459.48,0.45,-0.35,0.45,-0.35,0.35,0.15,0.29,0.79,0.79,0.80
464.07,0.41,-0.38,0.41,-0.38,0.38,0.17,0.31,0.79,0.79,0.79
468.71,0.38,-0.41,0.38,-0.41,0.41,0.20,0.33,0.79,0.79,0.79
473.40,0.35,-0.44,0.35,-0.44,0.44,0.22,0.34,0.78,0.78,0.78
478.13,0.31,-0.47,0.31,-0.47,0.47,0.25,0.36,0.78,0.78,0.78
482.91,0.28,-0.49,0.28,-0.49,0.49,0.27,0.38,0.78,0.78,0.78
487.74,0.25,-0.52,0.25,-0.52,0.52,0.29,0.40,0.77,0.77,0.77
492.62,0.22,-0.54,0.22,-0.54,0.54,0.32,0.41,0.77,0.77,0.77
497.55,0.20,-0.57,0.20,-0.57,0.57,0.34,0.43,0.76,0.76,0.76
502.52,0.17,-0.59,0.17,-0.59,0.59,0.37,0.44,0.76,0.76,0.76
507.55,0.15,-0.61,0.15,-0.61,0.61,0.39,0.46,0.75,0.75,0.75
512.62,0.12,-0.62,0.12,-0.62,0.63,0.41,0.47,0.75,0.75,0.75
517.75,0.10,-0.64,0.10,-0.64,0.64,0.44,0.48,0.74,0.74,0.74
522.93,0.08,-0.66,0.08,-0.66,0.66,0.46,0.50,0.74,0.74,0.74
528.16,0.06,-0.67,0.06,-0.67,0.67,0.48,0.51,0.73,0.73,0.73
533.44,0.04,-0.69,0.04,-0.69,0.69,0.51,0.52,0.73,0.73,0.73
538.77,0.02,-0.70,0.02,-0.70,0.70,0.53,0.53,0.72,0.72,0.72
544.16,0.01,-0.71,0.01,-0.71,0.71,0.55,0.54,0.72,0.72,0.72
549.60,-0.01,-0.72,-0.01,-0.72,0.72,0.58,0.55,0.72,0.71,0.72
555.10,-0.02,-0.73,-0.02,-0.73,0.73,0.60,0.56,0.71,0.71,0.71
560.65,-0.03,-0.74,-0.03,-0.74,0.74,0.62,0.57,0.71,0.71,0.71
566.25,-0.04,-0.75,-0.04,-0.75,0.75,0.65,0.58,0.70,0.70,0.70
