frequency,raw,error,smoothed,error_smoothed,equalization,parametric_eq,fixed_band_eq,equalized_raw,equalized_smoothed,target
20.00,12.71,6.04,12.71,6.04,-6.03,-5.70,-1.92,6.68,6.68,6.67
20.20,12.72,6.02,12.72,6.03,-6.03,-5.85,-1.98,6.69,6.69,6.70
20.40,12.73,6.02,12.73,6.02,-6.02,-6.00,-2.03,6.70,6.70,6.70
20.61,12.73,6.02,12.73,6.00,-6.00,-6.06,-2.10,6.73,6.73,6.71
20.81,12.73,5.96,12.73,5.98,-5.98,-6.12,-2.16,6.76,6.76,6.78
21.02,12.74,5.93,12.74,5.94,-5.94,-6.09,-2.22,6.79,6.79,6.80
21.23,12.74,5.92,12.74,5.91,-5.90,-6.05,-2.29,6.83,6.83,6.81
21.44,12.73,5.87,12.73,5.87,-5.85,-5.95,-2.35,6.88,6.88,6.87
21.66,12.73,5.81,12.73,5.81,-5.79,-5.84,-2.42,6.94,6.94,6.92
21.87,12.73,5.73,12.72,5.73,-5.73,-5.72,-2.50,7.00,7.00,7.00
22.09,12.72,5.65,12.72,5.65,-5.65,-5.59,-2.57,7.06,7.06,7.07
22.31,12.71,5.56,12.71,5.56,-5.57,-5.46,-2.64,7.13,7.13,7.14
22.54,12.69,5.47,12.69,5.47,-5.48,-5.34,-2.72,7.21,7.21,7.22
22.76,12.68,5.38,12.68,5.39,-5.39,-5.23,-2.80,7.28,7.28,7.29
22.99,12.66,5.31,12.66,5.31,-5.30,-5.13,-2.88,7.36,7.36,7.35
23.22,12.64,5.23,12.64,5.22,-5.21,-5.04,-2.97,7.43,7.43,7.41
23.45,12.61,5.13,12.61,5.13,-5.12,-4.95,-3.05,7.50,7.50,7.49
23.69,12.59,5.02,12.59,5.02,-5.03,-4.89,-3.14,7.56,7.56,7.57
23.92,12.56,4.93,12.56,4.93,-4.94,-4.82,-3.22,7.62,7.62,7.64
24.16,12.53,4.84,12.53,4.85,-4.86,-4.77,-3.32,7.67,7.67,7.70
24.40,12.50,4.79,12.50,4.78,-4.78,-4.72,-3.41,7.72,7.72,7.70
24.65,12.46,4.72,12.46,4.71,-4.71,-4.68,-3.50,7.75,7.75,7.74
24.89,12.42,4.62,12.42,4.64,-4.65,-4.64,-3.59,7.78,7.78,7.80
25.14,12.39,4.58,12.39,4.58,-4.59,-4.61,-3.69,7.80,7.80,7.80
25.39,12.35,4.54,12.35,4.54,-4.54,-4.58,-3.78,7.81,7.81,7.80
25.65,12.31,4.51,12.31,4.51,-4.49,-4.56,-3.88,7.82,7.82,7.80
25.91,12.27,4.47,12.27,4.47,-4.46,-4.53,-3.97,7.82,7.82,7.80
26.16,12.24,4.43,12.24,4.43,-4.43,-4.51,-4.06,7.81,7.81,7.80
26.43,12.20,4.40,12.20,4.39,-4.41,-4.49,-4.16,7.79,7.79,7.80
26.69,12.16,4.36,12.16,4.38,-4.39,-4.46,-4.25,7.77,7.77,7.80
26.96,12.13,4.36,12.13,4.37,-4.38,-4.44,-4.34,7.75,7.75,7.77
27.23,12.09,4.39,12.09,4.37,-4.37,-4.42,-4.43,7.72,7.72,7.70
27.50,12.06,4.35,12.06,4.37,-4.37,-4.40,-4.52,7.69,7.69,7.70
27.77,12.02,4.37,12.02,4.37,-4.36,-4.38,-4.60,7.66,7.66,7.65
28.05,11.98,4.38,11.98,4.36,-4.35,-4.36,-4.68,7.64,7.64,7.60
28.33,11.94,4.34,11.94,4.34,-4.33,-4.33,-4.75,7.61,7.61,7.60
28.62,11.91,4.30,11.91,4.31,-4.31,-4.31,-4.82,7.60,7.60,7.60
28.90,11.87,4.27,11.87,4.27,-4.27,-4.28,-4.88,7.60,7.60,7.60
29.19,11.84,4.23,11.84,4.24,-4.23,-4.25,-4.94,7.61,7.61,7.60
29.48,11.81,4.20,11.81,4.19,-4.18,-4.22,-4.99,7.63,7.63,7.60
29.78,11.78,4.13,11.78,4.13,-4.13,-4.19,-5.04,7.66,7.66,7.65
30.08,11.76,4.05,11.76,4.08,-4.07,-4.16,-5.07,7.69,7.69,7.70
30.38,11.73,4.03,11.73,4.01,-4.01,-4.13,-5.10,7.72,7.72,7.70
30.68,11.71,3.96,11.70,3.95,-3.96,-4.09,-5.12,7.75,7.75,7.75
30.99,11.67,3.87,11.67,3.89,-3.90,-4.06,-5.13,7.77,7.77,7.80
31.30,11.64,3.83,11.64,3.83,-3.85,-4.02,-5.13,7.78,7.78,7.80
31.61,11.60,3.79,11.60,3.79,-3.80,-3.98,-5.13,7.80,7.80,7.80
31.93,11.56,3.76,11.56,3.76,-3.75,-3.94,-5.11,7.81,7.81,7.80
32.24,11.53,3.73,11.53,3.71,-3.70,-3.90,-5.09,7.83,7.83,7.80
32.57,11.50,3.65,11.51,3.66,-3.64,-3.85,-5.06,7.86,7.86,7.86
32.89,11.48,3.58,11.48,3.60,-3.58,-3.81,-5.03,7.90,7.90,7.90
33.22,11.46,3.55,11.46,3.53,-3.51,-3.76,-4.98,7.95,7.95,7.91
33.55,11.43,3.46,11.43,3.45,-3.44,-3.72,-4.93,8.00,7.99,7.98
33.89,11.40,3.36,11.40,3.37,-3.36,-3.67,-4.87,8.04,8.04,8.04
34.23,11.36,3.26,11.36,3.28,-3.28,-3.62,-4.80,8.09,8.09,8.10
34.57,11.32,3.22,11.32,3.20,-3.21,-3.58,-4.73,8.12,8.12,8.10
34.92,11.29,3.14,11.29,3.13,-3.14,-3.53,-4.66,8.15,8.15,8.15
35.27,11.26,3.05,11.26,3.07,-3.09,-3.48,-4.58,8.17,8.17,8.20
35.62,11.23,3.03,11.24,3.02,-3.06,-3.43,-4.50,8.18,8.18,8.20
35.97,11.22,3.01,11.22,3.02,-3.04,-3.38,-4.41,8.18,8.18,8.20
36.33,11.20,3.02,11.20,3.03,-3.03,-3.33,-4.32,8.17,8.17,8.18
36.70,11.19,3.06,11.19,3.04,-3.04,-3.28,-4.23,8.15,8.15,8.12
37.06,11.17,3.06,11.17,3.07,-3.05,-3.23,-4.14,8.12,8.12,8.10
37.43,11.15,3.07,11.15,3.09,-3.07,-3.18,-4.04,8.08,8.08,8.08
37.81,11.13,3.11,11.13,3.09,-3.09,-3.13,-3.95,8.04,8.04,8.02
38.19,11.11,3.11,11.11,3.12,-3.11,-3.08,-3.86,8.00,8.00,8.00
38.57,11.10,3.12,11.10,3.13,-3.13,-3.03,-3.76,7.97,7.97,7.98
38.95,11.08,3.17,11.08,3.14,-3.15,-2.98,-3.67,7.93,7.93,7.91
39.34,11.06,3.15,11.06,3.17,-3.17,-2.93,-3.57,7.89,7.89,7.90
39.74,11.04,3.17,11.04,3.18,-3.19,-2.88,-3.48,7.85,7.85,7.86
40.14,11.02,3.21,11.02,3.19,-3.21,-2.83,-3.39,7.81,7.81,7.80
40.54,11.00,3.19,11.00,3.21,-3.23,-2.78,-3.30,7.77,7.77,7.80
40.94,10.98,3.22,10.98,3.23,-3.24,-2.73,-3.21,7.74,7.74,7.76
41.35,10.96,3.26,10.96,3.24,-3.24,-2.68,-3.12,7.73,7.73,7.70
41.76,10.95,3.24,10.94,3.25,-3.21,-2.64,-3.04,7.74,7.74,7.70
42.18,10.92,3.21,10.92,3.22,-3.15,-2.59,-2.95,7.76,7.76,7.70
42.60,10.89,3.17,10.89,3.15,-3.08,-2.54,-2.87,7.81,7.81,7.72
43.03,10.86,3.06,10.86,3.04,-3.00,-2.50,-2.79,7.86,7.86,7.79
43.46,10.82,2.89,10.82,2.90,-2.91,-2.45,-2.71,7.91,7.91,7.93
43.90,10.78,2.75,10.78,2.76,-2.82,-2.41,-2.64,7.96,7.96,8.03
44.33,10.74,2.65,10.74,2.65,-2.75,-2.36,-2.56,8.00,8.00,8.10
44.78,10.71,2.60,10.71,2.61,-2.68,-2.32,-2.49,8.03,8.03,8.10
45.23,10.67,2.60,10.67,2.60,-2.63,-2.28,-2.42,8.05,8.05,8.07
45.68,10.63,2.62,10.63,2.60,-2.59,-2.24,-2.35,8.05,8.05,8.01
46.13,10.59,2.59,10.59,2.61,-2.56,-2.19,-2.28,8.03,8.03,8.00
46.60,10.54,2.58,10.54,2.59,-2.54,-2.15,-2.22,8.01,8.01,7.96
47.06,10.50,2.58,10.50,2.54,-2.51,-2.11,-2.15,7.98,7.98,7.91
47.53,10.45,2.47,10.45,2.48,-2.48,-2.08,-2.09,7.97,7.97,7.98
48.01,10.41,2.40,10.41,2.42,-2.44,-2.04,-2.03,7.97,7.97,8.00
48.49,10.36,2.36,10.36,2.35,-2.38,-2.00,-1.98,7.98,7.98,8.00
48.97,10.32,2.31,10.32,2.32,-2.32,-1.96,-1.92,8.00,8.00,8.00
49.46,10.27,2.27,10.27,2.26,-2.24,-1.93,-1.87,8.03,8.03,8.00
49.96,10.23,2.20,10.23,2.19,-2.16,-1.89,-1.82,8.07,8.07,8.03
50.46,10.18,2.08,10.18,2.11,-2.08,-1.86,-1.77,8.10,8.10,8.10
50.96,10.14,2.03,10.14,2.02,-2.01,-1.82,-1.72,8.13,8.13,8.10
51.47,10.09,1.96,10.09,1.93,-1.94,-1.79,-1.67,8.15,8.15,8.13
51.99,10.03,1.83,10.03,1.85,-1.88,-1.76,-1.62,8.16,8.16,8.20
52.51,9.98,1.77,9.98,1.78,-1.83,-1.72,-1.58,8.15,8.15,8.20
53.03,9.92,1.74,9.92,1.75,-1.79,-1.69,-1.54,8.12,8.12,8.17
53.56,9.85,1.76,9.85,1.75,-1.78,-1.66,-1.50,8.08,8.08,8.10
54.10,9.79,1.76,9.79,1.76,-1.76,-1.63,-1.46,8.03,8.03,8.03
54.64,9.73,1.77,9.73,1.77,-1.75,-1.60,-1.42,7.98,7.97,7.96
55.18,9.66,1.77,9.67,1.78,-1.74,-1.58,-1.38,7.93,7.93,7.89
55.74,9.61,1.78,9.61,1.77,-1.71,-1.55,-1.34,7.89,7.89,7.83
56.29,9.55,1.75,9.55,1.73,-1.68,-1.52,-1.31,7.87,7.87,7.80
56.86,9.50,1.68,9.50,1.66,-1.65,-1.49,-1.27,7.85,7.85,7.82
57.42,9.45,1.56,9.45,1.57,-1.61,-1.47,-1.24,7.84,7.84,7.90
58.00,9.40,1.50,9.40,1.50,-1.57,-1.44,-1.21,7.83,7.83,7.90
58.58,9.35,1.47,9.35,1.48,-1.53,-1.42,-1.18,7.82,7.82,7.88
59.16,9.29,1.48,9.29,1.48,-1.49,-1.40,-1.15,7.80,7.80,7.81
59.76,9.24,1.50,9.24,1.49,-1.46,-1.37,-1.12,7.78,7.78,7.74
60.35,9.18,1.48,9.18,1.47,-1.43,-1.35,-1.10,7.75,7.75,7.70
60.96,9.13,1.42,9.13,1.42,-1.41,-1.33,-1.07,7.72,7.71,7.70
61.57,9.07,1.36,9.07,1.38,-1.39,-1.31,-1.05,7.68,7.68,7.70
62.18,9.00,1.34,9.00,1.35,-1.36,-1.29,-1.02,7.65,7.65,7.66
62.80,8.93,1.33,8.93,1.31,-1.31,-1.26,-1.00,7.62,7.62,7.60
63.43,8.87,1.26,8.87,1.26,-1.25,-1.24,-0.98,7.62,7.62,7.60
64.07,8.80,1.19,8.80,1.21,-1.18,-1.23,-0.96,7.62,7.62,7.60
64.71,8.74,1.13,8.74,1.13,-1.11,-1.21,-0.94,7.63,7.63,7.60
65.35,8.68,1.07,8.68,1.05,-1.04,-1.19,-0.92,7.64,7.64,7.60
66.01,8.62,0.96,8.62,0.96,-0.97,-1.17,-0.90,7.65,7.65,7.66
66.67,8.56,0.86,8.56,0.87,-0.90,-1.15,-0.88,7.66,7.66,7.70
67.33,8.51,0.80,8.51,0.79,-0.84,-1.14,-0.86,7.66,7.66,7.70
68.01,8.45,0.75,8.45,0.76,-0.79,-1.12,-0.85,7.67,7.67,7.70
68.69,8.40,0.73,8.40,0.74,-0.73,-1.11,-0.83,7.67,7.67,7.68
69.37,8.35,0.74,8.35,0.72,-0.68,-1.09,-0.82,7.67,7.67,7.61
70.07,8.30,0.69,8.30,0.69,-0.64,-1.08,-0.80,7.65,7.65,7.60
70.77,8.24,0.64,8.24,0.64,-0.62,-1.06,-0.79,7.63,7.63,7.60
71.48,8.19,0.58,8.19,0.58,-0.60,-1.05,-0.78,7.59,7.59,7.60
72.19,8.13,0.52,8.13,0.53,-0.58,-1.04,-0.76,7.54,7.54,7.60
72.91,8.07,0.50,8.07,0.52,-0.57,-1.02,-0.75,7.50,7.50,7.56
73.64,8.01,0.53,8.01,0.55,-0.56,-1.01,-0.74,7.45,7.45,7.48
74.38,7.95,0.61,7.95,0.57,-0.55,-1.00,-0.73,7.40,7.40,7.34
75.12,7.90,0.59,7.90,0.59,-0.54,-0.99,-0.72,7.36,7.36,7.30
75.87,7.84,0.55,7.84,0.58,-0.53,-0.98,-0.71,7.31,7.31,7.29
76.63,7.79,0.57,7.79,0.56,-0.52,-0.97,-0.70,7.27,7.27,7.22
77.40,7.74,0.53,7.74,0.52,-0.51,-0.96,-0.70,7.22,7.22,7.20
78.17,7.69,0.48,7.69,0.48,-0.51,-0.95,-0.69,7.18,7.18,7.20
78.95,7.64,0.43,7.64,0.45,-0.50,-0.94,-0.68,7.13,7.13,7.20
79.74,7.59,0.44,7.59,0.46,-0.51,-0.93,-0.67,7.08,7.08,7.15
80.54,7.54,0.49,7.54,0.50,-0.52,-0.92,-0.67,7.01,7.01,7.05
81.35,7.49,0.58,7.49,0.55,-0.55,-0.91,-0.66,6.94,6.94,6.91
82.16,7.44,0.60,7.44,0.60,-0.57,-0.90,-0.66,6.87,6.87,6.84
82.98,7.39,0.61,7.39,0.63,-0.59,-0.90,-0.65,6.80,6.80,6.77
83.81,7.34,0.63,7.34,0.64,-0.60,-0.89,-0.65,6.73,6.73,6.70
84.65,7.28,0.65,7.28,0.64,-0.60,-0.88,-0.64,6.68,6.68,6.63
85.50,7.23,0.62,7.23,0.62,-0.59,-0.88,-0.64,6.64,6.64,6.60
86.35,7.17,0.57,7.17,0.57,-0.57,-0.87,-0.63,6.60,6.60,6.60
87.22,7.12,0.51,7.12,0.50,-0.55,-0.87,-0.63,6.57,6.57,6.60
88.09,7.06,0.46,7.06,0.47,-0.52,-0.86,-0.63,6.54,6.54,6.60
88.97,7.01,0.44,7.01,0.48,-0.49,-0.86,-0.63,6.52,6.52,6.56
89.86,6.95,0.53,6.95,0.49,-0.46,-0.85,-0.62,6.49,6.49,6.43
90.76,6.90,0.50,6.90,0.48,-0.45,-0.85,-0.62,6.45,6.45,6.40
91.66,6.85,0.45,6.85,0.45,-0.45,-0.85,-0.62,6.40,6.40,6.40
92.58,6.80,0.40,6.80,0.41,-0.46,-0.84,-0.62,6.34,6.34,6.40
93.51,6.75,0.40,6.75,0.42,-0.46,-0.84,-0.62,6.28,6.28,6.34
94.44,6.69,0.45,6.69,0.46,-0.47,-0.84,-0.62,6.22,6.22,6.24
95.39,6.63,0.53,6.63,0.51,-0.47,-0.83,-0.62,6.16,6.16,6.11
96.34,6.57,0.53,6.57,0.52,-0.47,-0.83,-0.62,6.10,6.10,6.04
97.30,6.50,0.50,6.50,0.50,-0.47,-0.83,-0.62,6.03,6.03,6.00
98.28,6.44,0.44,6.44,0.46,-0.47,-0.83,-0.62,5.96,5.96,6.00
99.26,6.37,0.45,6.37,0.45,-0.47,-0.83,-0.63,5.90,5.91,5.93
100.25,6.32,0.46,6.32,0.45,-0.46,-0.83,-0.63,5.86,5.86,5.86
101.25,6.27,0.46,6.27,0.44,-0.44,-0.83,-0.63,5.82,5.82,5.80
102.27,6.22,0.42,6.22,0.44,-0.43,-0.83,-0.63,5.79,5.79,5.80
103.29,6.19,0.41,6.19,0.42,-0.43,-0.83,-0.64,5.76,5.76,5.78
104.32,6.15,0.44,6.15,0.41,-0.43,-0.83,-0.64,5.72,5.72,5.70
105.37,6.11,0.40,6.11,0.42,-0.43,-0.83,-0.64,5.68,5.68,5.70
106.42,6.07,0.41,6.07,0.43,-0.43,-0.84,-0.65,5.64,5.65,5.66
107.48,6.03,0.45,6.03,0.44,-0.43,-0.84,-0.65,5.60,5.60,5.58
108.56,5.99,0.46,5.99,0.45,-0.43,-0.84,-0.66,5.56,5.56,5.53
109.64,5.94,0.44,5.94,0.44,-0.44,-0.84,-0.66,5.50,5.50,5.50
110.74,5.89,0.42,5.89,0.43,-0.45,-0.85,-0.67,5.45,5.44,5.47
111.85,5.84,0.43,5.84,0.44,-0.46,-0.85,-0.67,5.38,5.38,5.41
112.97,5.79,0.48,5.79,0.46,-0.46,-0.85,-0.68,5.32,5.32,5.31
114.10,5.73,0.48,5.73,0.47,-0.46,-0.86,-0.68,5.27,5.27,5.25
115.24,5.67,0.48,5.67,0.49,-0.46,-0.86,-0.69,5.21,5.21,5.19
116.39,5.61,0.48,5.61,0.49,-0.46,-0.87,-0.70,5.15,5.15,5.14
117.55,5.56,0.51,5.56,0.50,-0.47,-0.87,-0.70,5.09,5.09,5.05
118.73,5.52,0.51,5.51,0.49,-0.50,-0.88,-0.71,5.01,5.01,5.00
119.92,5.48,0.47,5.48,0.49,-0.55,-0.88,-0.72,4.93,4.93,5.00
121.12,5.45,0.50,5.45,0.50,-0.61,-0.89,-0.73,4.84,4.84,4.95
122.33,5.44,0.57,5.44,0.59,-0.67,-0.90,-0.73,4.77,4.77,4.87
123.55,5.44,0.69,5.44,0.72,-0.72,-0.90,-0.74,4.72,4.72,4.75
124.79,5.44,0.89,5.44,0.85,-0.75,-0.91,-0.75,4.69,4.69,4.55
126.03,5.45,0.94,5.45,0.92,-0.77,-0.92,-0.76,4.68,4.68,4.50
127.29,5.45,0.91,5.45,0.90,-0.77,-0.92,-0.77,4.68,4.68,4.53
128.57,5.44,0.78,5.44,0.79,-0.75,-0.93,-0.78,4.69,4.68,4.66
129.85,5.42,0.67,5.42,0.68,-0.73,-0.94,-0.79,4.69,4.69,4.75
131.15,5.40,0.59,5.40,0.59,-0.70,-0.95,-0.80,4.70,4.69,4.80
132.46,5.37,0.56,5.36,0.57,-0.68,-0.96,-0.81,4.68,4.68,4.80
133.79,5.32,0.60,5.32,0.61,-0.68,-0.97,-0.82,4.64,4.64,4.73
135.12,5.28,0.68,5.28,0.68,-0.70,-0.98,-0.83,4.58,4.58,4.59
136.48,5.23,0.77,5.23,0.77,-0.74,-0.99,-0.84,4.48,4.48,4.46
137.84,5.17,0.85,5.17,0.85,-0.80,-1.00,-0.85,4.37,4.37,4.32
139.22,5.12,0.93,5.12,0.91,-0.85,-1.01,-0.87,4.27,4.27,4.19
140.61,5.07,0.95,5.07,0.96,-0.90,-1.02,-0.88,4.17,4.17,4.12
142.02,5.03,0.97,5.03,0.97,-0.94,-1.04,-0.89,4.09,4.09,4.05
143.44,4.99,0.98,4.99,0.96,-0.97,-1.05,-0.91,4.01,4.01,4.00
144.87,4.95,0.94,4.95,0.96,-1.00,-1.06,-0.92,3.94,3.94,4.00
146.32,4.90,0.96,4.90,0.98,-1.03,-1.07,-0.94,3.87,3.87,3.94
147.78,4.86,1.03,4.86,1.03,-1.07,-1.09,-0.95,3.80,3.80,3.83
149.26,4.82,1.13,4.82,1.10,-1.10,-1.10,-0.97,3.71,3.71,3.69
150.75,4.78,1.16,4.78,1.17,-1.15,-1.12,-0.99,3.63,3.63,3.62
152.26,4.74,1.22,4.74,1.23,-1.21,-1.13,-1.00,3.53,3.53,3.52
153.78,4.71,1.29,4.71,1.29,-1.27,-1.14,-1.02,3.44,3.44,3.42
155.32,4.68,1.34,4.68,1.32,-1.33,-1.16,-1.04,3.35,3.35,3.34
156.88,4.66,1.35,4.66,1.36,-1.38,-1.18,-1.06,3.28,3.28,3.30
158.44,4.63,1.37,4.63,1.41,-1.42,-1.19,-1.09,3.22,3.22,3.26
160.03,4.61,1.50,4.61,1.47,-1.45,-1.21,-1.11,3.16,3.16,3.10
161.63,4.58,1.53,4.58,1.51,-1.48,-1.23,-1.13,3.09,3.09,3.05
163.24,4.55,1.54,4.55,1.53,-1.52,-1.24,-1.16,3.02,3.02,3.00
164.88,4.51,1.51,4.51,1.54,-1.57,-1.26,-1.18,2.94,2.94,3.00
166.53,4.47,1.57,4.47,1.56,-1.61,-1.28,-1.21,2.86,2.86,2.90
168.19,4.42,1.63,4.42,1.61,-1.66,-1.30,-1.23,2.77,2.77,2.80
169.87,4.37,1.66,4.37,1.69,-1.69,-1.32,-1.26,2.68,2.68,2.71
171.57,4.32,1.78,4.32,1.76,-1.72,-1.33,-1.29,2.60,2.60,2.55
173.29,4.28,1.81,4.28,1.80,-1.75,-1.35,-1.32,2.53,2.53,2.46
175.02,4.23,1.82,4.23,1.81,-1.77,-1.37,-1.35,2.46,2.46,2.40
176.77,4.18,1.78,4.18,1.80,-1.78,-1.39,-1.39,2.40,2.40,2.40
178.54,4.14,1.78,4.14,1.78,-1.80,-1.41,-1.42,2.34,2.34,2.35
180.32,4.09,1.79,4.09,1.76,-1.81,-1.44,-1.45,2.28,2.28,2.30
182.13,4.05,1.74,4.05,1.78,-1.82,-1.46,-1.49,2.23,2.23,2.30
183.95,4.00,1.79,4.00,1.80,-1.83,-1.48,-1.53,2.17,2.17,2.21
185.79,3.96,1.88,3.96,1.85,-1.84,-1.50,-1.56,2.12,2.12,2.08
187.65,3.92,1.90,3.92,1.91,-1.86,-1.52,-1.60,2.06,2.06,2.02
189.52,3.88,1.93,3.88,1.93,-1.89,-1.55,-1.64,1.99,1.99,1.95
191.42,3.84,1.94,3.84,1.92,-1.92,-1.57,-1.68,1.92,1.92,1.90
193.33,3.81,1.90,3.81,1.93,-1.96,-1.59,-1.72,1.85,1.85,1.90
195.27,3.78,1.93,3.78,1.93,-1.99,-1.62,-1.76,1.79,1.79,1.84
197.22,3.74,1.98,3.74,1.97,-2.01,-1.64,-1.81,1.73,1.73,1.76
199.19,3.70,2.01,3.70,2.04,-2.03,-1.66,-1.85,1.68,1.68,1.69
201.18,3.66,2.11,3.66,2.08,-2.04,-1.69,-1.89,1.63,1.63,1.56
203.19,3.62,2.12,3.62,2.10,-2.05,-1.71,-1.94,1.58,1.58,1.50
205.23,3.58,2.07,3.58,2.08,-2.05,-1.74,-1.98,1.53,1.53,1.50
207.28,3.53,2.03,3.53,2.03,-2.04,-1.77,-2.02,1.49,1.49,1.50
209.35,3.49,1.98,3.49,1.99,-2.01,-1.79,-2.07,1.47,1.47,1.50
211.44,3.44,1.95,3.44,1.97,-1.98,-1.82,-2.11,1.46,1.46,1.49
213.56,3.40,1.98,3.40,1.96,-1.95,-1.84,-2.15,1.45,1.45,1.42
215.69,3.35,1.95,3.35,1.93,-1.92,-1.87,-2.20,1.43,1.43,1.40
217.85,3.31,1.90,3.31,1.90,-1.92,-1.90,-2.24,1.39,1.39,1.40
220.03,3.26,1.86,3.26,1.87,-1.92,-1.92,-2.28,1.34,1.34,1.40
222.23,3.22,1.87,3.22,1.88,-1.93,-1.95,-2.32,1.29,1.29,1.35
224.45,3.18,1.90,3.18,1.92,-1.94,-1.98,-2.36,1.23,1.23,1.27
226.70,3.13,2.01,3.13,1.99,-1.95,-2.00,-2.39,1.18,1.18,1.12
228.96,3.08,2.04,3.08,2.03,-1.96,-2.03,-2.43,1.12,1.12,1.04
231.25,3.03,2.03,3.03,2.02,-1.96,-2.06,-2.46,1.07,1.07,1.00
233.57,2.98,1.98,2.98,1.98,-1.96,-2.09,-2.49,1.03,1.03,1.00
235.90,2.93,1.93,2.93,1.95,-1.95,-2.11,-2.51,0.98,0.98,1.00
238.26,2.88,1.92,2.88,1.92,-1.94,-2.14,-2.54,0.95,0.94,0.96
240.64,2.84,1.93,2.84,1.90,-1.93,-2.17,-2.56,0.91,0.91,0.90
243.05,2.80,1.89,2.80,1.90,-1.94,-2.19,-2.58,0.86,0.86,0.90
245.48,2.77,1.91,2.76,1.93,-1.97,-2.22,-2.59,0.80,0.80,0.86
247.93,2.74,1.98,2.74,1.99,-2.02,-2.25,-2.60,0.72,0.72,0.76
250.41,2.73,2.09,2.73,2.08,-2.09,-2.27,-2.61,0.64,0.64,0.63
252.92,2.73,2.17,2.73,2.17,-2.17,-2.30,-2.62,0.56,0.56,0.56
255.45,2.74,2.25,2.74,2.27,-2.26,-2.32,-2.62,0.49,0.49,0.49
258.00,2.76,2.36,2.76,2.35,-2.34,-2.35,-2.62,0.42,0.42,0.40
260.58,2.78,2.44,2.78,2.45,-2.42,-2.38,-2.62,0.36,0.36,0.34
263.19,2.79,2.52,2.79,2.52,-2.49,-2.40,-2.61,0.31,0.31,0.27
265.82,2.79,2.59,2.79,2.56,-2.54,-2.42,-2.60,0.25,0.25,0.21
268.48,2.79,2.58,2.78,2.59,-2.59,-2.45,-2.59,0.20,0.20,0.20
271.16,2.76,2.59,2.76,2.60,-2.62,-2.47,-2.57,0.14,0.14,0.18
273.87,2.74,2.63,2.74,2.63,-2.65,-2.50,-2.56,0.09,0.09,0.11
276.61,2.70,2.67,2.70,2.67,-2.67,-2.52,-2.54,0.04,0.04,0.04
279.38,2.67,2.70,2.67,2.70,-2.68,-2.54,-2.52,-0.01,-0.01,-0.03
282.17,2.63,2.73,2.63,2.70,-2.69,-2.56,-2.50,-0.06,-0.06,-0.10
284.99,2.59,2.69,2.59,2.70,-2.70,-2.58,-2.47,-0.11,-0.11,-0.10
287.84,2.55,2.69,2.55,2.71,-2.72,-2.60,-2.45,-0.16,-0.16,-0.14
290.72,2.51,2.72,2.51,2.72,-2.73,-2.62,-2.42,-0.22,-0.22,-0.21
293.63,2.47,2.76,2.47,2.73,-2.73,-2.64,-2.40,-0.26,-0.26,-0.29
296.57,2.43,2.72,2.43,2.73,-2.74,-2.65,-2.37,-0.31,-0.31,-0.30
299.53,2.39,2.72,2.39,2.73,-2.74,-2.67,-2.35,-0.35,-0.35,-0.33
302.53,2.35,2.74,2.35,2.74,-2.74,-2.68,-2.32,-0.39,-0.39,-0.39
305.55,2.31,2.77,2.31,2.76,-2.74,-2.70,-2.30,-0.43,-0.43,-0.46
308.61,2.27,2.77,2.27,2.76,-2.74,-2.71,-2.27,-0.47,-0.47,-0.50
311.69,2.24,2.73,2.24,2.73,-2.73,-2.72,-2.25,-0.49,-0.49,-0.50
314.81,2.20,2.70,2.20,2.71,-2.71,-2.73,-2.23,-0.51,-0.51,-0.50
317.96,2.16,2.70,2.16,2.71,-2.70,-2.74,-2.20,-0.53,-0.53,-0.53
321.14,2.13,2.72,2.13,2.70,-2.68,-2.75,-2.18,-0.56,-0.56,-0.60
324.35,2.09,2.69,2.09,2.68,-2.68,-2.76,-2.16,-0.59,-0.59,-0.60
327.59,2.06,2.65,2.06,2.66,-2.69,-2.76,-2.14,-0.64,-0.64,-0.60
330.87,2.02,2.64,2.02,2.65,-2.71,-2.77,-2.13,-0.69,-0.69,-0.61
334.18,1.99,2.67,1.99,2.68,-2.74,-2.77,-2.11,-0.75,-0.75,-0.68
337.52,1.95,2.75,1.95,2.75,-2.76,-2.77,-2.10,-0.80,-0.80,-0.80
340.90,1.92,2.83,1.92,2.82,-2.78,-2.78,-2.08,-0.85,-0.85,-0.91
344.30,1.89,2.87,1.89,2.86,-2.78,-2.78,-2.07,-0.90,-0.90,-0.98
347.75,1.85,2.85,1.85,2.84,-2.78,-2.77,-2.06,-0.93,-0.93,-1.00
351.23,1.82,2.79,1.82,2.78,-2.76,-2.77,-2.05,-0.94,-0.94,-0.97
354.74,1.79,2.69,1.79,2.71,-2.72,-2.77,-2.05,-0.94,-0.94,-0.90
358.28,1.75,2.65,1.75,2.66,-2.67,-2.76,-2.04,-0.91,-0.91,-0.90
361.87,1.72,2.62,1.72,2.61,-2.61,-2.76,-2.04,-0.89,-0.89,-0.90
365.49,1.69,2.58,1.69,2.56,-2.55,-2.75,-2.04,-0.87,-0.86,-0.89
369.14,1.66,2.48,1.66,2.48,-2.52,-2.74,-2.04,-0.86,-0.86,-0.83
372.83,1.63,2.42,1.63,2.44,-2.50,-2.73,-2.04,-0.87,-0.87,-0.80
376.56,1.59,2.41,1.59,2.44,-2.49,-2.72,-2.04,-0.90,-0.90,-0.81
380.33,1.56,2.50,1.56,2.47,-2.49,-2.71,-2.05,-0.92,-0.92,-0.94
384.13,1.53,2.53,1.53,2.51,-2.48,-2.69,-2.05,-0.95,-0.95,-1.00
387.97,1.50,2.51,1.50,2.54,-2.48,-2.68,-2.06,-0.98,-0.98,-1.01
391.85,1.47,2.55,1.47,2.54,-2.48,-2.66,-2.07,-1.01,-1.01,-1.08
395.77,1.44,2.53,1.44,2.51,-2.48,-2.65,-2.08,-1.05,-1.05,-1.10
399.73,1.41,2.47,1.41,2.46,-2.48,-2.63,-2.09,-1.07,-1.07,-1.07
403.72,1.38,2.38,1.38,2.42,-2.47,-2.61,-2.10,-1.10,-1.10,-1.00
407.76,1.35,2.41,1.35,2.41,-2.46,-2.59,-2.11,-1.11,-1.11,-1.06
411.84,1.32,2.44,1.32,2.43,-2.44,-2.57,-2.12,-1.12,-1.12,-1.13
415.96,1.29,2.48,1.29,2.46,-2.42,-2.55,-2.14,-1.14,-1.14,-1.19
420.12,1.25,2.45,1.25,2.45,-2.42,-2.52,-2.15,-1.16,-1.16,-1.20
424.32,1.22,2.42,1.22,2.42,-2.41,-2.50,-2.16,-1.19,-1.19,-1.20
428.56,1.19,2.39,1.19,2.39,-2.41,-2.48,-2.18,-1.22,-1.22,-1.20
432.85,1.16,2.36,1.16,2.38,-2.40,-2.45,-2.19,-1.24,-1.24,-1.20
437.18,1.13,2.37,1.13,2.38,-2.39,-2.43,-2.21,-1.25,-1.25,-1.24
441.55,1.10,2.40,1.10,2.38,-2.37,-2.40,-2.22,-1.26,-1.26,-1.30
445.96,1.07,2.37,1.07,2.37,-2.34,-2.37,-2.23,-1.27,-1.27,-1.30
450.42,1.04,2.34,1.04,2.34,-2.32,-2.35,-2.24,-1.28,-1.28,-1.30
454.93,1.01,2.31,1.01,2.31,-2.30,-2.32,-2.25,-1.29,-1.29,-1.30
459.48,0.98,2.28,0.98,2.28,-2.28,-2.29,-2.26,-1.30,-1.30,-1.30
464.07,0.95,2.25,0.95,2.24,-2.26,-2.26,-2.27,-1.31,-1.31,-1.30
468.71,0.92,2.22,0.92,2.22,-2.25,-2.23,-2.27,-1.32,-1.32,-1.30
473.40,0.89,2.19,0.89,2.21,-2.23,-2.21,-2.27,-1.34,-1.34,-1.30
478.13,0.86,2.22,0.86,2.21,-2.22,-2.18,-2.27,-1.36,-1.36,-1.35
482.91,0.83,2.23,0.83,2.22,-2.21,-2.15,-2.27,-1.37,-1.37,-1.40
487.74,0.80,2.20,0.80,2.23,-2.19,-2.12,-2.27,-1.39,-1.39,-1.40
492.62,0.77,2.24,0.77,2.21,-2.18,-2.09,-2.26,-1.40,-1.40,-1.46
497.55,0.75,2.20,0.75,2.18,-2.16,-2.06,-2.25,-1.42,-1.42,-1.46
502.52,0.72,2.11,0.72,2.14,-2.15,-2.02,-2.24,-1.43,-1.43,-1.40
507.55,0.69,2.08,0.69,2.08,-2.13,-1.99,-2.23,-1.44,-1.44,-1.40
512.62,0.66,2.05,0.66,2.05,-2.10,-1.96,-2.21,-1.44,-1.44,-1.40
