frequency,raw,error,smoothed,error_smoothed,equalization,parametric_eq,fixed_band_eq,equalized_raw,equalized_smoothed,target
20.00,6.73,-1.69,6.73,-1.69,1.67,1.29,0.47,8.40,8.40,8.42
20.20,6.73,-1.69,6.73,-1.69,1.69,1.44,0.48,8.42,8.41,8.42
20.40,6.72,-1.69,6.72,-1.69,1.70,1.58,0.50,8.42,8.42,8.42
20.61,6.72,-1.70,6.72,-1.70,1.71,1.73,0.52,8.43,8.43,8.42
20.81,6.71,-1.71,6.71,-1.71,1.72,1.88,0.53,8.43,8.43,8.41
21.02,6.70,-1.71,6.70,-1.71,1.72,1.98,0.55,8.42,8.42,8.41
21.23,6.69,-1.72,6.69,-1.72,1.72,2.09,0.57,8.41,8.41,8.41
21.44,6.68,-1.72,6.68,-1.72,1.72,2.11,0.59,8.41,8.41,8.41
21.66,6.68,-1.72,6.68,-1.72,1.72,2.13,0.61,8.40,8.40,8.40
21.87,6.68,-1.72,6.68,-1.72,1.72,2.07,0.63,8.40,8.40,8.40
22.09,6.68,-1.71,6.68,-1.71,1.71,2.00,0.65,8.39,8.39,8.40
22.31,6.70,-1.70,6.70,-1.70,1.69,1.88,0.67,8.39,8.39,8.39
22.54,6.71,-1.68,6.71,-1.68,1.67,1.77,0.69,8.38,8.38,8.39
22.76,6.74,-1.65,6.74,-1.65,1.64,1.65,0.71,8.38,8.38,8.38
22.99,6.76,-1.61,6.76,-1.61,1.61,1.54,0.73,8.38,8.38,8.38
23.22,6.80,-1.57,6.80,-1.58,1.58,1.44,0.75,8.37,8.37,8.37
23.45,6.83,-1.53,6.83,-1.54,1.54,1.35,0.78,8.37,8.37,8.36
23.69,6.86,-1.49,6.86,-1.49,1.50,1.27,0.80,8.36,8.36,8.36
23.92,6.89,-1.45,6.89,-1.45,1.45,1.21,0.83,8.35,8.35,8.35
24.16,6.92,-1.41,6.92,-1.41,1.41,1.16,0.85,8.33,8.33,8.33
24.40,6.95,-1.37,6.95,-1.37,1.37,1.11,0.87,8.31,8.31,8.31
24.65,6.96,-1.33,6.96,-1.33,1.32,1.08,0.90,8.29,8.29,8.29
24.89,6.98,-1.28,6.98,-1.28,1.28,1.05,0.92,8.26,8.26,8.26
25.14,6.99,-1.24,6.99,-1.24,1.24,1.03,0.95,8.23,8.24,8.23
25.39,7.00,-1.20,7.00,-1.20,1.21,1.02,0.97,8.21,8.21,8.20
25.65,7.01,-1.17,7.01,-1.17,1.18,1.01,1.00,8.19,8.19,8.18
25.91,7.02,-1.15,7.02,-1.15,1.16,1.00,1.02,8.18,8.18,8.17
26.16,7.02,-1.14,7.02,-1.14,1.15,1.00,1.05,8.17,8.17,8.16
26.43,7.03,-1.13,7.03,-1.13,1.13,1.00,1.07,8.17,8.17,8.16
26.69,7.04,-1.13,7.04,-1.13,1.12,1.00,1.09,8.16,8.16,8.17
26.96,7.05,-1.12,7.05,-1.12,1.11,1.00,1.12,8.16,8.16,8.17
27.23,7.05,-1.11,7.05,-1.11,1.10,1.01,1.14,8.15,8.15,8.17
27.50,7.05,-1.09,7.05,-1.09,1.08,1.01,1.16,8.14,8.14,8.15
27.77,7.05,-1.07,7.05,-1.07,1.07,1.02,1.18,8.12,8.12,8.12
28.05,7.04,-1.04,7.04,-1.04,1.05,1.02,1.19,8.09,8.09,8.09
28.33,7.03,-1.02,7.03,-1.02,1.02,1.02,1.21,8.05,8.05,8.05
28.62,7.02,-0.99,7.02,-0.99,1.00,1.03,1.22,8.02,8.02,8.01
28.90,7.00,-0.97,7.00,-0.97,0.98,1.03,1.23,7.98,7.98,7.97
29.19,6.99,-0.95,6.99,-0.95,0.95,1.03,1.24,7.94,7.94,7.94
29.48,6.97,-0.94,6.97,-0.94,0.93,1.03,1.25,7.90,7.90,7.91
29.78,6.96,-0.92,6.96,-0.92,0.91,1.03,1.25,7.87,7.87,7.88
30.08,6.94,-0.90,6.94,-0.90,0.89,1.02,1.26,7.84,7.84,7.84
30.38,6.93,-0.87,6.93,-0.87,0.87,1.01,1.26,7.81,7.81,7.81
30.68,6.92,-0.85,6.92,-0.85,0.86,1.00,1.25,7.78,7.78,7.77
30.99,6.91,-0.83,6.91,-0.83,0.85,0.99,1.24,7.75,7.75,7.74
31.30,6.89,-0.82,6.89,-0.82,0.83,0.98,1.23,7.73,7.73,7.71
31.61,6.88,-0.81,6.88,-0.81,0.82,0.96,1.22,7.70,7.70,7.70
31.93,6.88,-0.80,6.88,-0.80,0.80,0.94,1.21,7.68,7.68,7.68
32.24,6.88,-0.79,6.88,-0.79,0.78,0.92,1.19,7.66,7.66,7.67
32.57,6.88,-0.77,6.88,-0.77,0.76,0.89,1.17,7.63,7.63,7.65
32.89,6.88,-0.74,6.88,-0.74,0.73,0.87,1.14,7.61,7.61,7.62
33.22,6.89,-0.70,6.89,-0.70,0.69,0.83,1.12,7.58,7.58,7.59
33.55,6.90,-0.65,6.90,-0.65,0.65,0.80,1.09,7.54,7.54,7.55
33.89,6.90,-0.59,6.90,-0.60,0.60,0.77,1.05,7.51,7.51,7.50
34.23,6.91,-0.54,6.91,-0.54,0.55,0.73,1.02,7.47,7.47,7.46
34.57,6.92,-0.49,6.92,-0.50,0.51,0.69,0.98,7.43,7.43,7.41
34.92,6.93,-0.45,6.93,-0.45,0.46,0.65,0.95,7.38,7.38,7.38
35.27,6.94,-0.41,6.94,-0.41,0.41,0.61,0.91,7.35,7.35,7.35
35.62,6.94,-0.37,6.94,-0.37,0.37,0.57,0.86,7.31,7.31,7.32
35.97,6.95,-0.33,6.95,-0.33,0.32,0.53,0.82,7.28,7.28,7.29
36.33,6.96,-0.29,6.96,-0.29,0.29,0.48,0.78,7.25,7.25,7.25
36.70,6.97,-0.24,6.97,-0.24,0.25,0.44,0.73,7.22,7.22,7.21
37.06,6.97,-0.20,6.97,-0.20,0.21,0.39,0.68,7.18,7.18,7.18
37.43,6.97,-0.17,6.97,-0.17,0.17,0.35,0.63,7.14,7.14,7.14
37.81,6.97,-0.14,6.97,-0.14,0.13,0.30,0.58,7.10,7.10,7.10
38.19,6.96,-0.11,6.96,-0.11,0.10,0.25,0.53,7.06,7.06,7.07
38.57,6.95,-0.07,6.95,-0.07,0.06,0.21,0.48,7.01,7.01,7.02
38.95,6.94,-0.04,6.94,-0.04,0.03,0.16,0.43,6.97,6.97,6.98
39.34,6.93,0.00,6.93,0.00,0.01,0.12,0.38,6.94,6.94,6.93
39.74,6.92,0.03,6.92,0.03,-0.02,0.07,0.33,6.90,6.90,6.88
40.14,6.90,0.05,6.90,0.05,-0.04,0.02,0.27,6.86,6.86,6.84
40.54,6.87,0.06,6.87,0.06,-0.05,-0.02,0.22,6.82,6.82,6.81
40.94,6.84,0.07,6.84,0.07,-0.07,-0.07,0.17,6.77,6.77,6.77
41.35,6.81,0.07,6.82,0.08,-0.09,-0.11,0.11,6.73,6.73,6.74
41.76,6.79,0.08,6.79,0.09,-0.11,-0.16,0.06,6.68,6.68,6.70
42.18,6.76,0.11,6.76,0.11,-0.13,-0.20,0.01,6.63,6.63,6.65
42.60,6.74,0.14,6.74,0.14,-0.15,-0.24,-0.05,6.59,6.59,6.60
43.03,6.72,0.18,6.72,0.18,-0.18,-0.29,-0.10,6.54,6.54,6.53
43.46,6.69,0.22,6.69,0.22,-0.21,-0.33,-0.16,6.49,6.49,6.47
43.90,6.67,0.26,6.67,0.25,-0.24,-0.37,-0.21,6.44,6.44,6.42
44.33,6.65,0.28,6.66,0.28,-0.27,-0.41,-0.27,6.38,6.38,6.37
44.78,6.64,0.30,6.64,0.30,-0.31,-0.45,-0.32,6.34,6.34,6.34
45.23,6.63,0.32,6.63,0.33,-0.34,-0.49,-0.38,6.29,6.29,6.31
45.68,6.63,0.36,6.63,0.37,-0.38,-0.53,-0.43,6.25,6.25,6.26
46.13,6.63,0.42,6.63,0.42,-0.42,-0.57,-0.49,6.20,6.20,6.21
46.60,6.63,0.47,6.63,0.47,-0.47,-0.61,-0.54,6.16,6.16,6.16
47.06,6.63,0.52,6.63,0.52,-0.52,-0.65,-0.60,6.11,6.11,6.10
47.53,6.62,0.57,6.62,0.57,-0.57,-0.69,-0.65,6.05,6.05,6.05
48.01,6.62,0.62,6.62,0.62,-0.62,-0.72,-0.71,6.00,6.00,6.00
48.49,6.61,0.67,6.61,0.67,-0.67,-0.76,-0.77,5.94,5.94,5.94
48.97,6.60,0.72,6.60,0.72,-0.71,-0.80,-0.82,5.89,5.89,5.88
49.46,6.59,0.76,6.59,0.76,-0.75,-0.84,-0.88,5.84,5.84,5.83
49.96,6.57,0.80,6.57,0.80,-0.79,-0.87,-0.93,5.78,5.78,5.77
50.46,6.55,0.83,6.55,0.83,-0.82,-0.91,-0.99,5.73,5.73,5.72
50.96,6.53,0.85,6.53,0.85,-0.85,-0.94,-1.04,5.68,5.68,5.67
51.47,6.51,0.88,6.51,0.88,-0.89,-0.98,-1.10,5.62,5.62,5.63
51.99,6.49,0.90,6.49,0.91,-0.92,-1.01,-1.15,5.57,5.57,5.59
52.51,6.47,0.94,6.47,0.95,-0.96,-1.05,-1.21,5.52,5.52,5.53
53.03,6.46,0.99,6.46,0.99,-1.00,-1.08,-1.26,5.46,5.46,5.47
53.56,6.45,1.05,6.45,1.04,-1.04,-1.12,-1.31,5.40,5.40,5.40
54.10,6.43,1.10,6.43,1.09,-1.09,-1.15,-1.37,5.34,5.34,5.34
54.64,6.42,1.14,6.42,1.14,-1.14,-1.19,-1.42,5.28,5.28,5.28
55.18,6.41,1.19,6.41,1.19,-1.20,-1.22,-1.47,5.22,5.22,5.23
55.74,6.41,1.24,6.41,1.24,-1.25,-1.26,-1.52,5.16,5.17,5.17
56.29,6.41,1.30,6.41,1.30,-1.29,-1.29,-1.56,5.11,5.11,5.11
56.86,6.40,1.34,6.40,1.34,-1.34,-1.32,-1.61,5.07,5.07,5.06
57.42,6.39,1.38,6.39,1.38,-1.37,-1.36,-1.65,5.01,5.01,5.00
58.00,6.36,1.42,6.36,1.42,-1.40,-1.39,-1.70,4.96,4.96,4.94
58.58,6.33,1.45,6.33,1.45,-1.43,-1.42,-1.74,4.89,4.89,4.88
59.16,6.29,1.47,6.29,1.46,-1.46,-1.46,-1.78,4.83,4.83,4.82
59.76,6.26,1.47,6.26,1.47,-1.49,-1.49,-1.81,4.77,4.77,4.79
60.35,6.23,1.49,6.23,1.50,-1.52,-1.52,-1.85,4.72,4.72,4.74
60.96,6.21,1.53,6.21,1.53,-1.54,-1.56,-1.88,4.66,4.66,4.68
61.57,6.18,1.58,6.18,1.58,-1.58,-1.59,-1.91,4.60,4.60,4.59
62.18,6.15,1.62,6.15,1.62,-1.61,-1.62,-1.94,4.54,4.54,4.53
62.80,6.12,1.65,6.12,1.66,-1.65,-1.66,-1.97,4.47,4.47,4.47
63.43,6.10,1.69,6.10,1.69,-1.69,-1.69,-1.99,4.41,4.41,4.41
64.07,6.07,1.73,6.07,1.73,-1.73,-1.72,-2.01,4.34,4.34,4.34
64.71,6.05,1.77,6.05,1.77,-1.77,-1.75,-2.03,4.28,4.28,4.28
65.35,6.02,1.80,6.02,1.81,-1.80,-1.79,-2.05,4.22,4.22,4.22
66.01,6.00,1.84,6.00,1.84,-1.84,-1.82,-2.06,4.16,4.16,4.15
66.67,5.97,1.88,5.97,1.88,-1.87,-1.85,-2.08,4.10,4.10,4.09
67.33,5.95,1.91,5.95,1.91,-1.91,-1.89,-2.09,4.04,4.04,4.04
68.01,5.92,1.94,5.92,1.94,-1.94,-1.92,-2.10,3.98,3.98,3.98
68.69,5.89,1.98,5.89,1.98,-1.98,-1.95,-2.11,3.91,3.91,3.92
69.37,5.86,2.01,5.86,2.01,-2.01,-1.98,-2.12,3.85,3.85,3.85
70.07,5.84,2.05,5.84,2.05,-2.05,-2.02,-2.13,3.79,3.79,3.79
70.77,5.81,2.08,5.81,2.09,-2.09,-2.05,-2.13,3.72,3.72,3.73
71.48,5.79,2.12,5.79,2.12,-2.12,-2.08,-2.14,3.66,3.66,3.67
72.19,5.77,2.17,5.77,2.16,-2.16,-2.11,-2.15,3.61,3.61,3.60
72.91,5.75,2.20,5.75,2.20,-2.20,-2.15,-2.15,3.55,3.55,3.55
73.64,5.72,2.24,5.72,2.24,-2.23,-2.18,-2.16,3.48,3.48,3.48
74.38,5.69,2.28,5.69,2.28,-2.27,-2.21,-2.16,3.42,3.42,3.41
75.12,5.65,2.31,5.65,2.31,-2.30,-2.24,-2.17,3.35,3.35,3.34
75.87,5.62,2.34,5.62,2.34,-2.34,-2.27,-2.18,3.28,3.28,3.28
76.63,5.59,2.37,5.59,2.37,-2.38,-2.31,-2.19,3.21,3.21,3.22
77.40,5.56,2.40,5.56,2.40,-2.41,-2.34,-2.20,3.15,3.15,3.16
78.17,5.53,2.44,5.53,2.44,-2.45,-2.37,-2.21,3.09,3.09,3.09
78.95,5.51,2.48,5.51,2.48,-2.48,-2.40,-2.22,3.03,3.03,3.02
79.74,5.48,2.52,5.48,2.52,-2.52,-2.43,-2.23,2.96,2.96,2.96
80.54,5.45,2.56,5.45,2.56,-2.55,-2.47,-2.24,2.90,2.90,2.90
81.35,5.42,2.59,5.42,2.59,-2.59,-2.50,-2.26,2.84,2.84,2.83
82.16,5.39,2.62,5.39,2.62,-2.62,-2.53,-2.28,2.77,2.77,2.77
82.98,5.35,2.65,5.35,2.65,-2.65,-2.56,-2.29,2.70,2.70,2.70
83.81,5.31,2.68,5.31,2.68,-2.68,-2.59,-2.31,2.64,2.64,2.63
84.65,5.27,2.70,5.27,2.70,-2.70,-2.62,-2.34,2.57,2.57,2.57
85.50,5.23,2.72,5.23,2.73,-2.73,-2.65,-2.36,2.51,2.51,2.51
86.35,5.19,2.75,5.19,2.75,-2.75,-2.68,-2.39,2.44,2.44,2.44
87.22,5.15,2.78,5.15,2.78,-2.77,-2.71,-2.41,2.38,2.38,2.37
88.09,5.11,2.80,5.11,2.80,-2.80,-2.74,-2.44,2.31,2.31,2.31
88.97,5.07,2.82,5.07,2.82,-2.82,-2.77,-2.47,2.25,2.25,2.25
89.86,5.03,2.84,5.03,2.84,-2.85,-2.80,-2.51,2.18,2.18,2.19
90.76,5.00,2.87,5.00,2.87,-2.88,-2.83,-2.54,2.12,2.12,2.13
91.66,4.97,2.91,4.97,2.91,-2.91,-2.86,-2.58,2.06,2.06,2.06
92.58,4.94,2.95,4.94,2.95,-2.95,-2.89,-2.62,2.00,2.00,1.99
93.51,4.91,2.98,4.91,2.98,-2.98,-2.92,-2.66,1.94,1.94,1.93
94.44,4.88,3.02,4.88,3.02,-3.01,-2.95,-2.70,1.87,1.87,1.87
95.39,4.85,3.05,4.85,3.05,-3.04,-2.97,-2.75,1.81,1.81,1.80
96.34,4.81,3.07,4.81,3.07,-3.07,-3.00,-2.79,1.74,1.74,1.74
97.30,4.78,3.09,4.78,3.10,-3.10,-3.03,-2.84,1.68,1.68,1.69
98.28,4.74,3.12,4.74,3.12,-3.13,-3.06,-2.89,1.62,1.62,1.62
99.26,4.70,3.15,4.70,3.15,-3.15,-3.08,-2.94,1.55,1.55,1.55
100.25,4.66,3.17,4.66,3.17,-3.17,-3.11,-2.99,1.49,1.49,1.49
101.25,4.62,3.20,4.62,3.20,-3.20,-3.14,-3.04,1.42,1.42,1.43
102.27,4.58,3.22,4.58,3.22,-3.22,-3.16,-3.09,1.36,1.36,1.36
103.29,4.54,3.25,4.54,3.24,-3.24,-3.19,-3.15,1.30,1.30,1.29
104.32,4.50,3.26,4.50,3.26,-3.26,-3.21,-3.20,1.24,1.24,1.23
105.37,4.46,3.28,4.46,3.28,-3.28,-3.24,-3.26,1.18,1.18,1.18
106.42,4.41,3.30,4.41,3.30,-3.30,-3.26,-3.31,1.11,1.11,1.12
107.48,4.37,3.32,4.37,3.31,-3.32,-3.28,-3.36,1.05,1.05,1.05
108.56,4.33,3.33,4.33,3.33,-3.34,-3.31,-3.42,0.99,0.99,1.00
109.64,4.28,3.35,4.28,3.35,-3.36,-3.33,-3.47,0.92,0.92,0.93
110.74,4.24,3.38,4.24,3.38,-3.38,-3.35,-3.52,0.86,0.86,0.86
111.85,4.19,3.41,4.19,3.40,-3.40,-3.37,-3.57,0.80,0.80,0.79
112.97,4.15,3.42,4.15,3.42,-3.41,-3.39,-3.61,0.73,0.73,0.73
114.10,4.10,3.44,4.10,3.44,-3.43,-3.41,-3.66,0.67,0.67,0.67
115.24,4.06,3.46,4.06,3.45,-3.45,-3.43,-3.70,0.61,0.61,0.60
116.39,4.02,3.47,4.02,3.47,-3.47,-3.45,-3.74,0.55,0.55,0.55
117.55,3.98,3.49,3.98,3.49,-3.49,-3.47,-3.77,0.49,0.49,0.50
118.73,3.95,3.51,3.95,3.50,-3.51,-3.49,-3.80,0.43,0.43,0.44
119.92,3.91,3.52,3.91,3.52,-3.54,-3.50,-3.83,0.37,0.37,0.39
121.12,3.88,3.55,3.88,3.56,-3.57,-3.52,-3.85,0.31,0.31,0.33
122.33,3.84,3.60,3.84,3.59,-3.60,-3.53,-3.87,0.24,0.24,0.25
123.55,3.81,3.65,3.81,3.64,-3.63,-3.55,-3.89,0.18,0.18,0.16
124.79,3.77,3.67,3.77,3.67,-3.65,-3.56,-3.89,0.11,0.11,0.10
126.03,3.73,3.69,3.73,3.69,-3.68,-3.58,-3.90,0.05,0.05,0.03
127.29,3.68,3.71,3.68,3.71,-3.70,-3.59,-3.90,-0.02,-0.02,-0.03
128.57,3.63,3.72,3.64,3.72,-3.72,-3.60,-3.90,-0.09,-0.09,-0.08
129.85,3.59,3.73,3.59,3.73,-3.74,-3.61,-3.89,-0.15,-0.15,-0.14
131.15,3.54,3.74,3.54,3.74,-3.75,-3.62,-3.88,-0.21,-0.21,-0.20
132.46,3.49,3.75,3.49,3.75,-3.75,-3.63,-3.87,-0.27,-0.27,-0.27
133.79,3.44,3.77,3.44,3.76,-3.76,-3.64,-3.85,-0.32,-0.32,-0.33
135.12,3.39,3.77,3.39,3.77,-3.77,-3.65,-3.83,-0.38,-0.38,-0.38
136.48,3.34,3.78,3.34,3.78,-3.77,-3.66,-3.80,-0.43,-0.43,-0.44
137.84,3.28,3.78,3.28,3.78,-3.78,-3.66,-3.77,-0.49,-0.49,-0.49
139.22,3.22,3.78,3.22,3.78,-3.78,-3.67,-3.74,-0.56,-0.56,-0.56
140.61,3.16,3.79,3.16,3.78,-3.79,-3.67,-3.71,-0.63,-0.63,-0.62
142.02,3.11,3.79,3.11,3.79,-3.81,-3.68,-3.68,-0.70,-0.70,-0.68
143.44,3.06,3.80,3.06,3.81,-3.82,-3.68,-3.64,-0.76,-0.76,-0.74
144.87,3.02,3.83,3.02,3.82,-3.84,-3.68,-3.61,-0.82,-0.81,-0.81
146.32,2.99,3.84,2.99,3.85,-3.85,-3.69,-3.57,-0.86,-0.86,-0.85
147.78,2.96,3.86,2.95,3.88,-3.86,-3.69,-3.53,-0.91,-0.91,-0.90
149.26,2.92,3.91,2.92,3.89,-3.87,-3.69,-3.50,-0.96,-0.96,-0.99
150.75,2.87,3.90,2.87,3.88,-3.87,-3.69,-3.46,-1.00,-1.00,-1.03
152.26,2.82,3.84,2.82,3.86,-3.85,-3.68,-3.42,-1.04,-1.04,-1.02
153.78,2.76,3.81,2.76,3.82,-3.83,-3.68,-3.39,-1.06,-1.06,-1.05
155.32,2.71,3.79,2.71,3.79,-3.78,-3.68,-3.36,-1.07,-1.07,-1.08
156.88,2.66,3.77,2.66,3.75,-3.73,-3.67,-3.32,-1.07,-1.07,-1.11
158.44,2.61,3.69,2.61,3.68,-3.66,-3.67,-3.29,-1.05,-1.05,-1.08
160.03,2.56,3.57,2.56,3.60,-3.59,-3.66,-3.26,-1.03,-1.03,-1.01
161.63,2.52,3.52,2.52,3.51,-3.52,-3.65,-3.23,-1.00,-1.00,-1.00
163.24,2.47,3.45,2.47,3.44,-3.45,-3.65,-3.21,-0.98,-0.98,-0.98
164.88,2.42,3.37,2.42,3.37,-3.39,-3.64,-3.18,-0.96,-0.96,-0.95
166.53,2.38,3.30,2.38,3.31,-3.33,-3.63,-3.16,-0.96,-0.96,-0.93
168.19,2.33,3.26,2.33,3.27,-3.29,-3.62,-3.14,-0.97,-0.97,-0.93
169.87,2.28,3.27,2.28,3.26,-3.27,-3.60,-3.13,-1.00,-1.00,-0.99
171.57,2.22,3.27,2.22,3.26,-3.26,-3.59,-3.11,-1.04,-1.04,-1.04
173.29,2.17,3.27,2.17,3.26,-3.26,-3.58,-3.10,-1.09,-1.09,-1.09
175.02,2.12,3.26,2.12,3.26,-3.27,-3.56,-3.09,-1.15,-1.15,-1.14
176.77,2.07,3.26,2.07,3.28,-3.28,-3.55,-3.08,-1.21,-1.21,-1.19
178.54,2.01,3.30,2.01,3.30,-3.28,-3.53,-3.08,-1.27,-1.27,-1.28
180.32,1.96,3.34,1.96,3.31,-3.28,-3.52,-3.07,-1.32,-1.32,-1.38
182.13,1.91,3.28,1.91,3.30,-3.28,-3.50,-3.07,-1.37,-1.37,-1.37
183.95,1.86,3.26,1.86,3.27,-3.27,-3.48,-3.07,-1.41,-1.41,-1.40
185.79,1.81,3.25,1.81,3.24,-3.26,-3.46,-3.08,-1.45,-1.45,-1.44
187.65,1.76,3.23,1.76,3.23,-3.24,-3.44,-3.08,-1.48,-1.48,-1.47
189.52,1.71,3.22,1.71,3.22,-3.23,-3.42,-3.09,-1.52,-1.52,-1.51
191.42,1.66,3.22,1.66,3.21,-3.21,-3.40,-3.10,-1.55,-1.55,-1.55
193.33,1.61,3.20,1.61,3.20,-3.20,-3.38,-3.12,-1.59,-1.59,-1.59
195.27,1.57,3.19,1.57,3.19,-3.20,-3.36,-3.13,-1.63,-1.63,-1.63
197.22,1.52,3.19,1.52,3.19,-3.19,-3.33,-3.15,-1.67,-1.67,-1.66
199.19,1.48,3.19,1.48,3.19,-3.19,-3.31,-3.16,-1.71,-1.71,-1.71
201.18,1.45,3.19,1.45,3.19,-3.19,-3.28,-3.18,-1.74,-1.74,-1.75
203.19,1.41,3.19,1.41,3.19,-3.18,-3.26,-3.20,-1.77,-1.77,-1.78
205.23,1.38,3.17,1.38,3.18,-3.18,-3.23,-3.22,-1.80,-1.80,-1.80
207.28,1.34,3.16,1.34,3.17,-3.17,-3.20,-3.25,-1.83,-1.83,-1.82
209.35,1.31,3.16,1.30,3.16,-3.16,-3.18,-3.27,-1.86,-1.86,-1.85
211.44,1.27,3.16,1.27,3.15,-3.15,-3.15,-3.29,-1.88,-1.88,-1.89
213.56,1.23,3.13,1.23,3.14,-3.13,-3.12,-3.31,-1.91,-1.91,-1.91
215.69,1.18,3.12,1.18,3.12,-3.12,-3.09,-3.33,-1.93,-1.93,-1.93
217.85,1.14,3.11,1.14,3.10,-3.10,-3.06,-3.35,-1.96,-1.96,-1.96
220.03,1.10,3.08,1.10,3.08,-3.08,-3.03,-3.37,-1.98,-1.98,-1.98
222.23,1.05,3.05,1.05,3.05,-3.05,-2.99,-3.39,-2.00,-2.00,-2.00
224.45,1.00,3.02,1.00,3.02,-3.03,-2.96,-3.41,-2.02,-2.02,-2.02
226.70,0.96,3.00,0.96,3.00,-3.00,-2.93,-3.42,-2.04,-2.04,-2.04
228.96,0.91,2.97,0.91,2.97,-2.97,-2.90,-3.43,-2.07,-2.07,-2.07
231.25,0.86,2.95,0.86,2.94,-2.95,-2.86,-3.44,-2.09,-2.09,-2.08
233.57,0.82,2.91,0.82,2.91,-2.92,-2.83,-3.44,-2.11,-2.11,-2.10
235.90,0.77,2.88,0.77,2.89,-2.90,-2.79,-3.44,-2.12,-2.12,-2.11
238.26,0.73,2.88,0.73,2.87,-2.87,-2.76,-3.44,-2.14,-2.14,-2.15
240.64,0.69,2.86,0.69,2.85,-2.84,-2.72,-3.43,-2.15,-2.15,-2.17
243.05,0.65,2.81,0.65,2.82,-2.81,-2.68,-3.42,-2.16,-2.16,-2.16
245.48,0.60,2.78,0.60,2.78,-2.78,-2.65,-3.40,-2.18,-2.18,-2.17
247.93,0.56,2.74,0.56,2.74,-2.74,-2.61,-3.38,-2.19,-2.19,-2.18
250.41,0.51,2.71,0.51,2.71,-2.71,-2.57,-3.36,-2.20,-2.20,-2.20
252.92,0.46,2.67,0.46,2.67,-2.67,-2.53,-3.33,-2.21,-2.21,-2.21
255.45,0.41,2.63,0.41,2.63,-2.63,-2.49,-3.29,-2.21,-2.21,-2.21
258.00,0.37,2.58,0.37,2.59,-2.59,-2.45,-3.25,-2.22,-2.22,-2.22
260.58,0.32,2.54,0.32,2.54,-2.55,-2.41,-3.20,-2.22,-2.22,-2.22
263.19,0.28,2.50,0.28,2.50,-2.51,-2.37,-3.15,-2.23,-2.23,-2.22
265.82,0.24,2.46,0.24,2.46,-2.46,-2.33,-3.10,-2.23,-2.23,-2.23
268.48,0.19,2.42,0.19,2.42,-2.42,-2.29,-3.04,-2.23,-2.23,-2.23
271.16,0.15,2.38,0.15,2.38,-2.38,-2.25,-2.98,-2.23,-2.23,-2.23
273.87,0.11,2.34,0.11,2.34,-2.34,-2.21,-2.91,-2.23,-2.23,-2.24
276.61,0.07,2.30,0.07,2.30,-2.29,-2.16,-2.84,-2.22,-2.22,-2.24
279.38,0.02,2.24,0.02,2.25,-2.24,-2.12,-2.76,-2.22,-2.22,-2.22
282.17,-0.02,2.20,-0.02,2.20,-2.20,-2.08,-2.69,-2.22,-2.22,-2.22
284.99,-0.07,2.15,-0.07,2.15,-2.15,-2.03,-2.61,-2.22,-2.22,-2.22
287.84,-0.11,2.10,-0.11,2.09,-2.10,-1.99,-2.53,-2.21,-2.21,-2.21
290.72,-0.15,2.04,-0.15,2.04,-2.05,-1.94,-2.44,-2.21,-2.21,-2.19
293.63,-0.20,1.98,-0.20,2.00,-2.00,-1.90,-2.36,-2.20,-2.20,-2.18
296.57,-0.24,1.95,-0.24,1.97,-1.95,-1.85,-2.27,-2.19,-2.19,-2.19
299.53,-0.28,1.96,-0.28,1.92,-1.90,-1.81,-2.19,-2.18,-2.18,-2.24
302.53,-0.32,1.85,-0.32,1.86,-1.84,-1.76,-2.10,-2.16,-2.16,-2.17
305.55,-0.36,1.76,-0.36,1.79,-1.79,-1.71,-2.01,-2.14,-2.14,-2.12
308.61,-0.40,1.71,-0.40,1.71,-1.73,-1.66,-1.92,-2.13,-2.13,-2.11
311.69,-0.44,1.67,-0.44,1.66,-1.67,-1.62,-1.83,-2.11,-2.11,-2.10
314.81,-0.47,1.60,-0.47,1.61,-1.61,-1.57,-1.74,-2.08,-2.08,-2.08
317.96,-0.51,1.55,-0.51,1.55,-1.55,-1.52,-1.65,-2.06,-2.06,-2.06
321.14,-0.54,1.49,-0.54,1.49,-1.49,-1.47,-1.56,-2.03,-2.03,-2.04
324.35,-0.58,1.44,-0.58,1.44,-1.43,-1.42,-1.47,-2.01,-2.01,-2.02
327.59,-0.61,1.38,-0.61,1.38,-1.38,-1.37,-1.38,-1.99,-1.99,-1.99
330.87,-0.65,1.32,-0.65,1.32,-1.32,-1.32,-1.29,-1.97,-1.97,-1.97
334.18,-0.69,1.26,-0.69,1.26,-1.27,-1.27,-1.20,-1.95,-1.95,-1.95
337.52,-0.72,1.20,-0.72,1.20,-1.21,-1.22,-1.11,-1.93,-1.93,-1.92
340.90,-0.76,1.15,-0.76,1.15,-1.15,-1.17,-1.02,-1.90,-1.90,-1.90
344.30,-0.79,1.09,-0.79,1.09,-1.09,-1.11,-0.93,-1.88,-1.88,-1.88
347.75,-0.82,1.04,-0.82,1.04,-1.03,-1.06,-0.85,-1.85,-1.85,-1.86
351.23,-0.85,0.98,-0.85,0.97,-0.97,-1.01,-0.76,-1.82,-1.82,-1.83
354.74,-0.88,0.91,-0.88,0.90,-0.91,-0.95,-0.67,-1.79,-1.79,-1.79
358.28,-0.91,0.83,-0.91,0.84,-0.85,-0.90,-0.59,-1.76,-1.76,-1.74
361.87,-0.95,0.78,-0.95,0.78,-0.79,-0.85,-0.50,-1.73,-1.73,-1.72
365.49,-0.98,0.74,-0.98,0.73,-0.73,-0.79,-0.42,-1.71,-1.71,-1.72
369.14,-1.01,0.67,-1.01,0.67,-0.67,-0.74,-0.33,-1.68,-1.68,-1.68
372.83,-1.04,0.61,-1.04,0.61,-0.61,-0.68,-0.25,-1.65,-1.65,-1.65
376.56,-1.07,0.55,-1.07,0.55,-0.55,-0.62,-0.16,-1.63,-1.63,-1.63
380.33,-1.10,0.50,-1.10,0.50,-0.50,-0.57,-0.08,-1.60,-1.60,-1.60
384.13,-1.13,0.44,-1.13,0.44,-0.44,-0.51,0.00,-1.57,-1.57,-1.57
387.97,-1.16,0.38,-1.16,0.38,-0.38,-0.45,0.08,-1.54,-1.54,-1.54
391.85,-1.19,0.32,-1.19,0.32,-0.32,-0.39,0.17,-1.51,-1.51,-1.51
395.77,-1.22,0.27,-1.22,0.27,-0.27,-0.33,0.25,-1.48,-1.48,-1.48
399.73,-1.25,0.21,-1.24,0.21,-0.21,-0.28,0.32,-1.46,-1.46,-1.45
403.72,-1.27,0.15,-1.27,0.15,-0.16,-0.22,0.40,-1.43,-1.43,-1.42
407.76,-1.30,0.10,-1.30,0.10,-0.10,-0.15,0.48,-1.40,-1.40,-1.39
411.84,-1.32,0.05,-1.32,0.04,-0.04,-0.09,0.56,-1.36,-1.36,-1.37
415.96,-1.35,-0.02,-1.35,-0.02,0.02,-0.03,0.63,-1.33,-1.33,-1.33
420.12,-1.38,-0.08,-1.38,-0.08,0.09,0.03,0.71,-1.29,-1.29,-1.30
424.32,-1.42,-0.14,-1.42,-0.15,0.16,0.09,0.78,-1.26,-1.26,-1.27
428.56,-1.45,-0.22,-1.45,-0.22,0.23,0.15,0.85,-1.22,-1.22,-1.23
432.85,-1.48,-0.30,-1.48,-0.30,0.30,0.22,0.92,-1.18,-1.18,-1.18
437.18,-1.51,-0.38,-1.51,-0.38,0.37,0.28,0.99,-1.14,-1.14,-1.13
441.55,-1.53,-0.44,-1.53,-0.44,0.44,0.34,1.05,-1.09,-1.09,-1.09
445.96,-1.55,-0.51,-1.55,-0.51,0.50,0.41,1.12,-1.05,-1.05,-1.05
450.42,-1.57,-0.56,-1.57,-0.57,0.56,0.47,1.18,-1.01,-1.01,-1.01
454.93,-1.59,-0.63,-1.59,-0.62,0.62,0.53,1.23,-0.97,-0.97,-0.97
459.48,-1.61,-0.68,-1.61,-0.68,0.67,0.60,1.29,-0.94,-0.94,-0.93
464.07,-1.62,-0.73,-1.62,-0.72,0.72,0.66,1.34,-0.90,-0.90,-0.90
468.71,-1.63,-0.77,-1.63,-0.77,0.77,0.73,1.39,-0.87,-0.86,-0.87
473.40,-1.64,-0.81,-1.64,-0.81,0.82,0.79,1.43,-0.82,-0.83,-0.83
478.13,-1.65,-0.85,-1.65,-0.86,0.86,0.85,1.48,-0.79,-0.79,-0.79
482.91,-1.66,-0.90,-1.66,-0.90,0.91,0.92,1.51,-0.75,-0.75,-0.75
487.74,-1.67,-0.96,-1.67,-0.95,0.96,0.98,1.55,-0.72,-0.72,-0.72
492.62,-1.69,-1.00,-1.69,-1.01,1.01,1.05,1.58,-0.69,-0.68,-0.69
497.55,-1.71,-1.06,-1.71,-1.06,1.05,1.11,1.60,-0.65,-0.65,-0.65
502.52,-1.72,-1.11,-1.72,-1.11,1.11,1.17,1.63,-0.62,-0.62,-0.61
507.55,-1.74,-1.15,-1.74,-1.15,1.15,1.23,1.64,-0.58,-0.58,-0.58
