frequency,raw,error,smoothed,error_smoothed,equalization,parametric_eq,fixed_band_eq,equalized_raw,equalized_smoothed,target
20.00,12.49,5.67,12.49,5.67,-5.69,-5.53,-2.21,6.80,6.80,6.81
20.20,12.51,5.69,12.51,5.69,-5.69,-5.60,-2.27,6.82,6.82,6.82
20.40,12.53,5.70,12.53,5.70,-5.70,-5.67,-2.34,6.83,6.83,6.83
20.61,12.54,5.71,12.54,5.71,-5.70,-5.71,-2.41,6.84,6.84,6.83
20.81,12.55,5.71,12.55,5.71,-5.70,-5.76,-2.48,6.85,6.85,6.84
21.02,12.55,5.70,12.55,5.70,-5.70,-5.78,-2.55,6.86,6.86,6.85
21.23,12.55,5.69,12.55,5.69,-5.69,-5.80,-2.63,6.86,6.86,6.85
21.44,12.54,5.68,12.54,5.68,-5.68,-5.79,-2.70,6.86,6.86,6.86
21.66,12.52,5.66,12.52,5.66,-5.66,-5.78,-2.78,6.86,6.86,6.86
21.87,12.50,5.64,12.50,5.64,-5.64,-5.75,-2.86,6.87,6.87,6.87
22.09,12.49,5.61,12.49,5.61,-5.62,-5.72,-2.95,6.87,6.87,6.87
22.31,12.47,5.59,12.47,5.59,-5.59,-5.68,-3.03,6.88,6.88,6.88
22.54,12.46,5.57,12.46,5.57,-5.57,-5.63,-3.12,6.89,6.89,6.89
22.76,12.44,5.54,12.44,5.54,-5.55,-5.58,-3.21,6.90,6.90,6.90
22.99,12.43,5.52,12.43,5.52,-5.52,-5.53,-3.30,6.91,6.91,6.91
23.22,12.41,5.50,12.41,5.49,-5.49,-5.47,-3.40,6.92,6.92,6.92
23.45,12.40,5.47,12.39,5.47,-5.47,-5.42,-3.49,6.93,6.93,6.93
23.69,12.37,5.44,12.37,5.44,-5.43,-5.36,-3.59,6.94,6.94,6.93
23.92,12.35,5.41,12.35,5.41,-5.40,-5.31,-3.69,6.94,6.94,6.94
24.16,12.32,5.37,12.32,5.37,-5.37,-5.27,-3.80,6.95,6.95,6.94
24.40,12.28,5.33,12.28,5.33,-5.33,-5.22,-3.90,6.95,6.95,6.95
24.65,12.24,5.30,12.24,5.30,-5.30,-5.18,-4.01,6.94,6.94,6.95
24.89,12.21,5.26,12.21,5.26,-5.27,-5.13,-4.11,6.94,6.94,6.95
25.14,12.18,5.23,12.18,5.23,-5.24,-5.10,-4.22,6.94,6.94,6.95
25.39,12.15,5.20,12.15,5.20,-5.21,-5.06,-4.33,6.94,6.94,6.95
25.65,12.13,5.18,12.13,5.18,-5.18,-5.03,-4.44,6.94,6.94,6.95
25.91,12.10,5.16,12.11,5.16,-5.15,-4.99,-4.55,6.95,6.95,6.95
26.16,12.08,5.13,12.08,5.13,-5.12,-4.96,-4.65,6.96,6.96,6.95
26.43,12.06,5.10,12.06,5.10,-5.09,-4.93,-4.76,6.97,6.97,6.96
26.69,12.02,5.06,12.02,5.06,-5.05,-4.91,-4.87,6.97,6.97,6.96
26.96,11.99,5.02,11.99,5.02,-5.01,-4.88,-4.97,6.98,6.98,6.97
27.23,11.94,4.97,11.94,4.97,-4.97,-4.86,-5.08,6.98,6.98,6.97
27.50,11.90,4.92,11.90,4.92,-4.93,-4.83,-5.18,6.97,6.97,6.98
27.77,11.86,4.87,11.86,4.87,-4.88,-4.81,-5.27,6.97,6.97,6.98
28.05,11.82,4.83,11.82,4.83,-4.84,-4.79,-5.36,6.97,6.97,6.98
28.33,11.78,4.80,11.78,4.80,-4.81,-4.76,-5.45,6.98,6.98,6.98
28.62,11.75,4.77,11.75,4.77,-4.77,-4.74,-5.53,6.98,6.98,6.98
28.90,11.72,4.74,11.72,4.74,-4.74,-4.72,-5.61,6.99,6.99,6.98
29.19,11.69,4.71,11.69,4.71,-4.70,-4.70,-5.68,6.99,6.99,6.98
29.48,11.66,4.68,11.66,4.67,-4.66,-4.68,-5.74,7.00,6.99,6.98
29.78,11.62,4.63,11.62,4.63,-4.62,-4.66,-5.79,7.00,7.00,6.99
30.08,11.58,4.59,11.58,4.59,-4.58,-4.64,-5.83,7.00,7.00,6.99
30.38,11.54,4.54,11.54,4.54,-4.55,-4.61,-5.87,7.00,7.00,7.00
30.68,11.50,4.49,11.50,4.50,-4.51,-4.59,-5.90,7.00,7.00,7.01
30.99,11.47,4.46,11.47,4.46,-4.47,-4.57,-5.91,7.00,7.00,7.01
31.30,11.44,4.43,11.44,4.43,-4.43,-4.55,-5.92,7.01,7.01,7.01
31.61,11.41,4.40,11.41,4.40,-4.39,-4.53,-5.92,7.01,7.01,7.01
31.93,11.37,4.37,11.37,4.37,-4.36,-4.50,-5.90,7.02,7.02,7.00
32.24,11.34,4.34,11.34,4.33,-4.32,-4.48,-5.89,7.02,7.02,7.00
32.57,11.30,4.30,11.30,4.30,-4.29,-4.46,-5.85,7.01,7.01,7.01
32.89,11.27,4.26,11.27,4.26,-4.26,-4.43,-5.82,7.01,7.01,7.01
33.22,11.24,4.22,11.24,4.22,-4.23,-4.41,-5.77,7.01,7.01,7.02
33.55,11.21,4.19,11.21,4.20,-4.21,-4.39,-5.71,7.01,7.01,7.02
33.89,11.19,4.17,11.19,4.18,-4.18,-4.36,-5.65,7.01,7.01,7.02
34.23,11.17,4.16,11.17,4.16,-4.16,-4.33,-5.58,7.01,7.01,7.01
34.57,11.16,4.15,11.16,4.15,-4.15,-4.31,-5.50,7.01,7.01,7.01
34.92,11.14,4.14,11.14,4.14,-4.13,-4.28,-5.42,7.01,7.01,7.00
35.27,11.13,4.12,11.13,4.12,-4.12,-4.25,-5.34,7.01,7.01,7.01
35.62,11.11,4.10,11.11,4.10,-4.10,-4.23,-5.25,7.01,7.01,7.01
35.97,11.09,4.08,11.10,4.09,-4.09,-4.20,-5.16,7.01,7.01,7.01
36.33,11.08,4.07,11.08,4.07,-4.07,-4.17,-5.06,7.01,7.01,7.01
36.70,11.06,4.05,11.06,4.05,-4.05,-4.14,-4.97,7.01,7.01,7.01
37.06,11.04,4.03,11.04,4.03,-4.03,-4.11,-4.87,7.01,7.01,7.01
37.43,11.02,4.01,11.02,4.01,-4.01,-4.08,-4.77,7.01,7.01,7.01
37.81,11.00,3.99,11.00,3.99,-4.00,-4.05,-4.67,7.01,7.01,7.01
38.19,10.98,3.97,10.98,3.97,-3.98,-4.01,-4.57,7.00,7.00,7.01
38.57,10.96,3.96,10.96,3.96,-3.96,-3.98,-4.47,7.00,7.00,7.00
38.95,10.94,3.94,10.94,3.94,-3.94,-3.95,-4.37,7.00,7.00,6.99
39.34,10.91,3.93,10.91,3.93,-3.92,-3.91,-4.28,7.00,7.00,6.98
39.74,10.89,3.90,10.89,3.90,-3.89,-3.88,-4.18,6.99,6.99,6.98
40.14,10.86,3.87,10.86,3.87,-3.87,-3.84,-4.08,6.99,6.99,6.99
40.54,10.83,3.84,10.83,3.84,-3.84,-3.81,-3.99,6.99,6.99,7.00
40.94,10.80,3.81,10.80,3.81,-3.81,-3.77,-3.90,6.99,6.99,7.00
41.35,10.78,3.78,10.78,3.78,-3.78,-3.73,-3.81,6.99,6.99,6.99
41.76,10.75,3.76,10.74,3.76,-3.75,-3.70,-3.73,6.99,6.99,6.99
42.18,10.71,3.72,10.71,3.72,-3.72,-3.66,-3.64,6.99,6.99,6.99
42.60,10.68,3.69,10.68,3.69,-3.69,-3.62,-3.56,6.98,6.98,6.99
43.03,10.64,3.65,10.64,3.65,-3.66,-3.58,-3.48,6.98,6.98,6.99
43.46,10.60,3.62,10.61,3.63,-3.63,-3.54,-3.40,6.97,6.97,6.98
43.90,10.57,3.60,10.57,3.60,-3.60,-3.50,-3.33,6.97,6.97,6.97
44.33,10.53,3.58,10.53,3.57,-3.56,-3.46,-3.26,6.97,6.97,6.95
44.78,10.49,3.54,10.49,3.54,-3.52,-3.42,-3.19,6.97,6.97,6.95
45.23,10.45,3.49,10.45,3.49,-3.48,-3.37,-3.12,6.96,6.96,6.96
45.68,10.40,3.44,10.40,3.44,-3.44,-3.33,-3.06,6.96,6.96,6.96
46.13,10.35,3.39,10.35,3.39,-3.39,-3.29,-3.00,6.96,6.96,6.97
46.60,10.30,3.34,10.30,3.34,-3.34,-3.24,-2.94,6.96,6.96,6.96
47.06,10.25,3.29,10.25,3.29,-3.30,-3.20,-2.88,6.96,6.96,6.96
47.53,10.20,3.24,10.20,3.24,-3.25,-3.15,-2.83,6.96,6.96,6.96
48.01,10.15,3.19,10.15,3.20,-3.20,-3.11,-2.77,6.95,6.95,6.96
48.49,10.10,3.15,10.10,3.15,-3.16,-3.06,-2.72,6.95,6.95,6.95
48.97,10.05,3.12,10.05,3.11,-3.11,-3.02,-2.67,6.94,6.94,6.94
49.46,10.01,3.07,10.01,3.07,-3.07,-2.97,-2.63,6.94,6.94,6.93
49.96,9.96,3.02,9.95,3.02,-3.02,-2.92,-2.58,6.93,6.93,6.93
50.46,9.90,2.97,9.90,2.98,-2.98,-2.87,-2.54,6.92,6.92,6.93
50.96,9.85,2.93,9.85,2.93,-2.93,-2.82,-2.50,6.92,6.92,6.92
51.47,9.79,2.88,9.79,2.88,-2.88,-2.77,-2.46,6.91,6.91,6.91
51.99,9.74,2.84,9.74,2.84,-2.83,-2.73,-2.42,6.90,6.90,6.90
52.51,9.68,2.78,9.68,2.78,-2.78,-2.68,-2.39,6.90,6.90,6.89
53.03,9.62,2.73,9.62,2.73,-2.73,-2.63,-2.35,6.89,6.89,6.89
53.56,9.55,2.67,9.55,2.67,-2.67,-2.57,-2.32,6.88,6.88,6.88
54.10,9.49,2.61,9.49,2.61,-2.61,-2.52,-2.28,6.88,6.88,6.88
54.64,9.42,2.55,9.42,2.55,-2.55,-2.47,-2.25,6.87,6.87,6.87
55.18,9.35,2.49,9.35,2.49,-2.49,-2.42,-2.22,6.87,6.87,6.87
55.74,9.29,2.43,9.29,2.42,-2.42,-2.37,-2.19,6.86,6.86,6.86
56.29,9.22,2.36,9.22,2.36,-2.36,-2.32,-2.16,6.86,6.86,6.86
56.86,9.15,2.30,9.15,2.30,-2.30,-2.26,-2.12,6.85,6.85,6.85
57.42,9.09,2.24,9.09,2.24,-2.24,-2.21,-2.09,6.84,6.84,6.85
58.00,9.02,2.18,9.02,2.18,-2.19,-2.16,-2.06,6.84,6.84,6.84
58.58,8.96,2.13,8.96,2.13,-2.13,-2.10,-2.03,6.83,6.83,6.83
59.16,8.89,2.08,8.89,2.07,-2.07,-2.05,-2.00,6.83,6.83,6.82
59.76,8.83,2.02,8.83,2.02,-2.01,-2.00,-1.96,6.82,6.82,6.81
60.35,8.77,1.95,8.77,1.95,-1.95,-1.94,-1.93,6.81,6.81,6.81
60.96,8.70,1.89,8.70,1.89,-1.90,-1.89,-1.90,6.80,6.80,6.81
61.57,8.63,1.83,8.63,1.83,-1.84,-1.83,-1.86,6.79,6.79,6.80
62.18,8.56,1.78,8.56,1.78,-1.78,-1.78,-1.83,6.78,6.78,6.78
62.80,8.49,1.73,8.49,1.72,-1.72,-1.72,-1.79,6.77,6.77,6.77
63.43,8.42,1.67,8.42,1.67,-1.66,-1.67,-1.75,6.76,6.76,6.76
64.07,8.35,1.60,8.35,1.60,-1.60,-1.61,-1.71,6.75,6.75,6.75
64.71,8.29,1.54,8.28,1.54,-1.54,-1.56,-1.67,6.74,6.74,6.74
65.35,8.22,1.48,8.22,1.48,-1.48,-1.50,-1.63,6.73,6.73,6.73
66.01,8.14,1.42,8.15,1.42,-1.42,-1.45,-1.59,6.72,6.72,6.72
66.67,8.07,1.36,8.07,1.36,-1.36,-1.39,-1.55,6.71,6.71,6.71
67.33,8.00,1.30,8.00,1.30,-1.30,-1.34,-1.50,6.70,6.70,6.70
68.01,7.93,1.24,7.93,1.24,-1.24,-1.28,-1.46,6.69,6.69,6.69
68.69,7.86,1.18,7.86,1.18,-1.18,-1.23,-1.41,6.68,6.68,6.68
69.37,7.79,1.12,7.79,1.12,-1.12,-1.17,-1.37,6.67,6.67,6.67
70.07,7.72,1.06,7.72,1.06,-1.07,-1.12,-1.32,6.66,6.66,6.66
70.77,7.66,1.01,7.66,1.01,-1.01,-1.06,-1.27,6.65,6.65,6.65
71.48,7.59,0.95,7.59,0.95,-0.95,-1.01,-1.23,6.64,6.64,6.63
72.19,7.52,0.90,7.52,0.90,-0.89,-0.96,-1.18,6.63,6.63,6.62
72.91,7.45,0.84,7.45,0.84,-0.83,-0.90,-1.13,6.62,6.62,6.61
73.64,7.37,0.77,7.37,0.77,-0.77,-0.85,-1.08,6.60,6.60,6.60
74.38,7.29,0.71,7.29,0.71,-0.70,-0.79,-1.03,6.59,6.59,6.58
75.12,7.21,0.64,7.21,0.64,-0.64,-0.74,-0.98,6.57,6.57,6.57
75.87,7.13,0.57,7.13,0.57,-0.57,-0.69,-0.93,6.56,6.56,6.56
76.63,7.05,0.50,7.05,0.50,-0.51,-0.63,-0.88,6.54,6.54,6.54
77.40,6.97,0.44,6.97,0.44,-0.44,-0.58,-0.83,6.53,6.53,6.53
78.17,6.90,0.38,6.90,0.38,-0.39,-0.53,-0.78,6.51,6.51,6.51
78.95,6.83,0.33,6.83,0.33,-0.34,-0.48,-0.73,6.49,6.49,6.50
79.74,6.77,0.28,6.77,0.28,-0.29,-0.43,-0.68,6.48,6.48,6.49
80.54,6.72,0.25,6.72,0.25,-0.25,-0.38,-0.63,6.46,6.46,6.47
81.35,6.67,0.21,6.67,0.21,-0.22,-0.33,-0.58,6.45,6.45,6.45
82.16,6.63,0.19,6.63,0.19,-0.19,-0.28,-0.53,6.44,6.44,6.44
82.98,6.59,0.16,6.59,0.16,-0.16,-0.23,-0.48,6.43,6.43,6.42
83.81,6.55,0.14,6.54,0.14,-0.13,-0.18,-0.43,6.42,6.42,6.41
84.65,6.49,0.11,6.49,0.11,-0.09,-0.13,-0.38,6.40,6.40,6.39
85.50,6.44,0.07,6.44,0.07,-0.05,-0.08,-0.33,6.38,6.38,6.37
86.35,6.37,0.02,6.37,0.02,-0.01,-0.04,-0.28,6.36,6.36,6.35
87.22,6.30,-0.04,6.30,-0.03,0.03,0.01,-0.23,6.33,6.33,6.34
88.09,6.23,-0.09,6.23,-0.09,0.08,0.05,-0.18,6.30,6.30,6.31
88.97,6.16,-0.13,6.16,-0.13,0.12,0.10,-0.13,6.28,6.28,6.29
89.86,6.10,-0.17,6.11,-0.17,0.15,0.14,-0.08,6.25,6.26,6.28
90.76,6.06,-0.20,6.06,-0.20,0.19,0.18,-0.03,6.24,6.24,6.26
91.66,6.01,-0.22,6.01,-0.22,0.22,0.23,0.02,6.23,6.23,6.23
92.58,5.97,-0.24,5.97,-0.24,0.25,0.27,0.07,6.22,6.22,6.21
93.51,5.92,-0.27,5.92,-0.27,0.29,0.31,0.12,6.21,6.21,6.19
94.44,5.86,-0.31,5.86,-0.31,0.33,0.35,0.17,6.19,6.19,6.17
95.39,5.79,-0.36,5.79,-0.36,0.38,0.39,0.22,6.17,6.17,6.15
96.34,5.71,-0.41,5.71,-0.42,0.44,0.42,0.27,6.14,6.14,6.12
97.30,5.61,-0.48,5.61,-0.49,0.49,0.46,0.32,6.10,6.10,6.10
98.28,5.52,-0.56,5.52,-0.56,0.54,0.49,0.37,6.06,6.06,6.07
99.26,5.43,-0.62,5.44,-0.61,0.58,0.53,0.42,6.01,6.02,6.05
100.25,5.37,-0.65,5.38,-0.64,0.61,0.56,0.46,5.99,5.99,6.02
101.25,5.34,-0.65,5.34,-0.65,0.63,0.60,0.51,5.98,5.98,5.99
102.27,5.32,-0.65,5.32,-0.65,0.65,0.63,0.56,5.97,5.97,5.97
103.29,5.30,-0.64,5.30,-0.64,0.65,0.66,0.61,5.95,5.95,5.94
104.32,5.28,-0.64,5.28,-0.64,0.66,0.69,0.65,5.93,5.93,5.91
105.37,5.24,-0.64,5.24,-0.64,0.66,0.71,0.70,5.90,5.90,5.88
106.42,5.21,-0.65,5.21,-0.65,0.66,0.74,0.74,5.87,5.87,5.85
107.48,5.16,-0.67,5.16,-0.67,0.67,0.77,0.78,5.83,5.83,5.83
108.56,5.11,-0.69,5.11,-0.69,0.69,0.79,0.83,5.80,5.80,5.80
109.64,5.05,-0.71,5.05,-0.71,0.71,0.82,0.87,5.76,5.76,5.76
110.74,4.99,-0.74,4.99,-0.74,0.73,0.84,0.90,5.73,5.73,5.73
111.85,4.93,-0.76,4.93,-0.76,0.76,0.86,0.94,5.69,5.69,5.69
112.97,4.88,-0.79,4.88,-0.79,0.78,0.88,0.98,5.66,5.66,5.66
114.10,4.82,-0.81,4.82,-0.81,0.81,0.90,1.01,5.63,5.63,5.63
115.24,4.76,-0.83,4.76,-0.83,0.83,0.92,1.04,5.59,5.59,5.59
116.39,4.70,-0.85,4.70,-0.85,0.85,0.93,1.07,5.56,5.56,5.56
117.55,4.64,-0.87,4.64,-0.87,0.88,0.95,1.09,5.52,5.52,5.52
118.73,4.58,-0.90,4.58,-0.90,0.90,0.97,1.12,5.48,5.48,5.48
119.92,4.52,-0.92,4.52,-0.92,0.92,0.98,1.14,5.44,5.44,5.44
121.12,4.46,-0.94,4.47,-0.94,0.94,0.99,1.16,5.40,5.40,5.41
122.33,4.41,-0.96,4.41,-0.96,0.95,1.00,1.17,5.36,5.36,5.37
123.55,4.35,-0.97,4.35,-0.97,0.97,1.01,1.18,5.32,5.32,5.32
124.79,4.30,-0.98,4.30,-0.98,0.98,1.02,1.19,5.28,5.28,5.28
126.03,4.24,-1.00,4.24,-1.00,1.00,1.03,1.20,5.24,5.24,5.24
127.29,4.18,-1.01,4.18,-1.01,1.01,1.03,1.20,5.20,5.20,5.19
128.57,4.12,-1.02,4.12,-1.02,1.03,1.04,1.20,5.15,5.15,5.15
129.85,4.07,-1.04,4.07,-1.04,1.04,1.04,1.20,5.11,5.11,5.10
131.15,4.01,-1.05,4.01,-1.05,1.05,1.05,1.19,5.06,5.06,5.06
132.46,3.95,-1.07,3.95,-1.07,1.07,1.05,1.18,5.01,5.01,5.01
133.79,3.89,-1.09,3.89,-1.08,1.08,1.05,1.17,4.97,4.97,4.98
135.12,3.83,-1.09,3.83,-1.09,1.09,1.05,1.16,4.92,4.92,4.92
136.48,3.77,-1.10,3.77,-1.10,1.10,1.05,1.14,4.87,4.87,4.87
137.84,3.71,-1.11,3.71,-1.11,1.11,1.05,1.12,4.81,4.82,4.81
139.22,3.65,-1.11,3.65,-1.11,1.12,1.05,1.10,4.76,4.76,4.76
140.61,3.59,-1.12,3.59,-1.12,1.12,1.04,1.08,4.71,4.71,4.71
142.02,3.53,-1.13,3.53,-1.13,1.13,1.04,1.06,4.66,4.66,4.66
143.44,3.47,-1.14,3.47,-1.13,1.14,1.03,1.03,4.60,4.60,4.60
144.87,3.41,-1.14,3.41,-1.14,1.14,1.02,1.00,4.55,4.55,4.54
146.32,3.35,-1.14,3.35,-1.14,1.14,1.02,0.97,4.49,4.49,4.49
147.78,3.29,-1.14,3.29,-1.14,1.14,1.01,0.95,4.43,4.43,4.43
149.26,3.23,-1.14,3.23,-1.14,1.14,1.00,0.92,4.37,4.37,4.37
150.75,3.18,-1.13,3.18,-1.13,1.12,0.99,0.89,4.31,4.31,4.31
152.26,3.13,-1.11,3.13,-1.11,1.11,0.98,0.85,4.24,4.24,4.25
153.78,3.09,-1.09,3.09,-1.09,1.09,0.97,0.82,4.18,4.18,4.19
155.32,3.06,-1.07,3.06,-1.07,1.06,0.95,0.79,4.12,4.12,4.12
156.88,3.02,-1.04,3.02,-1.03,1.03,0.94,0.76,4.06,4.06,4.06
158.44,2.99,-1.00,2.99,-1.00,1.00,0.92,0.73,3.99,3.99,3.99
160.03,2.96,-0.96,2.96,-0.96,0.97,0.91,0.69,3.93,3.93,3.92
161.63,2.93,-0.92,2.93,-0.93,0.93,0.89,0.66,3.86,3.86,3.86
163.24,2.90,-0.89,2.90,-0.89,0.90,0.88,0.63,3.80,3.80,3.79
164.88,2.86,-0.86,2.86,-0.86,0.87,0.86,0.60,3.73,3.73,3.73
166.53,2.82,-0.84,2.82,-0.83,0.84,0.84,0.57,3.66,3.66,3.66
168.19,2.78,-0.81,2.78,-0.81,0.81,0.82,0.53,3.59,3.59,3.58
169.87,2.73,-0.78,2.73,-0.78,0.78,0.80,0.50,3.51,3.51,3.51
171.57,2.68,-0.76,2.68,-0.76,0.76,0.78,0.47,3.44,3.44,3.44
173.29,2.63,-0.74,2.63,-0.74,0.74,0.76,0.44,3.37,3.37,3.37
175.02,2.57,-0.72,2.57,-0.72,0.72,0.74,0.41,3.29,3.29,3.30
176.77,2.52,-0.70,2.52,-0.70,0.70,0.71,0.38,3.22,3.22,3.22
178.54,2.46,-0.68,2.46,-0.68,0.69,0.69,0.35,3.14,3.14,3.14
180.32,2.40,-0.66,2.40,-0.67,0.67,0.67,0.32,3.07,3.07,3.06
182.13,2.34,-0.65,2.34,-0.65,0.65,0.64,0.29,2.99,2.99,2.99
183.95,2.27,-0.64,2.27,-0.64,0.63,0.62,0.26,2.91,2.91,2.91
185.79,2.21,-0.62,2.21,-0.62,0.62,0.59,0.24,2.83,2.83,2.83
187.65,2.15,-0.60,2.15,-0.60,0.60,0.56,0.21,2.75,2.75,2.75
189.52,2.09,-0.58,2.09,-0.58,0.59,0.53,0.18,2.68,2.68,2.67
191.42,2.03,-0.56,2.03,-0.56,0.57,0.51,0.15,2.60,2.60,2.59
193.33,1.97,-0.54,1.97,-0.55,0.55,0.48,0.13,2.52,2.52,2.51
195.27,1.90,-0.53,1.90,-0.53,0.54,0.45,0.10,2.44,2.44,2.43
197.22,1.83,-0.52,1.83,-0.52,0.52,0.42,0.07,2.35,2.35,2.35
199.19,1.77,-0.50,1.77,-0.50,0.49,0.39,0.05,2.26,2.26,2.27
201.18,1.71,-0.48,1.71,-0.47,0.47,0.36,0.02,2.18,2.18,2.19
203.19,1.66,-0.44,1.66,-0.44,0.44,0.32,-0.00,2.10,2.10,2.10
205.23,1.62,-0.40,1.62,-0.40,0.40,0.29,-0.03,2.02,2.02,2.02
207.28,1.58,-0.35,1.58,-0.35,0.36,0.26,-0.05,1.94,1.94,1.94
209.35,1.55,-0.31,1.55,-0.31,0.31,0.22,-0.07,1.85,1.85,1.85
211.44,1.51,-0.26,1.51,-0.26,0.25,0.19,-0.10,1.77,1.77,1.77
213.56,1.49,-0.20,1.49,-0.20,0.20,0.15,-0.12,1.68,1.68,1.69
215.69,1.47,-0.14,1.47,-0.14,0.14,0.12,-0.14,1.60,1.60,1.60
217.85,1.45,-0.07,1.45,-0.08,0.08,0.08,-0.16,1.52,1.52,1.52
220.03,1.43,-0.01,1.43,-0.01,0.02,0.05,-0.18,1.44,1.44,1.44
222.23,1.40,0.05,1.41,0.05,-0.04,0.01,-0.20,1.36,1.36,1.36
224.45,1.38,0.11,1.38,0.10,-0.10,-0.03,-0.22,1.28,1.28,1.27
226.70,1.35,0.16,1.35,0.16,-0.15,-0.06,-0.23,1.20,1.20,1.19
228.96,1.31,0.20,1.31,0.20,-0.20,-0.10,-0.25,1.12,1.12,1.11
231.25,1.27,0.24,1.27,0.24,-0.24,-0.14,-0.27,1.03,1.03,1.03
233.57,1.22,0.28,1.22,0.28,-0.28,-0.18,-0.28,0.95,0.95,0.95
235.90,1.18,0.31,1.18,0.31,-0.31,-0.22,-0.29,0.87,0.87,0.86
238.26,1.13,0.34,1.13,0.34,-0.34,-0.25,-0.31,0.78,0.78,0.79
240.64,1.08,0.37,1.08,0.37,-0.37,-0.29,-0.32,0.71,0.71,0.71
243.05,1.03,0.40,1.03,0.40,-0.40,-0.33,-0.33,0.63,0.63,0.63
245.48,0.98,0.43,0.98,0.43,-0.43,-0.37,-0.34,0.55,0.55,0.55
247.93,0.94,0.46,0.94,0.46,-0.46,-0.41,-0.34,0.48,0.48,0.48
250.41,0.90,0.49,0.90,0.49,-0.49,-0.44,-0.35,0.40,0.40,0.41
252.92,0.86,0.52,0.85,0.52,-0.52,-0.48,-0.36,0.33,0.33,0.33
255.45,0.81,0.55,0.81,0.55,-0.55,-0.51,-0.36,0.26,0.26,0.26
258.00,0.77,0.58,0.77,0.58,-0.58,-0.55,-0.36,0.19,0.19,0.19
260.58,0.72,0.60,0.72,0.60,-0.60,-0.58,-0.37,0.12,0.12,0.12
263.19,0.68,0.62,0.68,0.62,-0.62,-0.61,-0.37,0.05,0.05,0.05
265.82,0.63,0.64,0.63,0.64,-0.64,-0.64,-0.37,-0.01,-0.01,-0.01
268.48,0.59,0.66,0.59,0.66,-0.66,-0.67,-0.37,-0.08,-0.08,-0.07
271.16,0.54,0.68,0.54,0.68,-0.68,-0.70,-0.36,-0.14,-0.14,-0.13
273.87,0.50,0.70,0.50,0.70,-0.70,-0.72,-0.36,-0.20,-0.20,-0.20
276.61,0.46,0.72,0.46,0.71,-0.71,-0.75,-0.36,-0.26,-0.26,-0.26
279.38,0.41,0.73,0.41,0.73,-0.73,-0.77,-0.35,-0.31,-0.31,-0.32
282.17,0.37,0.74,0.37,0.74,-0.74,-0.79,-0.35,-0.37,-0.37,-0.37
284.99,0.33,0.75,0.33,0.75,-0.75,-0.81,-0.34,-0.42,-0.42,-0.42
287.84,0.29,0.76,0.29,0.76,-0.76,-0.82,-0.34,-0.48,-0.48,-0.47
290.72,0.25,0.78,0.25,0.77,-0.77,-0.83,-0.33,-0.53,-0.53,-0.53
293.63,0.21,0.78,0.21,0.78,-0.78,-0.84,-0.32,-0.57,-0.57,-0.58
296.57,0.17,0.79,0.17,0.79,-0.79,-0.85,-0.32,-0.62,-0.62,-0.62
299.53,0.13,0.80,0.13,0.79,-0.79,-0.86,-0.31,-0.67,-0.67,-0.67
302.53,0.09,0.80,0.09,0.80,-0.80,-0.86,-0.30,-0.71,-0.71,-0.71
305.55,0.05,0.80,0.05,0.80,-0.80,-0.86,-0.29,-0.75,-0.75,-0.75
308.61,0.01,0.80,0.01,0.80,-0.80,-0.86,-0.28,-0.79,-0.79,-0.79
311.69,-0.03,0.81,-0.03,0.80,-0.80,-0.86,-0.28,-0.83,-0.83,-0.83
314.81,-0.07,0.80,-0.07,0.80,-0.80,-0.85,-0.27,-0.87,-0.87,-0.87
317.96,-0.10,0.80,-0.10,0.80,-0.80,-0.84,-0.26,-0.91,-0.91,-0.91
321.14,-0.14,0.80,-0.14,0.80,-0.80,-0.83,-0.25,-0.94,-0.94,-0.94
324.35,-0.18,0.79,-0.18,0.79,-0.80,-0.82,-0.24,-0.97,-0.97,-0.97
327.59,-0.21,0.79,-0.21,0.79,-0.79,-0.81,-0.23,-1.00,-1.00,-1.00
330.87,-0.24,0.78,-0.24,0.78,-0.78,-0.80,-0.22,-1.03,-1.03,-1.03
334.18,-0.28,0.78,-0.28,0.78,-0.77,-0.78,-0.22,-1.05,-1.05,-1.06
337.52,-0.31,0.76,-0.31,0.76,-0.76,-0.76,-0.21,-1.08,-1.08,-1.08
340.90,-0.35,0.75,-0.35,0.75,-0.75,-0.75,-0.20,-1.10,-1.10,-1.10
344.30,-0.38,0.74,-0.38,0.74,-0.74,-0.73,-0.19,-1.12,-1.12,-1.12
347.75,-0.42,0.73,-0.42,0.73,-0.72,-0.71,-0.18,-1.14,-1.14,-1.14
351.23,-0.45,0.71,-0.45,0.71,-0.71,-0.69,-0.18,-1.16,-1.16,-1.16
354.74,-0.48,0.70,-0.48,0.69,-0.69,-0.67,-0.17,-1.18,-1.18,-1.18
358.28,-0.51,0.67,-0.51,0.67,-0.68,-0.64,-0.16,-1.19,-1.19,-1.19
361.87,-0.54,0.66,-0.54,0.66,-0.66,-0.62,-0.15,-1.21,-1.21,-1.20
365.49,-0.57,0.65,-0.57,0.65,-0.65,-0.60,-0.14,-1.22,-1.22,-1.22
369.14,-0.60,0.64,-0.60,0.63,-0.63,-0.58,-0.14,-1.23,-1.23,-1.24
372.83,-0.63,0.61,-0.63,0.61,-0.61,-0.56,-0.13,-1.24,-1.24,-1.24
376.56,-0.66,0.59,-0.66,0.59,-0.59,-0.53,-0.12,-1.25,-1.25,-1.25
380.33,-0.69,0.57,-0.69,0.57,-0.57,-0.51,-0.12,-1.26,-1.26,-1.26
384.13,-0.72,0.55,-0.72,0.55,-0.55,-0.49,-0.11,-1.27,-1.27,-1.27
387.97,-0.75,0.53,-0.75,0.53,-0.52,-0.47,-0.10,-1.27,-1.27,-1.28
391.85,-0.78,0.50,-0.78,0.50,-0.50,-0.44,-0.10,-1.28,-1.28,-1.28
395.77,-0.81,0.47,-0.81,0.47,-0.47,-0.42,-0.09,-1.29,-1.29,-1.28
399.73,-0.84,0.44,-0.84,0.45,-0.45,-0.40,-0.08,-1.29,-1.29,-1.28
403.72,-0.86,0.42,-0.87,0.42,-0.43,-0.38,-0.08,-1.29,-1.29,-1.29
407.76,-0.89,0.41,-0.89,0.40,-0.40,-0.36,-0.07,-1.29,-1.29,-1.30
411.84,-0.91,0.38,-0.91,0.38,-0.38,-0.34,-0.07,-1.29,-1.29,-1.30
415.96,-0.94,0.35,-0.94,0.35,-0.35,-0.32,-0.06,-1.29,-1.29,-1.29
420.12,-0.96,0.33,-0.96,0.33,-0.33,-0.29,-0.06,-1.29,-1.29,-1.29
424.32,-0.99,0.30,-0.99,0.30,-0.31,-0.27,-0.05,-1.29,-1.29,-1.29
428.56,-1.01,0.28,-1.01,0.28,-0.28,-0.25,-0.05,-1.30,-1.30,-1.29
432.85,-1.04,0.26,-1.04,0.26,-0.26,-0.23,-0.04,-1.30,-1.30,-1.30
437.18,-1.06,0.24,-1.06,0.24,-0.24,-0.21,-0.04,-1.30,-1.30,-1.30
441.55,-1.08,0.22,-1.08,0.22,-0.22,-0.19,-0.03,-1.30,-1.30,-1.30
445.96,-1.10,0.20,-1.10,0.20,-0.20,-0.17,-0.03,-1.30,-1.30,-1.30
450.42,-1.12,0.17,-1.12,0.17,-0.18,-0.15,-0.03,-1.30,-1.30,-1.30
454.93,-1.15,0.15,-1.15,0.15,-0.15,-0.13,-0.02,-1.30,-1.30,-1.30
459.48,-1.17,0.13,-1.17,0.13,-0.12,-0.11,-0.02,-1.29,-1.29,-1.29
464.07,-1.18,0.10,-1.19,0.10,-0.09,-0.09,-0.02,-1.27,-1.27,-1.28
468.71,-1.20,0.06,-1.20,0.06,-0.06,-0.07,-0.02,-1.26,-1.26,-1.27
473.40,-1.22,0.02,-1.22,0.02,-0.02,-0.05,-0.02,-1.24,-1.24,-1.25
478.13,-1.24,-0.02,-1.24,-0.02,0.02,-0.03,-0.01,-1.22,-1.22,-1.22
482.91,-1.26,-0.06,-1.26,-0.06,0.06,-0.01,-0.01,-1.20,-1.20,-1.20
487.74,-1.28,-0.10,-1.28,-0.10,0.09,0.01,-0.01,-1.19,-1.19,-1.18
492.62,-1.29,-0.13,-1.29,-0.13,0.12,0.03,-0.01,-1.17,-1.17,-1.17
497.55,-1.31,-0.16,-1.31,-0.16,0.15,0.05,-0.01,-1.16,-1.16,-1.15
502.52,-1.33,-0.18,-1.33,-0.18,0.18,0.07,-0.01,-1.15,-1.15,-1.14
507.55,-1.34,-0.20,-1.34,-0.20,0.20,0.09,-0.01,-1.15,-1.15,-1.14
512.62,-1.36,-0.21,-1.36,-0.21,0.21,0.11,-0.01,-1.14,-1.14,-1.14
