frequency,raw,error,smoothed,error_smoothed,equalization,parametric_eq,fixed_band_eq,equalized_raw,equalized_smoothed,target
20.00,11.86,6.59,11.89,6.60,-6.36,-6.00,-2.67,5.50,5.53,5.28
20.20,11.69,6.36,11.66,6.34,-6.26,-6.10,-2.75,5.43,5.41,5.33
20.40,11.52,6.14,11.49,6.14,-6.18,-6.20,-2.83,5.34,5.31,5.38
20.61,11.36,5.98,11.37,5.99,-6.12,-6.26,-2.91,5.24,5.25,5.38
20.81,11.27,5.89,11.27,5.88,-6.08,-6.33,-2.99,5.19,5.19,5.38
21.02,11.26,5.85,11.26,5.84,-6.07,-6.36,-3.08,5.20,5.20,5.42
21.23,11.33,5.85,11.35,5.87,-6.07,-6.39,-3.16,5.26,5.28,5.48
21.44,11.52,5.99,11.53,6.00,-6.10,-6.38,-3.26,5.42,5.43,5.54
21.66,11.77,6.20,11.77,6.20,-6.24,-6.38,-3.35,5.53,5.52,5.58
21.87,12.03,6.45,12.02,6.42,-6.39,-6.35,-3.45,5.63,5.63,5.58
22.09,12.24,6.60,12.24,6.61,-6.52,-6.31,-3.54,5.72,5.72,5.64
22.31,12.40,6.72,12.39,6.72,-6.60,-6.26,-3.65,5.80,5.79,5.68
22.54,12.46,6.77,12.45,6.74,-6.60,-6.20,-3.75,5.85,5.85,5.69
22.76,12.42,6.66,12.41,6.68,-6.53,-6.14,-3.86,5.89,5.88,5.76
22.99,12.28,6.51,12.27,6.50,-6.38,-6.07,-3.97,5.90,5.89,5.78
23.22,12.05,6.26,12.05,6.24,-6.18,-5.99,-4.08,5.86,5.86,5.78
23.45,11.79,5.93,11.79,5.93,-5.96,-5.92,-4.19,5.83,5.83,5.86
23.69,11.54,5.61,11.54,5.63,-5.75,-5.84,-4.31,5.80,5.80,5.94
23.92,11.35,5.37,11.36,5.40,-5.56,-5.76,-4.43,5.79,5.80,5.98
24.16,11.26,5.28,11.27,5.27,-5.43,-5.69,-4.55,5.83,5.85,5.98
24.40,11.28,5.24,11.29,5.24,-5.34,-5.62,-4.68,5.94,5.94,6.04
24.65,11.38,5.27,11.38,5.28,-5.31,-5.56,-4.80,6.07,6.07,6.11
24.89,11.53,5.35,11.52,5.35,-5.31,-5.49,-4.93,6.21,6.21,6.17
25.14,11.66,5.43,11.66,5.42,-5.34,-5.44,-5.06,6.33,6.33,6.24
25.39,11.79,5.48,11.77,5.45,-5.36,-5.39,-5.19,6.43,6.41,6.31
25.65,11.82,5.44,11.82,5.44,-5.36,-5.34,-5.32,6.46,6.46,6.39
25.91,11.83,5.38,11.83,5.39,-5.34,-5.30,-5.45,6.49,6.49,6.45
26.16,11.79,5.32,11.79,5.32,-5.30,-5.27,-5.58,6.49,6.49,6.48
26.43,11.74,5.26,11.74,5.23,-5.25,-5.24,-5.71,6.49,6.49,6.48
26.69,11.69,5.14,11.69,5.15,-5.19,-5.22,-5.84,6.50,6.50,6.55
26.96,11.65,5.08,11.66,5.09,-5.15,-5.20,-5.96,6.50,6.51,6.58
27.23,11.64,5.07,11.65,5.07,-5.11,-5.19,-6.09,6.53,6.53,6.58
27.50,11.66,5.09,11.66,5.08,-5.10,-5.19,-6.21,6.56,6.56,6.58
27.77,11.69,5.11,11.69,5.11,-5.10,-5.19,-6.32,6.59,6.59,6.58
28.05,11.72,5.15,11.72,5.15,-5.12,-5.19,-6.44,6.60,6.60,6.58
28.33,11.76,5.18,11.75,5.18,-5.15,-5.20,-6.54,6.60,6.60,6.58
28.62,11.79,5.21,11.79,5.21,-5.20,-5.22,-6.64,6.59,6.59,6.58
28.90,11.82,5.24,11.82,5.24,-5.25,-5.24,-6.73,6.57,6.57,6.58
29.19,11.86,5.29,11.86,5.29,-5.31,-5.26,-6.82,6.55,6.55,6.58
29.48,11.91,5.34,11.92,5.34,-5.38,-5.29,-6.89,6.54,6.54,6.58
29.78,11.99,5.41,11.99,5.41,-5.44,-5.32,-6.96,6.55,6.55,6.58
30.08,12.07,5.49,12.07,5.49,-5.49,-5.35,-7.01,6.57,6.57,6.58
30.38,12.14,5.57,12.14,5.57,-5.54,-5.39,-7.06,6.61,6.61,6.58
30.68,12.20,5.63,12.20,5.62,-5.57,-5.43,-7.08,6.64,6.63,6.58
30.99,12.22,5.64,12.22,5.64,-5.58,-5.47,-7.11,6.64,6.64,6.58
31.30,12.20,5.63,12.20,5.62,-5.57,-5.52,-7.11,6.63,6.63,6.58
31.61,12.16,5.58,12.15,5.57,-5.56,-5.57,-7.11,6.59,6.59,6.58
31.93,12.09,5.51,12.09,5.51,-5.55,-5.61,-7.09,6.54,6.54,6.58
32.24,12.03,5.46,12.03,5.48,-5.54,-5.66,-7.07,6.49,6.50,6.58
32.57,12.00,5.47,12.00,5.48,-5.54,-5.71,-7.02,6.46,6.46,6.52
32.89,12.00,5.53,12.01,5.51,-5.55,-5.76,-6.97,6.45,6.46,6.48
33.22,12.05,5.57,12.05,5.57,-5.58,-5.80,-6.91,6.47,6.47,6.48
33.55,12.11,5.63,12.11,5.64,-5.62,-5.84,-6.84,6.49,6.49,6.48
33.89,12.19,5.71,12.18,5.70,-5.67,-5.88,-6.76,6.52,6.51,6.48
34.23,12.26,5.78,12.26,5.75,-5.73,-5.92,-6.68,6.53,6.53,6.48
34.57,12.33,5.78,12.33,5.80,-5.79,-5.95,-6.58,6.54,6.54,6.55
34.92,12.40,5.82,12.40,5.83,-5.85,-5.98,-6.48,6.55,6.55,6.58
35.27,12.48,5.90,12.49,5.87,-5.91,-6.00,-6.37,6.58,6.58,6.59
35.62,12.58,5.92,12.58,5.94,-5.96,-6.02,-6.26,6.61,6.62,6.66
35.97,12.68,6.00,12.68,6.00,-6.01,-6.03,-6.15,6.67,6.67,6.68
36.33,12.77,6.07,12.77,6.05,-6.05,-6.03,-6.03,6.72,6.72,6.70
36.70,12.85,6.09,12.85,6.11,-6.07,-6.02,-5.91,6.77,6.77,6.76
37.06,12.90,6.13,12.90,6.13,-6.09,-6.00,-5.79,6.82,6.81,6.78
37.43,12.93,6.13,12.93,6.12,-6.09,-5.97,-5.67,6.84,6.84,6.80
37.81,12.94,6.08,12.95,6.08,-6.07,-5.94,-5.54,6.87,6.87,6.86
38.19,12.95,6.01,12.95,6.02,-6.04,-5.89,-5.42,6.91,6.91,6.93
38.57,12.94,5.96,12.94,5.97,-6.00,-5.84,-5.30,6.94,6.94,6.98
38.95,12.91,5.94,12.92,5.94,-5.95,-5.78,-5.18,6.97,6.97,6.98
39.34,12.88,5.90,12.88,5.89,-5.90,-5.71,-5.06,6.98,6.98,6.98
39.74,12.81,5.84,12.81,5.83,-5.84,-5.64,-4.94,6.97,6.96,6.98
40.14,12.71,5.74,12.71,5.75,-5.79,-5.56,-4.83,6.93,6.92,6.97
40.54,12.58,5.68,12.58,5.70,-5.72,-5.47,-4.71,6.86,6.86,6.90
40.94,12.43,5.63,12.43,5.64,-5.63,-5.38,-4.60,6.80,6.80,6.79
41.35,12.27,5.59,12.27,5.56,-5.52,-5.28,-4.49,6.75,6.75,6.68
41.76,12.11,5.43,12.11,5.45,-5.38,-5.18,-4.39,6.73,6.73,6.68
42.18,11.96,5.28,11.96,5.28,-5.22,-5.08,-4.28,6.74,6.74,6.68
42.60,11.81,5.10,11.81,5.07,-5.04,-4.97,-4.18,6.77,6.78,6.71
43.03,11.68,4.83,11.68,4.84,-4.85,-4.87,-4.09,6.83,6.83,6.85
43.46,11.54,4.61,11.54,4.62,-4.65,-4.76,-3.99,6.89,6.88,6.94
43.90,11.39,4.42,11.39,4.41,-4.47,-4.65,-3.90,6.92,6.92,6.98
44.33,11.23,4.26,11.23,4.25,-4.30,-4.54,-3.81,6.93,6.93,6.98
44.78,11.08,4.10,11.08,4.11,-4.16,-4.44,-3.72,6.92,6.92,6.98
45.23,10.94,4.00,10.95,4.02,-4.04,-4.33,-3.64,6.90,6.91,6.94
45.68,10.84,3.96,10.85,3.95,-3.95,-4.22,-3.56,6.89,6.90,6.88
46.13,10.77,3.89,10.77,3.89,-3.87,-4.11,-3.48,6.90,6.90,6.88
46.60,10.70,3.82,10.70,3.83,-3.80,-4.01,-3.41,6.90,6.90,6.88
47.06,10.63,3.75,10.63,3.75,-3.73,-3.91,-3.33,6.89,6.89,6.88
47.53,10.54,3.67,10.54,3.66,-3.66,-3.80,-3.26,6.89,6.89,6.88
48.01,10.45,3.57,10.45,3.58,-3.56,-3.70,-3.20,6.88,6.88,6.88
48.49,10.34,3.47,10.33,3.49,-3.46,-3.60,-3.13,6.88,6.87,6.86
48.97,10.20,3.41,10.20,3.38,-3.35,-3.50,-3.07,6.86,6.85,6.79
49.46,10.05,3.27,10.05,3.26,-3.23,-3.41,-3.01,6.82,6.82,6.78
49.96,9.89,3.12,9.90,3.13,-3.12,-3.31,-2.95,6.77,6.78,6.78
50.46,9.77,2.99,9.77,2.99,-3.03,-3.22,-2.90,6.73,6.74,6.78
50.96,9.66,2.89,9.66,2.89,-2.96,-3.13,-2.84,6.70,6.70,6.78
51.47,9.58,2.83,9.58,2.85,-2.91,-3.04,-2.79,6.67,6.67,6.75
51.99,9.52,2.84,9.52,2.84,-2.88,-2.95,-2.74,6.64,6.64,6.68
52.51,9.47,2.86,9.47,2.86,-2.86,-2.86,-2.70,6.61,6.61,6.61
53.03,9.43,2.88,9.42,2.88,-2.85,-2.78,-2.65,6.58,6.58,6.54
53.56,9.37,2.90,9.36,2.89,-2.84,-2.70,-2.60,6.53,6.52,6.47
54.10,9.28,2.87,9.26,2.87,-2.83,-2.62,-2.56,6.45,6.44,6.40
54.64,9.16,2.83,9.16,2.82,-2.80,-2.54,-2.52,6.36,6.36,6.33
55.18,9.05,2.76,9.07,2.75,-2.75,-2.46,-2.47,6.29,6.31,6.29
55.74,9.01,2.66,9.02,2.67,-2.69,-2.39,-2.43,6.33,6.33,6.36
56.29,9.00,2.57,9.00,2.59,-2.60,-2.31,-2.39,6.40,6.40,6.43
56.86,9.00,2.52,8.97,2.51,-2.50,-2.24,-2.35,6.49,6.47,6.48
57.42,8.91,2.43,8.90,2.42,-2.40,-2.17,-2.31,6.51,6.50,6.48
58.00,8.79,2.31,8.78,2.30,-2.29,-2.11,-2.27,6.50,6.49,6.48
58.58,8.64,2.16,8.64,2.17,-2.18,-2.04,-2.24,6.45,6.46,6.48
59.16,8.51,2.04,8.54,2.04,-2.07,-1.97,-2.20,6.45,6.47,6.48
59.76,8.47,1.93,8.48,1.94,-1.94,-1.91,-2.16,6.53,6.53,6.54
60.35,8.45,1.85,8.45,1.84,-1.82,-1.85,-2.12,6.63,6.63,6.60
60.96,8.42,1.75,8.40,1.74,-1.70,-1.79,-2.08,6.71,6.70,6.67
61.57,8.32,1.64,8.30,1.63,-1.61,-1.73,-2.04,6.71,6.69,6.68
62.18,8.15,1.52,8.15,1.52,-1.54,-1.68,-2.00,6.61,6.62,6.63
62.80,7.97,1.41,7.99,1.42,-1.49,-1.62,-1.96,6.49,6.50,6.57
63.43,7.87,1.36,7.87,1.37,-1.46,-1.57,-1.92,6.40,6.41,6.50
64.07,7.80,1.36,7.81,1.38,-1.45,-1.52,-1.87,6.35,6.36,6.43
64.71,7.81,1.44,7.80,1.44,-1.44,-1.47,-1.83,6.36,6.36,6.36
65.35,7.81,1.52,7.81,1.50,-1.44,-1.42,-1.79,6.37,6.36,6.29
66.01,7.81,1.54,7.80,1.53,-1.44,-1.37,-1.75,6.37,6.37,6.28
66.67,7.77,1.49,7.77,1.50,-1.42,-1.33,-1.70,6.35,6.35,6.28
67.33,7.71,1.43,7.71,1.43,-1.39,-1.29,-1.66,6.32,6.32,6.28
68.01,7.62,1.34,7.61,1.34,-1.34,-1.24,-1.61,6.28,6.27,6.28
68.69,7.49,1.24,7.49,1.25,-1.27,-1.20,-1.57,6.21,6.21,6.25
69.37,7.35,1.17,7.35,1.17,-1.20,-1.17,-1.52,6.15,6.15,6.18
70.07,7.22,1.11,7.23,1.10,-1.14,-1.13,-1.47,6.08,6.09,6.11
70.77,7.13,1.05,7.14,1.05,-1.09,-1.09,-1.43,6.04,6.05,6.08
71.48,7.09,1.01,7.09,1.02,-1.05,-1.06,-1.38,6.03,6.04,6.08
72.19,7.07,1.00,7.08,1.00,-1.03,-1.03,-1.33,6.05,6.05,6.08
72.91,7.07,1.00,7.07,1.00,-1.00,-0.99,-1.29,6.07,6.07,6.08
73.64,7.06,1.00,7.06,1.01,-0.97,-0.96,-1.24,6.09,6.09,6.06
74.38,7.02,1.02,7.01,1.00,-0.93,-0.94,-1.19,6.08,6.08,6.00
75.12,6.94,0.97,6.93,0.94,-0.88,-0.91,-1.15,6.06,6.05,5.98
75.87,6.82,0.85,6.82,0.85,-0.83,-0.88,-1.10,6.00,6.00,5.98
76.63,6.70,0.72,6.70,0.75,-0.76,-0.86,-1.05,5.94,5.94,5.98
77.40,6.58,0.65,6.59,0.66,-0.70,-0.83,-1.00,5.87,5.88,5.92
78.17,6.49,0.62,6.49,0.60,-0.64,-0.81,-0.96,5.85,5.85,5.88
78.95,6.42,0.54,6.42,0.56,-0.59,-0.79,-0.91,5.82,5.83,5.88
79.74,6.35,0.54,6.35,0.54,-0.55,-0.77,-0.87,5.81,5.80,5.82
80.54,6.28,0.54,6.28,0.53,-0.51,-0.75,-0.82,5.77,5.77,5.75
81.35,6.21,0.53,6.21,0.53,-0.49,-0.72,-0.77,5.72,5.72,5.68
82.16,6.13,0.51,6.13,0.52,-0.47,-0.70,-0.73,5.66,5.66,5.61
82.98,6.04,0.50,6.04,0.50,-0.46,-0.68,-0.68,5.58,5.58,5.54
83.81,5.97,0.49,5.96,0.46,-0.48,-0.66,-0.64,5.49,5.48,5.48
84.65,5.90,0.43,5.90,0.44,-0.52,-0.64,-0.59,5.39,5.39,5.48
85.50,5.88,0.44,5.88,0.46,-0.57,-0.62,-0.55,5.30,5.31,5.43
86.35,5.89,0.53,5.91,0.54,-0.64,-0.60,-0.51,5.25,5.27,5.36
87.22,5.97,0.67,5.97,0.68,-0.70,-0.57,-0.46,5.27,5.27,5.30
88.09,6.05,0.82,6.04,0.80,-0.74,-0.55,-0.42,5.31,5.30,5.23
88.97,6.07,0.89,6.07,0.88,-0.76,-0.52,-0.38,5.31,5.31,5.18
89.86,6.05,0.87,6.03,0.88,-0.75,-0.49,-0.33,5.30,5.29,5.18
90.76,5.93,0.81,5.92,0.80,-0.70,-0.46,-0.29,5.23,5.22,5.12
91.66,5.75,0.67,5.75,0.65,-0.62,-0.43,-0.25,5.13,5.13,5.08
92.58,5.55,0.47,5.55,0.47,-0.52,-0.39,-0.21,5.03,5.03,5.08
93.51,5.36,0.28,5.37,0.31,-0.40,-0.36,-0.16,4.96,4.97,5.08
94.44,5.22,0.18,5.23,0.19,-0.29,-0.32,-0.12,4.93,4.94,5.04
95.39,5.13,0.15,5.13,0.13,-0.20,-0.28,-0.08,4.93,4.94,4.98
96.34,5.08,0.10,5.08,0.10,-0.13,-0.24,-0.04,4.95,4.95,4.98
97.30,5.05,0.08,5.05,0.08,-0.08,-0.20,0.00,4.97,4.97,4.98
98.28,5.03,0.05,5.02,0.07,-0.05,-0.15,0.05,4.97,4.97,4.97
99.26,4.99,0.09,4.98,0.07,-0.03,-0.11,0.09,4.95,4.95,4.90
100.25,4.93,0.06,4.93,0.04,-0.01,-0.06,0.13,4.92,4.92,4.88
101.25,4.87,-0.01,4.87,-0.01,0.03,-0.02,0.17,4.90,4.90,4.88
102.27,4.79,-0.08,4.79,-0.06,0.08,0.02,0.21,4.88,4.88,4.88
103.29,4.71,-0.13,4.71,-0.12,0.15,0.07,0.25,4.86,4.86,4.85
104.32,4.63,-0.16,4.63,-0.20,0.21,0.11,0.29,4.85,4.85,4.79
105.37,4.55,-0.29,4.55,-0.29,0.28,0.16,0.32,4.83,4.83,4.84
106.42,4.48,-0.40,4.48,-0.37,0.34,0.20,0.36,4.82,4.82,4.88
107.48,4.41,-0.44,4.41,-0.44,0.38,0.24,0.40,4.79,4.79,4.85
108.56,4.34,-0.45,4.34,-0.45,0.42,0.28,0.44,4.76,4.76,4.80
109.64,4.27,-0.44,4.27,-0.45,0.44,0.32,0.47,4.71,4.71,4.71
110.74,4.20,-0.44,4.20,-0.45,0.46,0.36,0.51,4.66,4.65,4.64
111.85,4.12,-0.47,4.12,-0.45,0.47,0.40,0.54,4.59,4.59,4.58
112.97,4.04,-0.44,4.04,-0.46,0.48,0.44,0.57,4.52,4.52,4.48
114.10,3.95,-0.47,3.95,-0.47,0.50,0.47,0.61,4.45,4.45,4.42
115.24,3.86,-0.50,3.86,-0.50,0.53,0.51,0.64,4.39,4.39,4.36
116.39,3.76,-0.54,3.76,-0.55,0.56,0.54,0.67,4.33,4.33,4.31
117.55,3.66,-0.61,3.67,-0.60,0.60,0.58,0.70,4.26,4.27,4.28
118.73,3.59,-0.65,3.59,-0.64,0.63,0.61,0.72,4.22,4.21,4.24
119.92,3.53,-0.65,3.52,-0.67,0.64,0.64,0.75,4.16,4.16,4.18
121.12,3.48,-0.70,3.49,-0.70,0.64,0.67,0.77,4.12,4.13,4.18
122.33,3.47,-0.71,3.48,-0.69,0.64,0.70,0.80,4.11,4.11,4.18
123.55,3.49,-0.68,3.49,-0.65,0.63,0.73,0.82,4.13,4.13,4.18
124.79,3.52,-0.58,3.52,-0.60,0.64,0.76,0.84,4.16,4.16,4.10
126.03,3.53,-0.55,3.52,-0.56,0.65,0.78,0.86,4.18,4.17,4.08
127.29,3.49,-0.58,3.49,-0.58,0.68,0.81,0.87,4.17,4.16,4.08
128.57,3.41,-0.67,3.41,-0.67,0.71,0.84,0.89,4.12,4.12,4.08
129.85,3.30,-0.78,3.30,-0.78,0.76,0.86,0.91,4.05,4.06,4.08
131.15,3.18,-0.88,3.19,-0.86,0.81,0.89,0.92,4.00,4.00,4.07
132.46,3.09,-0.91,3.09,-0.91,0.86,0.91,0.93,3.95,3.96,4.00
133.79,3.01,-0.92,3.01,-0.94,0.90,0.93,0.94,3.92,3.92,3.94
135.12,2.94,-0.93,2.94,-0.96,0.93,0.95,0.95,3.87,3.87,3.88
136.48,2.88,-1.00,2.88,-0.96,0.93,0.98,0.96,3.81,3.81,3.88
137.84,2.82,-0.97,2.83,-0.94,0.93,1.00,0.97,3.75,3.76,3.79
139.22,2.79,-0.88,2.78,-0.90,0.92,1.02,0.98,3.71,3.71,3.66
140.61,2.74,-0.85,2.74,-0.87,0.92,1.04,0.98,3.67,3.67,3.60
142.02,2.69,-0.89,2.69,-0.88,0.94,1.06,0.99,3.62,3.62,3.58
143.44,2.62,-0.93,2.61,-0.92,0.96,1.08,1.00,3.58,3.57,3.55
144.87,2.53,-0.95,2.53,-0.98,0.99,1.09,1.00,3.52,3.52,3.48
146.32,2.44,-1.04,2.44,-1.03,1.02,1.11,1.01,3.46,3.46,3.48
147.78,2.35,-1.09,2.35,-1.07,1.05,1.13,1.01,3.40,3.41,3.44
149.26,2.28,-1.09,2.29,-1.11,1.07,1.14,1.02,3.36,3.36,3.38
150.75,2.24,-1.14,2.24,-1.12,1.08,1.16,1.03,3.32,3.32,3.38
152.26,2.22,-1.12,2.22,-1.11,1.07,1.18,1.03,3.28,3.29,3.33
153.78,2.21,-1.07,2.21,-1.07,1.04,1.19,1.04,3.25,3.25,3.28
155.32,2.21,-1.00,2.21,-1.00,1.01,1.21,1.05,3.22,3.21,3.21
156.88,2.19,-0.94,2.19,-0.94,0.97,1.22,1.05,3.16,3.16,3.13
158.44,2.15,-0.90,2.15,-0.90,0.93,1.23,1.06,3.08,3.08,3.05
160.03,2.09,-0.88,2.09,-0.89,0.91,1.25,1.07,3.01,3.00,2.97
161.63,2.01,-0.91,2.01,-0.90,0.92,1.26,1.08,2.93,2.93,2.92
163.24,1.92,-0.94,1.92,-0.93,0.96,1.27,1.09,2.88,2.88,2.86
164.88,1.83,-0.96,1.83,-0.97,1.03,1.28,1.10,2.85,2.85,2.78
166.53,1.73,-1.04,1.73,-1.04,1.11,1.29,1.12,2.84,2.84,2.78
168.19,1.65,-1.14,1.65,-1.16,1.18,1.31,1.13,2.83,2.83,2.79
169.87,1.57,-1.30,1.58,-1.30,1.24,1.32,1.14,2.82,2.82,2.87
171.57,1.52,-1.44,1.52,-1.41,1.29,1.33,1.16,2.81,2.81,2.95
173.29,1.47,-1.46,1.47,-1.45,1.33,1.34,1.17,2.80,2.80,2.93
175.02,1.43,-1.44,1.43,-1.41,1.35,1.34,1.19,2.79,2.79,2.87
176.77,1.40,-1.30,1.40,-1.34,1.37,1.35,1.21,2.76,2.76,2.70
178.54,1.35,-1.27,1.35,-1.28,1.37,1.36,1.23,2.72,2.72,2.62
180.32,1.30,-1.27,1.30,-1.28,1.37,1.37,1.25,2.67,2.67,2.58
182.13,1.24,-1.34,1.24,-1.34,1.38,1.38,1.27,2.62,2.62,2.58
183.95,1.16,-1.42,1.16,-1.40,1.41,1.38,1.29,2.57,2.57,2.58
185.79,1.08,-1.47,1.08,-1.46,1.45,1.39,1.32,2.53,2.53,2.55
187.65,0.99,-1.50,0.99,-1.52,1.51,1.40,1.34,2.50,2.50,2.49
189.52,0.90,-1.57,0.91,-1.58,1.56,1.40,1.36,2.47,2.47,2.48
191.42,0.83,-1.64,0.83,-1.64,1.61,1.41,1.39,2.44,2.44,2.48
193.33,0.78,-1.70,0.78,-1.68,1.63,1.41,1.42,2.41,2.41,2.48
195.27,0.74,-1.68,0.74,-1.68,1.65,1.42,1.44,2.38,2.38,2.41
197.22,0.70,-1.64,0.69,-1.65,1.65,1.42,1.47,2.35,2.34,2.34
199.19,0.65,-1.62,0.64,-1.62,1.65,1.42,1.50,2.30,2.29,2.27
201.18,0.59,-1.61,0.59,-1.61,1.64,1.43,1.53,2.23,2.23,2.20
203.19,0.53,-1.61,0.53,-1.61,1.64,1.43,1.56,2.16,2.17,2.14
205.23,0.47,-1.60,0.48,-1.62,1.63,1.43,1.59,2.10,2.11,2.08
207.28,0.43,-1.65,0.43,-1.63,1.63,1.43,1.61,2.06,2.06,2.08
209.35,0.39,-1.64,0.39,-1.64,1.63,1.43,1.64,2.02,2.02,2.03
211.44,0.36,-1.62,0.35,-1.65,1.63,1.44,1.67,1.99,1.99,1.98
213.56,0.32,-1.66,0.32,-1.64,1.63,1.44,1.70,1.95,1.95,1.98
215.69,0.28,-1.64,0.28,-1.63,1.62,1.44,1.73,1.90,1.90,1.92
217.85,0.24,-1.61,0.24,-1.62,1.60,1.44,1.75,1.84,1.84,1.85
220.03,0.20,-1.58,0.20,-1.59,1.58,1.43,1.78,1.77,1.77,1.78
222.23,0.16,-1.56,0.16,-1.56,1.56,1.43,1.80,1.71,1.71,1.72
224.45,0.12,-1.54,0.12,-1.53,1.54,1.43,1.82,1.66,1.66,1.66
226.70,0.08,-1.50,0.08,-1.50,1.52,1.43,1.85,1.61,1.61,1.59
228.96,0.05,-1.46,0.05,-1.48,1.51,1.43,1.86,1.56,1.56,1.51
231.25,0.01,-1.46,0.01,-1.48,1.50,1.42,1.88,1.52,1.52,1.48
233.57,-0.03,-1.50,-0.03,-1.50,1.50,1.42,1.89,1.47,1.47,1.48
235.90,-0.06,-1.54,-0.06,-1.52,1.49,1.42,1.91,1.43,1.43,1.48
238.26,-0.10,-1.53,-0.10,-1.53,1.49,1.41,1.91,1.39,1.39,1.43
240.64,-0.13,-1.49,-0.13,-1.50,1.48,1.41,1.92,1.35,1.35,1.36
243.05,-0.17,-1.47,-0.17,-1.46,1.47,1.40,1.92,1.30,1.31,1.30
245.48,-0.20,-1.43,-0.20,-1.44,1.46,1.39,1.92,1.26,1.26,1.23
247.93,-0.23,-1.41,-0.23,-1.43,1.44,1.39,1.92,1.21,1.21,1.18
250.41,-0.26,-1.44,-0.26,-1.42,1.41,1.38,1.91,1.15,1.15,1.18
252.92,-0.29,-1.41,-0.29,-1.40,1.38,1.37,1.90,1.10,1.10,1.13
255.45,-0.31,-1.37,-0.31,-1.37,1.35,1.36,1.89,1.05,1.05,1.06
258.00,-0.33,-1.30,-0.33,-1.33,1.33,1.36,1.87,1.00,1.00,0.98
260.58,-0.34,-1.32,-0.34,-1.31,1.31,1.35,1.85,0.96,0.96,0.98
263.19,-0.36,-1.31,-0.36,-1.29,1.30,1.34,1.83,0.93,0.93,0.95
265.82,-0.38,-1.26,-0.38,-1.26,1.28,1.33,1.80,0.90,0.90,0.88
268.48,-0.40,-1.22,-0.41,-1.24,1.28,1.32,1.77,0.87,0.87,0.81
271.16,-0.43,-1.23,-0.43,-1.26,1.27,1.30,1.74,0.84,0.84,0.81
273.87,-0.45,-1.32,-0.45,-1.30,1.28,1.29,1.71,0.83,0.83,0.87
276.61,-0.47,-1.35,-0.47,-1.33,1.29,1.28,1.67,0.82,0.82,0.88
279.38,-0.49,-1.33,-0.49,-1.32,1.31,1.27,1.63,0.82,0.82,0.84
282.17,-0.51,-1.28,-0.51,-1.30,1.33,1.25,1.59,0.83,0.82,0.78
284.99,-0.52,-1.30,-0.52,-1.31,1.35,1.24,1.55,0.83,0.83,0.78
287.84,-0.53,-1.35,-0.53,-1.35,1.37,1.22,1.50,0.84,0.84,0.82
290.72,-0.54,-1.41,-0.54,-1.40,1.38,1.21,1.46,0.85,0.85,0.88
293.63,-0.54,-1.42,-0.54,-1.42,1.39,1.19,1.41,0.85,0.85,0.88
296.57,-0.55,-1.42,-0.55,-1.42,1.39,1.18,1.36,0.84,0.84,0.88
299.53,-0.55,-1.40,-0.55,-1.39,1.38,1.16,1.32,0.83,0.83,0.85
302.53,-0.56,-1.34,-0.56,-1.36,1.36,1.14,1.27,0.80,0.80,0.79
305.55,-0.56,-1.34,-0.56,-1.33,1.32,1.12,1.22,0.76,0.76,0.78
308.61,-0.56,-1.31,-0.56,-1.29,1.29,1.11,1.17,0.72,0.72,0.74
311.69,-0.56,-1.24,-0.56,-1.24,1.24,1.09,1.12,0.68,0.68,0.68
314.81,-0.56,-1.16,-0.56,-1.18,1.21,1.07,1.07,0.65,0.65,0.61
317.96,-0.55,-1.12,-0.55,-1.13,1.17,1.05,1.02,0.63,0.62,0.58
321.14,-0.54,-1.11,-0.54,-1.11,1.14,1.02,0.96,0.60,0.60,0.58
324.35,-0.53,-1.10,-0.53,-1.11,1.10,1.00,0.91,0.57,0.57,0.58
327.59,-0.52,-1.09,-0.52,-1.09,1.05,0.98,0.86,0.53,0.53,0.58
330.87,-0.51,-1.07,-0.51,-1.05,1.00,0.96,0.81,0.49,0.49,0.56
334.18,-0.50,-0.99,-0.50,-0.99,0.96,0.93,0.76,0.46,0.46,0.49
337.52,-0.49,-0.91,-0.49,-0.91,0.92,0.91,0.71,0.43,0.43,0.43
340.90,-0.48,-0.84,-0.48,-0.83,0.88,0.88,0.66,0.40,0.40,0.36
344.30,-0.47,-0.76,-0.47,-0.77,0.83,0.86,0.62,0.37,0.37,0.29
347.75,-0.46,-0.73,-0.46,-0.75,0.79,0.83,0.57,0.33,0.33,0.28
351.23,-0.45,-0.75,-0.45,-0.76,0.75,0.81,0.52,0.30,0.30,0.30
354.74,-0.44,-0.81,-0.44,-0.76,0.71,0.78,0.47,0.28,0.28,0.37
358.28,-0.43,-0.74,-0.43,-0.73,0.68,0.75,0.42,0.26,0.26,0.31
361.87,-0.41,-0.65,-0.41,-0.66,0.65,0.72,0.37,0.24,0.24,0.24
365.49,-0.40,-0.58,-0.40,-0.60,0.62,0.69,0.33,0.22,0.22,0.18
369.14,-0.39,-0.56,-0.39,-0.56,0.59,0.66,0.28,0.20,0.20,0.18
372.83,-0.37,-0.55,-0.37,-0.54,0.54,0.63,0.24,0.17,0.17,0.18
376.56,-0.36,-0.52,-0.36,-0.50,0.50,0.60,0.19,0.14,0.14,0.17
380.33,-0.34,-0.44,-0.34,-0.45,0.45,0.57,0.14,0.11,0.11,0.10
384.13,-0.32,-0.40,-0.32,-0.41,0.41,0.54,0.10,0.09,0.09,0.08
387.97,-0.30,-0.38,-0.30,-0.38,0.37,0.51,0.05,0.06,0.06,0.08
391.85,-0.28,-0.36,-0.28,-0.34,0.32,0.47,0.01,0.04,0.04,0.08
395.77,-0.26,-0.28,-0.26,-0.29,0.29,0.44,-0.03,0.02,0.02,0.02
399.73,-0.25,-0.22,-0.25,-0.24,0.25,0.41,-0.08,0.01,0.01,-0.02
403.72,-0.23,-0.20,-0.23,-0.20,0.23,0.37,-0.12,-0.00,-0.00,-0.02
407.76,-0.21,-0.19,-0.21,-0.18,0.20,0.34,-0.16,-0.01,-0.01,-0.02
411.84,-0.19,-0.17,-0.19,-0.17,0.18,0.30,-0.20,-0.01,-0.01,-0.02
415.96,-0.18,-0.15,-0.18,-0.18,0.17,0.27,-0.24,-0.01,-0.01,-0.02
420.12,-0.16,-0.21,-0.16,-0.18,0.15,0.23,-0.28,-0.01,-0.01,0.04
424.32,-0.14,-0.18,-0.15,-0.16,0.14,0.20,-0.32,-0.00,-0.00,0.04
428.56,-0.13,-0.11,-0.13,-0.13,0.13,0.16,-0.35,-0.00,-0.00,-0.02
432.85,-0.11,-0.09,-0.11,-0.09,0.11,0.13,-0.39,-0.00,-0.00,-0.02
437.18,-0.10,-0.07,-0.10,-0.07,0.09,0.09,-0.42,-0.01,-0.01,-0.02
441.55,-0.08,-0.06,-0.08,-0.06,0.05,0.05,-0.45,-0.03,-0.03,-0.02
445.96,-0.06,-0.04,-0.06,-0.02,0.02,0.02,-0.49,-0.05,-0.05,-0.02
450.42,-0.05,0.03,-0.05,0.02,-0.03,-0.02,-0.52,-0.08,-0.08,-0.07
454.93,-0.03,0.09,-0.03,0.07,-0.09,-0.06,-0.54,-0.12,-0.12,-0.12
459.48,-0.01,0.11,-0.01,0.13,-0.15,-0.09,-0.57,-0.16,-0.16,-0.12
464.07,0.00,0.19,0.00,0.19,-0.21,-0.13,-0.59,-0.21,-0.21,-0.18
468.71,0.02,0.27,0.02,0.27,-0.28,-0.16,-0.61,-0.26,-0.26,-0.25
473.40,0.04,0.35,0.04,0.36,-0.34,-0.20,-0.63,-0.31,-0.31,-0.32
478.13,0.05,0.44,0.05,0.43,-0.40,-0.23,-0.65,-0.35,-0.35,-0.38
482.91,0.07,0.49,0.07,0.48,-0.45,-0.27,-0.67,-0.38,-0.38,-0.42
487.74,0.08,0.50,0.08,0.51,-0.49,-0.30,-0.68,-0.41,-0.41,-0.42
492.62,0.09,0.52,0.09,0.52,-0.52,-0.34,-0.69,-0.43,-0.43,-0.42
497.55,0.10,0.53,0.10,0.53,-0.54,-0.37,-0.70,-0.44,-0.44,-0.42
502.52,0.11,0.53,0.11,0.53,-0.55,-0.40,-0.70,-0.44,-0.44,-0.42
507.55,0.12,0.54,0.12,0.54,-0.55,-0.43,-0.70,-0.43,-0.43,-0.42
512.62,0.12,0.55,0.12,0.55,-0.55,-0.46,-0.70,-0.43,-0.43,-0.42
517.75,0.13,0.55,0.13,0.55,-0.55,-0.49,-0.70,-0.42,-0.42,-0.42
522.93,0.13,0.55,0.13,0.55,-0.55,-0.52,-0.70,-0.42,-0.42,-0.42
