frequency,raw,error,smoothed,error_smoothed,equalization,parametric_eq,fixed_band_eq,equalized_raw,equalized_smoothed,target
20.00,8.37,3.75,8.36,3.74,-3.79,-3.68,-2.03,4.59,4.58,4.62
20.20,8.55,3.93,8.56,3.94,-3.96,-3.95,-2.09,4.59,4.60,4.62
20.40,8.71,4.10,8.72,4.11,-4.11,-4.22,-2.15,4.60,4.62,4.61
20.61,8.87,4.26,8.86,4.25,-4.23,-4.44,-2.21,4.63,4.63,4.61
20.81,8.98,4.38,8.98,4.38,-4.34,-4.65,-2.28,4.65,4.65,4.60
21.02,9.06,4.46,9.06,4.47,-4.41,-4.74,-2.34,4.65,4.65,4.60
21.23,9.11,4.52,9.10,4.51,-4.47,-4.82,-2.41,4.64,4.63,4.59
21.44,9.11,4.52,9.11,4.52,-4.50,-4.77,-2.48,4.61,4.61,4.59
21.66,9.07,4.49,9.08,4.50,-4.49,-4.71,-2.55,4.58,4.59,4.58
21.87,9.03,4.46,9.03,4.45,-4.45,-4.58,-2.63,4.57,4.57,4.57
22.09,8.96,4.40,8.96,4.40,-4.40,-4.45,-2.70,4.56,4.56,4.56
22.31,8.89,4.33,8.89,4.33,-4.34,-4.33,-2.78,4.55,4.55,4.56
22.54,8.81,4.27,8.81,4.27,-4.27,-4.21,-2.86,4.55,4.55,4.55
22.76,8.74,4.20,8.74,4.20,-4.20,-4.14,-2.94,4.54,4.54,4.54
22.99,8.68,4.15,8.68,4.15,-4.15,-4.07,-3.03,4.53,4.53,4.53
23.22,8.63,4.10,8.63,4.10,-4.11,-4.05,-3.11,4.51,4.51,4.52
23.45,8.59,4.08,8.59,4.08,-4.10,-4.05,-3.20,4.49,4.49,4.51
23.69,8.58,4.08,8.58,4.08,-4.11,-4.09,-3.29,4.47,4.47,4.51
23.92,8.60,4.10,8.60,4.11,-4.15,-4.14,-3.38,4.45,4.45,4.50
24.16,8.66,4.17,8.66,4.17,-4.22,-4.22,-3.47,4.44,4.44,4.49
24.40,8.74,4.26,8.75,4.27,-4.30,-4.31,-3.57,4.44,4.44,4.48
24.65,8.85,4.38,8.85,4.38,-4.39,-4.40,-3.66,4.46,4.46,4.47
24.89,8.96,4.50,8.96,4.50,-4.48,-4.50,-3.76,4.49,4.48,4.46
25.14,9.04,4.59,9.05,4.59,-4.54,-4.56,-3.86,4.50,4.51,4.45
25.39,9.10,4.66,9.09,4.65,-4.57,-4.62,-3.96,4.53,4.52,4.44
25.65,9.08,4.65,9.08,4.65,-4.57,-4.62,-4.06,4.51,4.51,4.43
25.91,9.03,4.60,9.03,4.60,-4.54,-4.61,-4.16,4.49,4.49,4.43
26.16,8.93,4.51,8.92,4.51,-4.48,-4.56,-4.26,4.45,4.44,4.42
26.43,8.80,4.39,8.80,4.39,-4.41,-4.50,-4.36,4.39,4.39,4.41
26.69,8.68,4.28,8.68,4.28,-4.34,-4.42,-4.45,4.34,4.34,4.40
26.96,8.58,4.19,8.59,4.20,-4.28,-4.35,-4.55,4.30,4.31,4.39
27.23,8.53,4.15,8.54,4.16,-4.23,-4.28,-4.65,4.30,4.31,4.38
27.50,8.54,4.16,8.54,4.16,-4.20,-4.22,-4.74,4.33,4.33,4.37
27.77,8.56,4.20,8.56,4.19,-4.19,-4.17,-4.83,4.37,4.37,4.36
28.05,8.58,4.23,8.58,4.23,-4.18,-4.13,-4.92,4.41,4.40,4.35
28.33,8.58,4.24,8.58,4.24,-4.18,-4.11,-5.00,4.41,4.41,4.34
28.62,8.56,4.23,8.56,4.22,-4.17,-4.10,-5.08,4.39,4.39,4.34
28.90,8.51,4.19,8.51,4.18,-4.17,-4.10,-5.15,4.35,4.34,4.33
29.19,8.46,4.14,8.46,4.14,-4.16,-4.10,-5.22,4.30,4.30,4.32
29.48,8.41,4.10,8.42,4.11,-4.15,-4.11,-5.28,4.26,4.27,4.31
29.78,8.40,4.10,8.40,4.10,-4.14,-4.13,-5.34,4.26,4.26,4.30
30.08,8.41,4.12,8.41,4.12,-4.13,-4.16,-5.39,4.28,4.28,4.29
30.38,8.44,4.16,8.44,4.16,-4.14,-4.19,-5.44,4.30,4.30,4.28
30.68,8.47,4.20,8.46,4.19,-4.16,-4.23,-5.47,4.31,4.30,4.27
30.99,8.49,4.23,8.49,4.22,-4.21,-4.27,-5.50,4.28,4.28,4.26
31.30,8.51,4.26,8.51,4.26,-4.28,-4.31,-5.52,4.24,4.24,4.25
31.61,8.55,4.31,8.56,4.31,-4.36,-4.35,-5.54,4.19,4.19,4.24
31.93,8.62,4.39,8.63,4.40,-4.47,-4.40,-5.54,4.16,4.17,4.24
32.24,8.75,4.52,8.75,4.53,-4.58,-4.45,-5.55,4.17,4.18,4.23
32.57,8.89,4.67,8.89,4.68,-4.69,-4.49,-5.54,4.21,4.21,4.22
32.89,9.04,4.83,9.04,4.83,-4.78,-4.54,-5.53,4.26,4.25,4.21
33.22,9.15,4.95,9.15,4.95,-4.86,-4.59,-5.51,4.29,4.28,4.20
33.55,9.22,5.03,9.21,5.02,-4.92,-4.63,-5.48,4.30,4.28,4.19
33.89,9.21,5.03,9.21,5.02,-4.96,-4.68,-5.45,4.25,4.25,4.18
34.23,9.16,4.99,9.16,4.99,-4.97,-4.72,-5.42,4.19,4.19,4.17
34.57,9.10,4.94,9.10,4.94,-4.97,-4.77,-5.38,4.13,4.13,4.16
34.92,9.05,4.90,9.06,4.90,-4.97,-4.81,-5.33,4.08,4.09,4.15
35.27,9.04,4.89,9.04,4.90,-4.98,-4.84,-5.29,4.06,4.07,4.15
35.62,9.06,4.92,9.06,4.93,-4.99,-4.88,-5.24,4.07,4.07,4.14
35.97,9.11,4.98,9.11,4.98,-5.02,-4.91,-5.19,4.09,4.09,4.13
36.33,9.17,5.05,9.17,5.05,-5.05,-4.94,-5.14,4.12,4.12,4.12
36.70,9.23,5.12,9.23,5.12,-5.08,-4.97,-5.08,4.15,4.15,4.11
37.06,9.26,5.16,9.25,5.15,-5.09,-4.99,-5.03,4.17,4.16,4.10
37.43,9.25,5.16,9.24,5.15,-5.07,-5.01,-4.98,4.18,4.17,4.09
37.81,9.18,5.09,9.18,5.10,-5.03,-5.03,-4.92,4.14,4.15,4.08
38.19,9.09,5.02,9.08,5.01,-4.97,-5.04,-4.87,4.12,4.11,4.07
38.57,8.96,4.90,8.96,4.90,-4.91,-5.05,-4.82,4.05,4.06,4.06
38.95,8.85,4.80,8.85,4.80,-4.84,-5.06,-4.77,4.01,4.01,4.05
39.34,8.75,4.71,8.76,4.72,-4.79,-5.06,-4.72,3.96,3.97,4.05
39.74,8.71,4.68,8.72,4.69,-4.76,-5.06,-4.68,3.95,3.96,4.04
40.14,8.73,4.70,8.73,4.70,-4.76,-5.06,-4.63,3.97,3.97,4.03
40.54,8.78,4.76,8.78,4.76,-4.78,-5.05,-4.59,4.00,4.00,4.02
40.94,8.85,4.84,8.84,4.83,-4.82,-5.04,-4.55,4.03,4.02,4.01
41.35,8.90,4.90,8.90,4.90,-4.87,-5.03,-4.52,4.04,4.03,4.00
41.76,8.94,4.95,8.94,4.95,-4.91,-5.02,-4.49,4.03,4.03,3.99
42.18,8.95,4.97,8.96,4.97,-4.94,-5.00,-4.46,4.01,4.02,3.98
42.60,8.95,4.98,8.95,4.98,-4.94,-4.98,-4.43,4.01,4.01,3.97
43.03,8.92,4.96,8.92,4.95,-4.92,-4.96,-4.41,4.00,3.99,3.96
43.46,8.86,4.91,8.86,4.91,-4.88,-4.94,-4.39,3.98,3.98,3.95
43.90,8.79,4.84,8.79,4.84,-4.83,-4.91,-4.37,3.96,3.95,3.95
44.33,8.70,4.76,8.70,4.76,-4.78,-4.89,-4.36,3.92,3.92,3.94
44.78,8.62,4.69,8.62,4.69,-4.73,-4.86,-4.35,3.89,3.89,3.93
45.23,8.55,4.63,8.56,4.64,-4.69,-4.83,-4.34,3.86,3.87,3.92
45.68,8.52,4.61,8.52,4.61,-4.65,-4.81,-4.34,3.87,3.87,3.91
46.13,8.51,4.61,8.51,4.61,-4.62,-4.78,-4.34,3.89,3.89,3.90
46.60,8.51,4.62,8.51,4.62,-4.59,-4.75,-4.34,3.93,3.92,3.89
47.06,8.50,4.62,8.50,4.62,-4.56,-4.72,-4.35,3.94,3.94,3.88
47.53,8.47,4.60,8.46,4.59,-4.54,-4.69,-4.36,3.94,3.93,3.87
48.01,8.40,4.54,8.40,4.54,-4.52,-4.67,-4.37,3.88,3.88,3.86
48.49,8.33,4.48,8.34,4.48,-4.52,-4.64,-4.39,3.82,3.82,3.86
48.97,8.29,4.45,8.29,4.45,-4.52,-4.61,-4.41,3.77,3.78,3.85
49.46,8.28,4.44,8.30,4.46,-4.53,-4.59,-4.43,3.75,3.77,3.84
49.96,8.33,4.51,8.34,4.51,-4.54,-4.56,-4.45,3.79,3.80,3.83
50.46,8.40,4.59,8.40,4.58,-4.56,-4.54,-4.48,3.85,3.85,3.82
50.96,8.46,4.65,8.45,4.64,-4.58,-4.52,-4.50,3.88,3.88,3.81
51.47,8.48,4.68,8.47,4.67,-4.60,-4.50,-4.53,3.88,3.87,3.80
51.99,8.45,4.66,8.45,4.66,-4.63,-4.48,-4.56,3.82,3.82,3.79
52.51,8.42,4.64,8.42,4.64,-4.66,-4.46,-4.59,3.76,3.76,3.78
53.03,8.39,4.62,8.40,4.63,-4.69,-4.44,-4.62,3.70,3.71,3.77
53.56,8.41,4.65,8.41,4.65,-4.71,-4.43,-4.65,3.70,3.70,3.76
54.10,8.45,4.70,8.45,4.70,-4.73,-4.41,-4.68,3.72,3.72,3.75
54.64,8.50,4.76,8.50,4.76,-4.75,-4.40,-4.71,3.75,3.75,3.74
55.18,8.54,4.80,8.53,4.80,-4.76,-4.39,-4.74,3.78,3.77,3.73
55.74,8.53,4.81,8.53,4.81,-4.77,-4.38,-4.77,3.77,3.77,3.72
56.29,8.51,4.79,8.51,4.79,-4.75,-4.37,-4.80,3.75,3.75,3.71
56.86,8.45,4.75,8.45,4.75,-4.72,-4.36,-4.82,3.74,3.73,3.70
57.42,8.37,4.68,8.37,4.68,-4.66,-4.36,-4.84,3.71,3.71,3.69
58.00,8.28,4.60,8.28,4.60,-4.59,-4.35,-4.86,3.69,3.69,3.68
58.58,8.18,4.51,8.18,4.51,-4.51,-4.35,-4.87,3.67,3.67,3.67
59.16,8.08,4.42,8.08,4.42,-4.43,-4.35,-4.88,3.64,3.64,3.66
59.76,7.99,4.34,7.99,4.34,-4.37,-4.34,-4.89,3.62,3.62,3.65
60.35,7.92,4.28,7.92,4.28,-4.32,-4.34,-4.89,3.60,3.60,3.64
60.96,7.87,4.25,7.88,4.25,-4.29,-4.34,-4.88,3.59,3.59,3.63
61.57,7.86,4.25,7.86,4.25,-4.27,-4.34,-4.87,3.59,3.59,3.61
62.18,7.87,4.27,7.87,4.27,-4.27,-4.34,-4.86,3.60,3.60,3.60
62.80,7.88,4.30,7.88,4.29,-4.28,-4.34,-4.84,3.60,3.60,3.59
63.43,7.89,4.32,7.89,4.32,-4.30,-4.34,-4.81,3.60,3.59,3.58
64.07,7.89,4.33,7.89,4.33,-4.31,-4.35,-4.78,3.58,3.58,3.56
64.71,7.88,4.33,7.89,4.34,-4.32,-4.35,-4.75,3.56,3.56,3.55
65.35,7.87,4.33,7.87,4.33,-4.32,-4.35,-4.71,3.55,3.55,3.54
66.01,7.85,4.33,7.85,4.32,-4.31,-4.35,-4.66,3.54,3.54,3.52
66.67,7.82,4.31,7.81,4.30,-4.29,-4.35,-4.61,3.52,3.52,3.51
67.33,7.77,4.28,7.77,4.28,-4.28,-4.34,-4.56,3.50,3.50,3.50
68.01,7.73,4.24,7.73,4.24,-4.26,-4.34,-4.50,3.47,3.47,3.48
68.69,7.68,4.22,7.69,4.22,-4.24,-4.34,-4.44,3.45,3.45,3.47
69.37,7.66,4.20,7.66,4.20,-4.22,-4.33,-4.37,3.43,3.44,3.45
70.07,7.64,4.20,7.64,4.20,-4.21,-4.32,-4.30,3.43,3.43,3.44
70.77,7.63,4.20,7.63,4.20,-4.20,-4.32,-4.23,3.43,3.43,3.43
71.48,7.62,4.20,7.61,4.20,-4.19,-4.31,-4.16,3.43,3.42,3.41
72.19,7.60,4.20,7.59,4.19,-4.18,-4.29,-4.09,3.41,3.41,3.40
72.91,7.57,4.18,7.57,4.18,-4.18,-4.28,-4.01,3.39,3.39,3.38
73.64,7.54,4.17,7.54,4.17,-4.18,-4.26,-3.94,3.37,3.37,3.37
74.38,7.52,4.16,7.52,4.16,-4.17,-4.24,-3.86,3.35,3.35,3.36
75.12,7.50,4.15,7.50,4.15,-4.16,-4.22,-3.78,3.34,3.34,3.34
75.87,7.47,4.15,7.47,4.15,-4.15,-4.20,-3.71,3.33,3.32,3.33
76.63,7.45,4.13,7.45,4.13,-4.13,-4.17,-3.63,3.31,3.32,3.31
77.40,7.42,4.12,7.42,4.12,-4.11,-4.14,-3.56,3.31,3.31,3.30
78.17,7.38,4.10,7.38,4.10,-4.09,-4.11,-3.48,3.30,3.30,3.29
78.95,7.34,4.07,7.34,4.07,-4.05,-4.08,-3.41,3.29,3.29,3.27
79.74,7.28,4.03,7.28,4.02,-4.01,-4.04,-3.33,3.27,3.27,3.26
80.54,7.22,3.97,7.22,3.97,-3.96,-4.01,-3.26,3.25,3.25,3.24
81.35,7.14,3.91,7.14,3.91,-3.92,-3.97,-3.19,3.23,3.23,3.23
82.16,7.07,3.86,7.07,3.86,-3.87,-3.92,-3.13,3.20,3.20,3.22
82.98,7.01,3.81,7.01,3.80,-3.82,-3.88,-3.06,3.18,3.18,3.20
83.81,6.95,3.76,6.95,3.76,-3.79,-3.83,-2.99,3.16,3.17,3.19
84.65,6.90,3.73,6.91,3.73,-3.75,-3.78,-2.93,3.16,3.16,3.17
85.50,6.87,3.71,6.87,3.71,-3.71,-3.73,-2.87,3.15,3.15,3.16
86.35,6.84,3.69,6.84,3.69,-3.68,-3.68,-2.81,3.16,3.16,3.14
87.22,6.80,3.67,6.80,3.67,-3.64,-3.63,-2.76,3.16,3.15,3.13
88.09,6.75,3.63,6.74,3.63,-3.60,-3.57,-2.70,3.14,3.14,3.12
88.97,6.68,3.58,6.68,3.58,-3.56,-3.52,-2.65,3.12,3.12,3.10
89.86,6.60,3.51,6.60,3.52,-3.51,-3.46,-2.60,3.09,3.09,3.09
90.76,6.53,3.45,6.53,3.45,-3.46,-3.40,-2.55,3.06,3.06,3.07
91.66,6.46,3.40,6.46,3.40,-3.42,-3.34,-2.50,3.04,3.04,3.06
92.58,6.39,3.35,6.40,3.35,-3.38,-3.28,-2.46,3.02,3.02,3.05
93.51,6.35,3.32,6.35,3.32,-3.34,-3.22,-2.42,3.01,3.01,3.03
94.44,6.31,3.29,6.31,3.29,-3.30,-3.16,-2.38,3.01,3.01,3.02
95.39,6.28,3.28,6.28,3.28,-3.27,-3.10,-2.34,3.01,3.01,3.00
96.34,6.24,3.25,6.24,3.25,-3.23,-3.03,-2.30,3.01,3.01,2.99
97.30,6.20,3.22,6.19,3.22,-3.20,-2.97,-2.27,3.00,3.00,2.97
98.28,6.13,3.17,6.13,3.17,-3.15,-2.91,-2.23,2.98,2.98,2.96
99.26,6.05,3.10,6.05,3.10,-3.10,-2.85,-2.20,2.95,2.95,2.95
100.25,5.97,3.03,5.97,3.03,-3.04,-2.78,-2.17,2.93,2.93,2.93
101.25,5.88,2.96,5.88,2.96,-2.97,-2.72,-2.14,2.91,2.91,2.92
102.27,5.80,2.89,5.80,2.89,-2.90,-2.66,-2.11,2.90,2.90,2.90
103.29,5.71,2.82,5.71,2.82,-2.82,-2.60,-2.09,2.89,2.89,2.89
104.32,5.63,2.75,5.62,2.75,-2.74,-2.54,-2.06,2.88,2.88,2.88
105.37,5.53,2.67,5.53,2.67,-2.66,-2.48,-2.04,2.87,2.87,2.86
106.42,5.43,2.59,5.43,2.59,-2.58,-2.42,-2.01,2.85,2.85,2.85
107.48,5.33,2.50,5.33,2.50,-2.50,-2.36,-1.99,2.83,2.83,2.83
108.56,5.23,2.41,5.23,2.41,-2.42,-2.30,-1.97,2.81,2.81,2.82
109.64,5.13,2.33,5.13,2.33,-2.34,-2.24,-1.95,2.80,2.80,2.81
110.74,5.04,2.25,5.04,2.25,-2.26,-2.18,-1.92,2.78,2.78,2.79
111.85,4.96,2.18,4.96,2.18,-2.19,-2.12,-1.90,2.77,2.77,2.78
112.97,4.88,2.11,4.88,2.11,-2.11,-2.06,-1.88,2.76,2.76,2.76
114.10,4.80,2.05,4.80,2.05,-2.05,-2.01,-1.86,2.75,2.75,2.75
115.24,4.72,1.98,4.72,1.98,-1.98,-1.95,-1.84,2.74,2.74,2.73
116.39,4.64,1.92,4.64,1.92,-1.92,-1.89,-1.82,2.72,2.72,2.72
117.55,4.56,1.85,4.56,1.86,-1.86,-1.84,-1.80,2.70,2.71,2.71
118.73,4.48,1.79,4.49,1.79,-1.79,-1.78,-1.77,2.69,2.69,2.69
119.92,4.41,1.73,4.41,1.73,-1.73,-1.73,-1.75,2.68,2.68,2.68
121.12,4.33,1.67,4.33,1.67,-1.66,-1.67,-1.73,2.67,2.67,2.66
122.33,4.25,1.60,4.25,1.60,-1.60,-1.62,-1.70,2.66,2.66,2.65
123.55,4.17,1.53,4.17,1.53,-1.53,-1.56,-1.68,2.64,2.64,2.64
124.79,4.08,1.46,4.08,1.46,-1.46,-1.51,-1.65,2.62,2.62,2.62
126.03,4.00,1.39,4.00,1.39,-1.40,-1.46,-1.63,2.60,2.60,2.61
127.29,3.92,1.33,3.92,1.33,-1.33,-1.40,-1.60,2.59,2.59,2.59
128.57,3.84,1.26,3.84,1.26,-1.27,-1.35,-1.57,2.58,2.58,2.58
129.85,3.77,1.20,3.77,1.20,-1.20,-1.30,-1.54,2.57,2.57,2.56
131.15,3.70,1.15,3.70,1.15,-1.14,-1.24,-1.51,2.55,2.55,2.55
132.46,3.62,1.09,3.62,1.09,-1.08,-1.19,-1.48,2.54,2.54,2.54
133.79,3.55,1.02,3.55,1.02,-1.02,-1.14,-1.45,2.53,2.53,2.52
135.12,3.47,0.96,3.47,0.96,-0.96,-1.09,-1.42,2.51,2.51,2.51
136.48,3.40,0.90,3.40,0.90,-0.90,-1.04,-1.39,2.49,2.49,2.49
137.84,3.32,0.84,3.32,0.85,-0.85,-0.98,-1.35,2.48,2.48,2.48
139.22,3.26,0.79,3.26,0.79,-0.79,-0.93,-1.32,2.46,2.46,2.47
140.61,3.19,0.74,3.19,0.74,-0.74,-0.88,-1.28,2.45,2.45,2.45
142.02,3.12,0.69,3.12,0.69,-0.69,-0.83,-1.25,2.44,2.44,2.44
143.44,3.06,0.64,3.06,0.64,-0.64,-0.79,-1.21,2.42,2.42,2.42
144.87,3.01,0.60,3.01,0.60,-0.60,-0.74,-1.18,2.41,2.41,2.41
146.32,2.95,0.56,2.95,0.56,-0.56,-0.70,-1.14,2.39,2.39,2.39
147.78,2.90,0.52,2.90,0.52,-0.52,-0.65,-1.10,2.38,2.38,2.38
149.26,2.86,0.49,2.86,0.49,-0.49,-0.61,-1.07,2.37,2.37,2.37
150.75,2.81,0.46,2.81,0.46,-0.46,-0.58,-1.03,2.36,2.36,2.35
152.26,2.77,0.43,2.77,0.43,-0.42,-0.54,-0.99,2.35,2.34,2.34
153.78,2.72,0.40,2.72,0.40,-0.39,-0.51,-0.96,2.33,2.33,2.32
155.32,2.67,0.36,2.67,0.36,-0.36,-0.48,-0.92,2.31,2.31,2.31
156.88,2.63,0.33,2.63,0.33,-0.33,-0.46,-0.89,2.29,2.29,2.30
158.44,2.59,0.31,2.59,0.31,-0.31,-0.43,-0.85,2.28,2.28,2.28
160.03,2.55,0.28,2.55,0.28,-0.28,-0.41,-0.81,2.27,2.27,2.27
161.63,2.52,0.26,2.52,0.26,-0.27,-0.40,-0.78,2.25,2.25,2.25
163.24,2.49,0.25,2.49,0.25,-0.25,-0.38,-0.74,2.24,2.24,2.24
164.88,2.46,0.24,2.46,0.24,-0.24,-0.38,-0.71,2.22,2.22,2.23
166.53,2.44,0.23,2.44,0.23,-0.24,-0.37,-0.67,2.21,2.21,2.21
168.19,2.43,0.23,2.43,0.23,-0.23,-0.36,-0.64,2.20,2.19,2.20
169.87,2.42,0.24,2.42,0.24,-0.24,-0.35,-0.60,2.18,2.18,2.18
171.57,2.41,0.24,2.41,0.24,-0.24,-0.35,-0.57,2.17,2.17,2.17
173.29,2.40,0.25,2.40,0.25,-0.25,-0.35,-0.53,2.15,2.15,2.15
175.02,2.39,0.25,2.39,0.25,-0.25,-0.35,-0.50,2.14,2.14,2.14
176.77,2.38,0.26,2.38,0.26,-0.26,-0.34,-0.47,2.13,2.13,2.13
178.54,2.37,0.26,2.37,0.26,-0.26,-0.34,-0.43,2.12,2.12,2.11
180.32,2.36,0.26,2.36,0.26,-0.26,-0.34,-0.40,2.10,2.10,2.10
182.13,2.34,0.26,2.34,0.26,-0.25,-0.34,-0.37,2.09,2.09,2.08
183.95,2.32,0.25,2.32,0.25,-0.25,-0.34,-0.34,2.08,2.08,2.07
185.79,2.30,0.24,2.30,0.24,-0.24,-0.33,-0.31,2.06,2.06,2.06
187.65,2.27,0.23,2.27,0.23,-0.23,-0.33,-0.27,2.04,2.04,2.04
189.52,2.24,0.22,2.25,0.22,-0.23,-0.33,-0.24,2.02,2.02,2.03
191.42,2.23,0.21,2.23,0.21,-0.22,-0.32,-0.21,2.00,2.00,2.01
193.33,2.21,0.21,2.21,0.22,-0.23,-0.32,-0.18,1.99,1.99,2.00
195.27,2.21,0.23,2.21,0.23,-0.23,-0.32,-0.15,1.98,1.98,1.98
197.22,2.21,0.24,2.21,0.24,-0.24,-0.31,-0.12,1.97,1.97,1.97
199.19,2.22,0.26,2.22,0.26,-0.26,-0.30,-0.09,1.96,1.96,1.96
201.18,2.22,0.28,2.22,0.28,-0.28,-0.30,-0.06,1.94,1.94,1.94
203.19,2.23,0.30,2.23,0.30,-0.30,-0.29,-0.03,1.93,1.93,1.93
205.23,2.23,0.32,2.23,0.32,-0.32,-0.28,-0.01,1.91,1.91,1.91
207.28,2.23,0.33,2.23,0.33,-0.33,-0.27,0.02,1.90,1.90,1.90
209.35,2.23,0.35,2.23,0.35,-0.35,-0.26,0.05,1.89,1.89,1.89
211.44,2.23,0.35,2.23,0.35,-0.35,-0.25,0.08,1.88,1.88,1.87
213.56,2.21,0.35,2.21,0.35,-0.35,-0.24,0.10,1.87,1.86,1.86
215.69,2.18,0.34,2.19,0.34,-0.33,-0.23,0.12,1.85,1.85,1.84
217.85,2.15,0.33,2.15,0.32,-0.31,-0.22,0.15,1.84,1.84,1.83
220.03,2.11,0.30,2.11,0.29,-0.29,-0.21,0.17,1.83,1.82,1.81
222.23,2.06,0.26,2.06,0.26,-0.25,-0.19,0.19,1.80,1.81,1.80
224.45,2.00,0.21,2.00,0.21,-0.22,-0.18,0.21,1.79,1.79,1.79
226.70,1.94,0.17,1.94,0.17,-0.18,-0.16,0.23,1.76,1.76,1.77
228.96,1.89,0.13,1.89,0.13,-0.14,-0.15,0.25,1.75,1.75,1.76
231.25,1.84,0.10,1.84,0.10,-0.11,-0.13,0.26,1.73,1.73,1.74
233.57,1.80,0.07,1.80,0.07,-0.08,-0.12,0.28,1.72,1.72,1.73
235.90,1.77,0.06,1.77,0.06,-0.06,-0.10,0.29,1.71,1.71,1.72
238.26,1.74,0.04,1.74,0.04,-0.04,-0.08,0.30,1.70,1.70,1.70
240.64,1.72,0.03,1.72,0.03,-0.02,-0.07,0.31,1.69,1.69,1.69
243.05,1.69,0.01,1.69,0.01,-0.01,-0.05,0.32,1.68,1.68,1.67
245.48,1.65,-0.00,1.65,-0.00,0.01,-0.03,0.32,1.66,1.66,1.66
247.93,1.62,-0.02,1.62,-0.02,0.03,-0.01,0.33,1.65,1.65,1.65
250.41,1.59,-0.04,1.59,-0.04,0.05,0.01,0.33,1.63,1.63,1.63
252.92,1.55,-0.06,1.55,-0.06,0.06,0.03,0.33,1.62,1.62,1.62
255.45,1.52,-0.08,1.52,-0.09,0.08,0.05,0.33,1.60,1.60,1.60
258.00,1.48,-0.11,1.48,-0.10,0.10,0.07,0.33,1.58,1.59,1.59
260.58,1.45,-0.12,1.45,-0.12,0.12,0.09,0.32,1.57,1.57,1.57
263.19,1.42,-0.14,1.42,-0.14,0.14,0.11,0.31,1.56,1.56,1.56
265.82,1.40,-0.15,1.40,-0.15,0.15,0.13,0.30,1.55,1.55,1.55
268.48,1.37,-0.16,1.37,-0.17,0.17,0.15,0.29,1.53,1.53,1.53
271.16,1.34,-0.18,1.34,-0.18,0.18,0.16,0.28,1.52,1.52,1.52
273.87,1.31,-0.19,1.31,-0.19,0.19,0.18,0.27,1.50,1.50,1.50
276.61,1.28,-0.21,1.28,-0.21,0.20,0.19,0.25,1.49,1.49,1.49
279.38,1.26,-0.22,1.26,-0.22,0.21,0.21,0.23,1.47,1.47,1.48
282.17,1.24,-0.22,1.24,-0.22,0.22,0.22,0.22,1.46,1.46,1.46
284.99,1.22,-0.23,1.22,-0.23,0.23,0.23,0.20,1.45,1.45,1.45
287.84,1.20,-0.23,1.20,-0.23,0.23,0.23,0.18,1.44,1.43,1.43
290.72,1.18,-0.23,1.18,-0.23,0.24,0.24,0.16,1.42,1.42,1.42
293.63,1.17,-0.24,1.17,-0.24,0.24,0.24,0.13,1.41,1.41,1.40
296.57,1.15,-0.24,1.15,-0.24,0.24,0.24,0.11,1.39,1.39,1.39
299.53,1.14,-0.24,1.14,-0.24,0.24,0.23,0.09,1.37,1.38,1.38
302.53,1.13,-0.23,1.13,-0.23,0.23,0.22,0.06,1.36,1.36,1.36
305.55,1.12,-0.23,1.12,-0.23,0.23,0.21,0.04,1.35,1.35,1.35
308.61,1.12,-0.22,1.12,-0.22,0.22,0.20,0.01,1.33,1.33,1.33
311.69,1.11,-0.21,1.11,-0.20,0.20,0.18,-0.02,1.32,1.32,1.32
314.81,1.12,-0.19,1.12,-0.19,0.19,0.16,-0.04,1.30,1.30,1.31
317.96,1.12,-0.17,1.12,-0.17,0.17,0.14,-0.07,1.29,1.29,1.29
321.14,1.13,-0.15,1.13,-0.15,0.15,0.12,-0.10,1.28,1.28,1.28
324.35,1.14,-0.13,1.14,-0.13,0.13,0.09,-0.13,1.26,1.26,1.26
327.59,1.15,-0.10,1.15,-0.10,0.10,0.06,-0.15,1.25,1.25,1.25
330.87,1.16,-0.07,1.16,-0.07,0.08,0.03,-0.18,1.24,1.24,1.23
334.18,1.17,-0.05,1.17,-0.05,0.05,0.00,-0.21,1.22,1.22,1.22
337.52,1.19,-0.02,1.19,-0.02,0.02,-0.03,-0.24,1.21,1.21,1.21
340.90,1.20,0.01,1.20,0.01,-0.01,-0.06,-0.27,1.19,1.19,1.19
344.30,1.22,0.04,1.22,0.04,-0.04,-0.10,-0.30,1.18,1.18,1.18
347.75,1.24,0.08,1.24,0.08,-0.08,-0.13,-0.33,1.16,1.16,1.16
351.23,1.26,0.11,1.26,0.11,-0.11,-0.17,-0.36,1.15,1.15,1.15
354.74,1.28,0.15,1.28,0.15,-0.15,-0.20,-0.40,1.14,1.14,1.14
358.28,1.31,0.18,1.31,0.18,-0.18,-0.24,-0.43,1.12,1.12,1.12
361.87,1.33,0.22,1.33,0.22,-0.22,-0.27,-0.46,1.11,1.11,1.11
365.49,1.35,0.26,1.35,0.26,-0.26,-0.31,-0.49,1.09,1.09,1.09
369.14,1.37,0.30,1.37,0.30,-0.30,-0.34,-0.52,1.08,1.08,1.08
372.83,1.40,0.33,1.40,0.33,-0.33,-0.37,-0.56,1.06,1.06,1.07
376.56,1.42,0.37,1.42,0.37,-0.37,-0.41,-0.59,1.05,1.05,1.05
380.33,1.45,0.41,1.45,0.41,-0.41,-0.44,-0.62,1.04,1.04,1.04
384.13,1.47,0.45,1.47,0.45,-0.45,-0.47,-0.65,1.02,1.02,1.02
387.97,1.50,0.49,1.50,0.49,-0.49,-0.51,-0.69,1.01,1.01,1.01
391.85,1.52,0.53,1.52,0.53,-0.53,-0.54,-0.72,0.99,0.99,0.99
395.77,1.55,0.57,1.55,0.57,-0.57,-0.57,-0.75,0.98,0.98,0.98
399.73,1.57,0.60,1.57,0.60,-0.60,-0.60,-0.79,0.97,0.97,0.97
403.72,1.59,0.64,1.59,0.64,-0.64,-0.63,-0.82,0.95,0.95,0.95
407.76,1.62,0.68,1.62,0.68,-0.68,-0.66,-0.85,0.94,0.94,0.94
411.84,1.64,0.71,1.64,0.71,-0.71,-0.69,-0.89,0.92,0.92,0.92
415.96,1.66,0.75,1.66,0.75,-0.75,-0.71,-0.92,0.91,0.91,0.91
420.12,1.68,0.78,1.68,0.78,-0.78,-0.74,-0.95,0.90,0.90,0.90
424.32,1.70,0.82,1.70,0.82,-0.81,-0.77,-0.98,0.88,0.88,0.88
428.56,1.71,0.85,1.71,0.85,-0.85,-0.79,-1.01,0.87,0.87,0.87
432.85,1.73,0.87,1.73,0.87,-0.87,-0.82,-1.04,0.85,0.85,0.85
437.18,1.74,0.90,1.74,0.90,-0.90,-0.84,-1.07,0.84,0.84,0.84
441.55,1.75,0.93,1.75,0.93,-0.93,-0.87,-1.10,0.82,0.82,0.82
445.96,1.76,0.95,1.76,0.95,-0.95,-0.89,-1.12,0.81,0.81,0.81
450.42,1.77,0.97,1.77,0.97,-0.97,-0.91,-1.15,0.80,0.80,0.80
454.93,1.78,1.00,1.78,1.00,-1.00,-0.93,-1.17,0.78,0.78,0.78
459.48,1.79,1.02,1.79,1.02,-1.02,-0.95,-1.19,0.77,0.77,0.77
464.07,1.79,1.04,1.79,1.04,-1.04,-0.97,-1.21,0.75,0.75,0.75
468.71,1.80,1.06,1.80,1.06,-1.06,-0.99,-1.23,0.74,0.74,0.74
473.40,1.80,1.08,1.80,1.08,-1.08,-1.01,-1.25,0.73,0.73,0.73
478.13,1.81,1.09,1.81,1.09,-1.09,-1.03,-1.26,0.71,0.71,0.71
482.91,1.81,1.11,1.81,1.11,-1.11,-1.04,-1.28,0.70,0.70,0.70
487.74,1.81,1.13,1.81,1.13,-1.12,-1.06,-1.28,0.68,0.68,0.68
492.62,1.81,1.14,1.81,1.14,-1.14,-1.07,-1.29,0.67,0.67,0.67
497.55,1.80,1.15,1.80,1.15,-1.15,-1.09,-1.30,0.66,0.66,0.65
502.52,1.80,1.16,1.80,1.16,-1.16,-1.10,-1.30,0.64,0.64,0.64
507.55,1.79,1.16,1.79,1.16,-1.16,-1.11,-1.30,0.63,0.63,0.63
512.62,1.78,1.17,1.78,1.17,-1.17,-1.12,-1.30,0.61,0.61,0.61
517.75,1.77,1.17,1.77,1.17,-1.17,-1.13,-1.29,0.60,0.60,0.60
522.93,1.76,1.18,1.76,1.18,-1.18,-1.14,-1.29,0.58,0.58,0.58
528.16,1.75,1.18,1.75,1.18,-1.18,-1.14,-1.28,0.57,0.57,0.57
533.44,1.73,1.18,1.73,1.18,-1.18,-1.15,-1.27,0.55,0.56,0.56
538.77,1.72,1.18,1.72,1.18,-1.18,-1.15,-1.26,0.54,0.54,0.54
544.16,1.70,1.18,1.70,1.18,-1.18,-1.16,-1.24,0.53,0.53,0.53
549.60,1.69,1.17,1.69,1.17,-1.17,-1.16,-1.23,0.51,0.51,0.51
