frequency,raw,error,smoothed,error_smoothed,equalization,parametric_eq,fixed_band_eq,equalized_raw,equalized_smoothed,target
20.00,13.11,2.07,13.11,2.07,-2.08,-2.09,-0.71,11.03,11.03,11.03
20.20,13.10,2.07,13.10,2.07,-2.07,-2.10,-0.73,11.03,11.04,11.04
20.40,13.10,2.06,13.10,2.06,-2.06,-2.11,-0.75,11.04,11.04,11.04
20.61,13.09,2.05,13.09,2.05,-2.05,-2.09,-0.77,11.05,11.04,11.04
20.81,13.08,2.04,13.08,2.04,-2.04,-2.08,-0.80,11.04,11.04,11.04
21.02,13.07,2.03,13.07,2.03,-2.03,-2.05,-0.82,11.04,11.04,11.04
21.23,13.05,2.01,13.05,2.01,-2.02,-2.03,-0.84,11.04,11.04,11.04
21.44,13.04,2.00,13.04,2.00,-2.01,-2.00,-0.87,11.03,11.03,11.04
21.66,13.03,1.99,13.03,1.99,-2.00,-1.97,-0.90,11.03,11.03,11.04
21.87,13.02,1.99,13.02,1.99,-1.99,-1.95,-0.92,11.03,11.03,11.03
22.09,13.00,1.98,13.00,1.98,-1.98,-1.92,-0.95,11.03,11.03,11.03
22.31,12.99,1.97,12.99,1.97,-1.97,-1.90,-0.98,11.02,11.02,11.02
22.54,12.98,1.96,12.98,1.96,-1.96,-1.88,-1.01,11.02,11.02,11.02
22.76,12.96,1.95,12.96,1.95,-1.94,-1.87,-1.04,11.02,11.02,11.01
22.99,12.94,1.93,12.94,1.93,-1.93,-1.86,-1.07,11.01,11.01,11.01
23.22,12.92,1.91,12.92,1.91,-1.91,-1.85,-1.10,11.01,11.01,11.01
23.45,12.90,1.89,12.90,1.89,-1.89,-1.85,-1.13,11.01,11.01,11.01
23.69,12.88,1.87,12.88,1.87,-1.87,-1.85,-1.17,11.01,11.01,11.01
23.92,12.86,1.85,12.86,1.85,-1.85,-1.84,-1.20,11.01,11.01,11.01
24.16,12.84,1.83,12.84,1.83,-1.83,-1.84,-1.23,11.01,11.01,11.01
24.40,12.82,1.81,12.82,1.81,-1.82,-1.84,-1.27,11.00,11.00,11.01
24.65,12.80,1.80,12.80,1.80,-1.80,-1.83,-1.30,11.00,11.00,11.00
24.89,12.78,1.78,12.78,1.79,-1.79,-1.83,-1.34,11.00,11.00,11.00
25.14,12.76,1.77,12.76,1.77,-1.77,-1.82,-1.37,10.99,10.99,10.99
25.39,12.74,1.76,12.74,1.76,-1.76,-1.81,-1.41,10.98,10.98,10.98
25.65,12.73,1.75,12.73,1.75,-1.75,-1.80,-1.44,10.98,10.98,10.98
25.91,12.71,1.74,12.71,1.74,-1.74,-1.78,-1.48,10.97,10.97,10.97
26.16,12.69,1.73,12.69,1.73,-1.73,-1.77,-1.51,10.96,10.97,10.97
26.43,12.68,1.72,12.68,1.72,-1.72,-1.75,-1.55,10.96,10.96,10.96
26.69,12.67,1.71,12.67,1.71,-1.71,-1.73,-1.58,10.96,10.96,10.96
26.96,12.65,1.70,12.65,1.70,-1.70,-1.71,-1.61,10.95,10.95,10.95
27.23,12.64,1.69,12.64,1.69,-1.69,-1.69,-1.65,10.95,10.95,10.94
27.50,12.62,1.68,12.62,1.68,-1.68,-1.67,-1.68,10.94,10.94,10.93
27.77,12.59,1.67,12.59,1.67,-1.67,-1.65,-1.71,10.93,10.93,10.92
28.05,12.57,1.66,12.57,1.66,-1.65,-1.63,-1.74,10.91,10.91,10.91
28.33,12.54,1.64,12.54,1.64,-1.64,-1.61,-1.76,10.90,10.90,10.90
28.62,12.51,1.62,12.51,1.63,-1.63,-1.59,-1.79,10.88,10.88,10.89
28.90,12.49,1.61,12.49,1.61,-1.61,-1.57,-1.81,10.87,10.87,10.87
29.19,12.46,1.60,12.46,1.60,-1.60,-1.55,-1.83,10.86,10.86,10.86
29.48,12.44,1.59,12.44,1.59,-1.59,-1.54,-1.85,10.85,10.85,10.85
29.78,12.42,1.58,12.42,1.58,-1.57,-1.52,-1.87,10.84,10.84,10.84
30.08,12.39,1.56,12.39,1.56,-1.56,-1.51,-1.88,10.83,10.83,10.83
30.38,12.37,1.55,12.37,1.55,-1.54,-1.49,-1.89,10.82,10.82,10.82
30.68,12.34,1.53,12.34,1.53,-1.53,-1.48,-1.90,10.81,10.81,10.81
30.99,12.30,1.51,12.31,1.51,-1.51,-1.47,-1.91,10.79,10.79,10.79
31.30,12.27,1.49,12.27,1.50,-1.50,-1.45,-1.91,10.77,10.78,10.78
31.61,12.24,1.48,12.24,1.48,-1.48,-1.44,-1.91,10.76,10.76,10.76
31.93,12.21,1.46,12.21,1.46,-1.47,-1.43,-1.91,10.74,10.74,10.74
32.24,12.18,1.45,12.18,1.45,-1.45,-1.42,-1.90,10.73,10.73,10.73
32.57,12.15,1.44,12.15,1.44,-1.44,-1.41,-1.89,10.71,10.71,10.71
32.89,12.13,1.43,12.12,1.43,-1.43,-1.40,-1.88,10.69,10.69,10.69
33.22,12.10,1.42,12.10,1.42,-1.42,-1.39,-1.87,10.68,10.68,10.68
33.55,12.07,1.41,12.07,1.41,-1.41,-1.38,-1.85,10.66,10.66,10.66
33.89,12.04,1.41,12.04,1.40,-1.40,-1.36,-1.83,10.64,10.64,10.64
34.23,12.01,1.39,12.01,1.39,-1.39,-1.35,-1.81,10.62,10.62,10.62
34.57,11.98,1.38,11.98,1.38,-1.38,-1.34,-1.79,10.60,10.60,10.60
34.92,11.95,1.37,11.95,1.37,-1.37,-1.33,-1.76,10.58,10.58,10.58
35.27,11.91,1.35,11.91,1.35,-1.35,-1.32,-1.74,10.56,10.56,10.56
35.62,11.88,1.34,11.88,1.34,-1.34,-1.31,-1.71,10.54,10.54,10.54
35.97,11.85,1.33,11.85,1.33,-1.33,-1.31,-1.68,10.51,10.51,10.52
36.33,11.81,1.32,11.81,1.32,-1.32,-1.30,-1.65,10.49,10.49,10.49
36.70,11.78,1.31,11.78,1.31,-1.31,-1.29,-1.62,10.47,10.47,10.47
37.06,11.75,1.30,11.75,1.30,-1.30,-1.28,-1.59,10.44,10.44,10.44
37.43,11.71,1.30,11.71,1.30,-1.30,-1.27,-1.56,10.42,10.42,10.42
37.81,11.68,1.29,11.68,1.29,-1.29,-1.26,-1.53,10.39,10.39,10.39
38.19,11.64,1.28,11.64,1.28,-1.28,-1.25,-1.50,10.37,10.37,10.36
38.57,11.61,1.27,11.61,1.27,-1.27,-1.24,-1.46,10.34,10.34,10.34
38.95,11.57,1.26,11.57,1.26,-1.25,-1.23,-1.43,10.32,10.32,10.31
39.34,11.53,1.24,11.53,1.24,-1.24,-1.22,-1.40,10.29,10.29,10.29
39.74,11.49,1.23,11.49,1.23,-1.23,-1.21,-1.37,10.27,10.27,10.27
40.14,11.45,1.21,11.45,1.21,-1.21,-1.20,-1.34,10.24,10.24,10.24
40.54,11.41,1.20,11.41,1.20,-1.20,-1.19,-1.31,10.22,10.22,10.22
40.94,11.38,1.18,11.38,1.18,-1.18,-1.18,-1.28,10.19,10.19,10.19
41.35,11.34,1.17,11.34,1.17,-1.17,-1.17,-1.25,10.17,10.17,10.17
41.76,11.30,1.15,11.30,1.15,-1.15,-1.16,-1.22,10.15,10.15,10.14
42.18,11.26,1.14,11.26,1.14,-1.14,-1.15,-1.20,10.12,10.12,10.12
42.60,11.22,1.12,11.22,1.12,-1.12,-1.14,-1.17,10.10,10.10,10.10
43.03,11.18,1.10,11.18,1.10,-1.10,-1.13,-1.14,10.07,10.07,10.07
43.46,11.13,1.09,11.13,1.09,-1.09,-1.12,-1.12,10.05,10.05,10.05
43.90,11.09,1.07,11.09,1.07,-1.07,-1.11,-1.09,10.02,10.02,10.02
44.33,11.05,1.06,11.05,1.06,-1.06,-1.10,-1.07,9.99,9.99,9.99
44.78,11.01,1.05,11.01,1.05,-1.05,-1.09,-1.05,9.96,9.96,9.96
45.23,10.97,1.03,10.97,1.03,-1.03,-1.08,-1.02,9.93,9.93,9.93
45.68,10.92,1.02,10.92,1.02,-1.02,-1.07,-1.00,9.90,9.90,9.90
46.13,10.88,1.01,10.88,1.01,-1.01,-1.06,-0.98,9.87,9.87,9.87
46.60,10.83,1.00,10.83,1.00,-1.00,-1.05,-0.96,9.84,9.84,9.84
47.06,10.79,0.99,10.79,0.98,-0.98,-1.05,-0.95,9.81,9.81,9.81
47.53,10.75,0.97,10.75,0.97,-0.97,-1.04,-0.93,9.78,9.78,9.78
48.01,10.71,0.96,10.71,0.96,-0.96,-1.03,-0.91,9.74,9.74,9.75
48.49,10.66,0.95,10.66,0.95,-0.95,-1.02,-0.89,9.71,9.71,9.72
48.97,10.62,0.94,10.62,0.94,-0.94,-1.01,-0.88,9.68,9.68,9.68
49.46,10.58,0.93,10.58,0.94,-0.94,-1.00,-0.86,9.64,9.64,9.65
49.96,10.54,0.93,10.54,0.93,-0.93,-0.99,-0.85,9.61,9.61,9.61
50.46,10.50,0.93,10.50,0.93,-0.93,-0.98,-0.84,9.57,9.57,9.57
50.96,10.46,0.92,10.46,0.92,-0.92,-0.97,-0.82,9.54,9.54,9.54
51.47,10.42,0.92,10.42,0.92,-0.91,-0.96,-0.81,9.50,9.50,9.50
51.99,10.37,0.91,10.37,0.91,-0.91,-0.95,-0.80,9.47,9.47,9.47
52.51,10.33,0.90,10.33,0.90,-0.90,-0.94,-0.79,9.43,9.43,9.43
53.03,10.28,0.89,10.28,0.89,-0.89,-0.93,-0.78,9.40,9.40,9.39
53.56,10.23,0.87,10.23,0.88,-0.88,-0.92,-0.77,9.36,9.36,9.36
54.10,10.19,0.86,10.19,0.86,-0.86,-0.91,-0.76,9.32,9.32,9.32
54.64,10.14,0.85,10.14,0.85,-0.85,-0.90,-0.75,9.29,9.29,9.29
55.18,10.09,0.84,10.09,0.84,-0.84,-0.90,-0.74,9.25,9.25,9.25
55.74,10.04,0.83,10.04,0.83,-0.83,-0.89,-0.73,9.21,9.21,9.21
56.29,9.99,0.82,9.99,0.82,-0.82,-0.88,-0.73,9.17,9.17,9.17
56.86,9.95,0.82,9.95,0.82,-0.82,-0.87,-0.72,9.13,9.13,9.13
57.42,9.90,0.81,9.90,0.81,-0.81,-0.86,-0.71,9.09,9.09,9.09
58.00,9.85,0.81,9.85,0.81,-0.81,-0.85,-0.70,9.04,9.04,9.04
58.58,9.80,0.80,9.80,0.80,-0.80,-0.84,-0.70,9.00,9.00,9.00
59.16,9.76,0.80,9.76,0.80,-0.80,-0.84,-0.69,8.96,8.96,8.96
59.76,9.71,0.79,9.71,0.79,-0.79,-0.83,-0.68,8.92,8.92,8.92
60.35,9.67,0.79,9.67,0.79,-0.79,-0.82,-0.68,8.88,8.88,8.88
60.96,9.62,0.78,9.62,0.78,-0.78,-0.81,-0.67,8.84,8.84,8.84
61.57,9.57,0.78,9.57,0.78,-0.77,-0.80,-0.66,8.80,8.80,8.80
62.18,9.52,0.77,9.52,0.77,-0.76,-0.79,-0.66,8.76,8.76,8.76
62.80,9.47,0.75,9.47,0.75,-0.76,-0.79,-0.65,8.72,8.72,8.72
63.43,9.42,0.74,9.42,0.74,-0.75,-0.78,-0.64,8.67,8.67,8.67
64.07,9.37,0.74,9.37,0.74,-0.74,-0.77,-0.64,8.63,8.63,8.63
64.71,9.32,0.73,9.32,0.73,-0.73,-0.76,-0.63,8.58,8.58,8.58
65.35,9.26,0.73,9.26,0.73,-0.73,-0.76,-0.63,8.53,8.53,8.54
66.01,9.21,0.73,9.21,0.73,-0.73,-0.75,-0.62,8.48,8.48,8.48
66.67,9.16,0.73,9.16,0.73,-0.73,-0.74,-0.61,8.43,8.43,8.43
67.33,9.11,0.73,9.11,0.73,-0.73,-0.73,-0.61,8.38,8.38,8.38
68.01,9.05,0.73,9.05,0.73,-0.73,-0.73,-0.60,8.32,8.32,8.32
68.69,9.00,0.73,9.00,0.73,-0.73,-0.72,-0.60,8.27,8.27,8.27
69.37,8.94,0.73,8.94,0.73,-0.73,-0.71,-0.59,8.22,8.22,8.21
70.07,8.89,0.73,8.89,0.73,-0.73,-0.71,-0.59,8.16,8.16,8.16
70.77,8.83,0.72,8.83,0.72,-0.72,-0.70,-0.58,8.11,8.11,8.11
71.48,8.77,0.72,8.77,0.72,-0.71,-0.69,-0.58,8.06,8.06,8.06
72.19,8.72,0.70,8.72,0.70,-0.70,-0.69,-0.57,8.01,8.01,8.01
72.91,8.66,0.69,8.66,0.69,-0.69,-0.68,-0.57,7.97,7.97,7.97
73.64,8.60,0.68,8.60,0.68,-0.68,-0.68,-0.56,7.92,7.92,7.92
74.38,8.54,0.66,8.54,0.66,-0.66,-0.67,-0.56,7.88,7.88,7.88
75.12,8.48,0.65,8.48,0.65,-0.65,-0.66,-0.56,7.83,7.83,7.83
75.87,8.42,0.63,8.42,0.63,-0.64,-0.66,-0.55,7.79,7.79,7.79
76.63,8.36,0.62,8.36,0.62,-0.62,-0.65,-0.55,7.74,7.74,7.74
77.40,8.30,0.61,8.30,0.61,-0.61,-0.65,-0.55,7.69,7.69,7.69
78.17,8.24,0.60,8.24,0.60,-0.60,-0.64,-0.54,7.64,7.64,7.64
78.95,8.18,0.60,8.18,0.60,-0.60,-0.64,-0.54,7.58,7.58,7.58
79.74,8.12,0.59,8.12,0.59,-0.59,-0.63,-0.54,7.53,7.53,7.53
80.54,8.05,0.59,8.05,0.58,-0.58,-0.63,-0.54,7.47,7.47,7.47
81.35,7.99,0.58,7.99,0.58,-0.58,-0.62,-0.53,7.41,7.41,7.41
82.16,7.93,0.58,7.93,0.58,-0.58,-0.62,-0.53,7.35,7.35,7.35
82.98,7.86,0.57,7.86,0.57,-0.58,-0.62,-0.53,7.29,7.29,7.29
83.81,7.80,0.57,7.80,0.57,-0.57,-0.61,-0.53,7.22,7.22,7.22
84.65,7.73,0.57,7.73,0.57,-0.57,-0.61,-0.53,7.16,7.16,7.16
85.50,7.66,0.57,7.66,0.57,-0.57,-0.60,-0.53,7.09,7.09,7.09
86.35,7.59,0.57,7.60,0.57,-0.57,-0.60,-0.53,7.02,7.03,7.02
87.22,7.53,0.57,7.53,0.57,-0.57,-0.60,-0.53,6.96,6.96,6.96
88.09,7.46,0.56,7.46,0.56,-0.56,-0.59,-0.54,6.90,6.90,6.90
88.97,7.39,0.56,7.39,0.56,-0.55,-0.59,-0.54,6.84,6.84,6.84
89.86,7.33,0.55,7.33,0.55,-0.55,-0.59,-0.54,6.78,6.78,6.78
90.76,7.26,0.54,7.26,0.54,-0.54,-0.59,-0.54,6.73,6.73,6.72
91.66,7.20,0.53,7.20,0.53,-0.53,-0.58,-0.54,6.68,6.67,6.67
92.58,7.14,0.52,7.14,0.52,-0.52,-0.58,-0.55,6.62,6.62,6.62
93.51,7.08,0.51,7.08,0.51,-0.51,-0.58,-0.55,6.57,6.57,6.57
94.44,7.02,0.50,7.02,0.50,-0.51,-0.58,-0.56,6.51,6.51,6.52
95.39,6.96,0.50,6.96,0.50,-0.51,-0.58,-0.56,6.46,6.46,6.46
96.34,6.91,0.51,6.91,0.51,-0.51,-0.57,-0.57,6.40,6.40,6.40
97.30,6.86,0.51,6.86,0.51,-0.52,-0.57,-0.57,6.34,6.34,6.34
98.28,6.80,0.53,6.80,0.53,-0.53,-0.57,-0.58,6.28,6.28,6.28
99.26,6.75,0.54,6.75,0.54,-0.54,-0.57,-0.58,6.21,6.21,6.22
100.25,6.70,0.55,6.70,0.55,-0.55,-0.57,-0.59,6.15,6.15,6.15
101.25,6.65,0.57,6.66,0.57,-0.57,-0.57,-0.59,6.09,6.09,6.09
102.27,6.61,0.58,6.61,0.59,-0.58,-0.57,-0.60,6.02,6.02,6.02
103.29,6.56,0.60,6.56,0.60,-0.60,-0.57,-0.61,5.96,5.96,5.96
104.32,6.50,0.61,6.50,0.61,-0.61,-0.57,-0.61,5.90,5.89,5.89
105.37,6.44,0.62,6.44,0.62,-0.61,-0.57,-0.62,5.83,5.83,5.82
106.42,6.38,0.62,6.38,0.62,-0.62,-0.57,-0.63,5.76,5.76,5.76
107.48,6.32,0.63,6.32,0.63,-0.62,-0.57,-0.64,5.69,5.69,5.69
108.56,6.26,0.63,6.26,0.63,-0.63,-0.57,-0.64,5.63,5.63,5.63
109.64,6.19,0.63,6.19,0.63,-0.63,-0.57,-0.65,5.56,5.56,5.57
110.74,6.13,0.63,6.13,0.63,-0.63,-0.58,-0.66,5.50,5.50,5.51
111.85,6.08,0.63,6.08,0.63,-0.64,-0.58,-0.67,5.44,5.44,5.44
112.97,6.02,0.64,6.02,0.64,-0.64,-0.58,-0.68,5.38,5.38,5.38
114.10,5.96,0.65,5.96,0.65,-0.65,-0.58,-0.69,5.31,5.31,5.31
115.24,5.91,0.66,5.90,0.66,-0.66,-0.59,-0.69,5.25,5.25,5.25
116.39,5.85,0.67,5.85,0.67,-0.67,-0.59,-0.70,5.18,5.18,5.18
117.55,5.79,0.68,5.79,0.68,-0.68,-0.59,-0.71,5.11,5.11,5.11
118.73,5.72,0.68,5.72,0.69,-0.68,-0.59,-0.72,5.04,5.04,5.04
119.92,5.66,0.69,5.66,0.69,-0.69,-0.60,-0.73,4.97,4.97,4.97
121.12,5.60,0.70,5.60,0.70,-0.70,-0.60,-0.74,4.90,4.90,4.90
122.33,5.54,0.70,5.54,0.70,-0.70,-0.61,-0.74,4.84,4.84,4.83
123.55,5.47,0.70,5.47,0.70,-0.70,-0.61,-0.75,4.77,4.77,4.77
124.79,5.41,0.70,5.41,0.70,-0.70,-0.62,-0.76,4.71,4.71,4.71
126.03,5.35,0.70,5.35,0.70,-0.71,-0.62,-0.77,4.64,4.64,4.65
127.29,5.29,0.71,5.29,0.71,-0.71,-0.63,-0.78,4.58,4.58,4.58
128.57,5.23,0.71,5.23,0.71,-0.71,-0.63,-0.79,4.52,4.52,4.52
129.85,5.17,0.71,5.17,0.71,-0.71,-0.64,-0.79,4.46,4.46,4.46
131.15,5.11,0.71,5.11,0.71,-0.71,-0.65,-0.80,4.40,4.40,4.40
132.46,5.06,0.71,5.06,0.71,-0.71,-0.65,-0.81,4.34,4.34,4.34
133.79,5.00,0.72,5.00,0.72,-0.72,-0.66,-0.82,4.28,4.28,4.28
135.12,4.95,0.73,4.94,0.73,-0.73,-0.67,-0.83,4.21,4.21,4.22
136.48,4.89,0.74,4.89,0.74,-0.75,-0.68,-0.83,4.14,4.14,4.15
137.84,4.84,0.76,4.84,0.76,-0.76,-0.69,-0.84,4.08,4.08,4.08
139.22,4.79,0.78,4.79,0.78,-0.78,-0.69,-0.85,4.01,4.01,4.01
140.61,4.75,0.81,4.75,0.81,-0.81,-0.70,-0.86,3.94,3.94,3.94
142.02,4.70,0.83,4.70,0.83,-0.83,-0.71,-0.87,3.87,3.87,3.87
143.44,4.66,0.86,4.66,0.86,-0.85,-0.72,-0.88,3.81,3.81,3.80
144.87,4.62,0.88,4.62,0.88,-0.88,-0.73,-0.89,3.74,3.74,3.73
146.32,4.57,0.90,4.57,0.90,-0.90,-0.74,-0.90,3.67,3.67,3.67
147.78,4.53,0.92,4.53,0.92,-0.92,-0.76,-0.91,3.61,3.61,3.61
149.26,4.49,0.94,4.49,0.94,-0.95,-0.77,-0.93,3.54,3.54,3.55
150.75,4.45,0.96,4.45,0.96,-0.97,-0.78,-0.94,3.48,3.48,3.48
152.26,4.41,0.98,4.41,0.98,-0.99,-0.79,-0.95,3.42,3.42,3.42
153.78,4.37,1.00,4.37,1.00,-1.00,-0.81,-0.96,3.36,3.36,3.36
155.32,4.33,1.02,4.33,1.02,-1.02,-0.82,-0.98,3.31,3.31,3.31
156.88,4.28,1.03,4.28,1.03,-1.03,-0.83,-0.99,3.25,3.25,3.25
158.44,4.24,1.04,4.24,1.04,-1.04,-0.85,-1.01,3.20,3.20,3.20
160.03,4.20,1.05,4.20,1.05,-1.04,-0.86,-1.03,3.15,3.15,3.15
161.63,4.15,1.05,4.15,1.05,-1.04,-0.88,-1.05,3.11,3.11,3.10
163.24,4.10,1.05,4.10,1.05,-1.04,-0.90,-1.06,3.07,3.07,3.06
164.88,4.06,1.04,4.05,1.04,-1.03,-0.91,-1.08,3.03,3.03,3.02
166.53,4.00,1.02,4.00,1.02,-1.02,-0.93,-1.10,2.98,2.98,2.98
168.19,3.95,1.01,3.95,1.01,-1.02,-0.95,-1.12,2.93,2.94,2.94
169.87,3.90,1.00,3.90,1.01,-1.02,-0.97,-1.15,2.88,2.88,2.89
171.57,3.85,1.01,3.85,1.01,-1.03,-0.99,-1.17,2.81,2.81,2.83
173.29,3.79,1.03,3.79,1.03,-1.05,-1.01,-1.19,2.74,2.74,2.76
175.02,3.73,1.07,3.73,1.07,-1.08,-1.03,-1.22,2.65,2.65,2.66
176.77,3.67,1.11,3.67,1.11,-1.11,-1.05,-1.24,2.56,2.56,2.56
178.54,3.62,1.16,3.62,1.16,-1.15,-1.07,-1.27,2.47,2.47,2.46
180.32,3.55,1.20,3.55,1.20,-1.19,-1.09,-1.30,2.37,2.37,2.35
182.13,3.49,1.24,3.49,1.24,-1.22,-1.12,-1.33,2.27,2.27,2.26
183.95,3.43,1.27,3.43,1.27,-1.26,-1.14,-1.36,2.18,2.18,2.17
185.79,3.37,1.29,3.37,1.29,-1.28,-1.16,-1.39,2.09,2.09,2.08
187.65,3.31,1.31,3.31,1.31,-1.31,-1.19,-1.42,2.00,2.00,2.00
189.52,3.25,1.32,3.25,1.32,-1.33,-1.22,-1.45,1.92,1.92,1.93
191.42,3.19,1.34,3.19,1.34,-1.34,-1.24,-1.48,1.85,1.85,1.85
193.33,3.13,1.35,3.13,1.35,-1.36,-1.27,-1.52,1.77,1.77,1.77
195.27,3.07,1.37,3.07,1.37,-1.37,-1.30,-1.55,1.69,1.69,1.70
197.22,3.01,1.39,3.01,1.39,-1.39,-1.32,-1.59,1.62,1.62,1.62
199.19,2.94,1.40,2.94,1.40,-1.40,-1.35,-1.62,1.54,1.54,1.54
201.18,2.88,1.42,2.88,1.42,-1.42,-1.38,-1.66,1.46,1.46,1.46
203.19,2.82,1.44,2.82,1.44,-1.44,-1.41,-1.69,1.39,1.39,1.39
205.23,2.76,1.45,2.76,1.45,-1.45,-1.44,-1.73,1.31,1.31,1.31
207.28,2.70,1.46,2.70,1.46,-1.46,-1.47,-1.77,1.24,1.24,1.24
209.35,2.64,1.48,2.64,1.48,-1.48,-1.50,-1.80,1.17,1.17,1.17
211.44,2.58,1.49,2.58,1.49,-1.49,-1.54,-1.84,1.09,1.09,1.09
213.56,2.52,1.50,2.52,1.50,-1.50,-1.57,-1.87,1.02,1.02,1.02
215.69,2.46,1.52,2.46,1.52,-1.52,-1.60,-1.91,0.95,0.95,0.95
217.85,2.40,1.53,2.41,1.53,-1.53,-1.63,-1.94,0.87,0.87,0.87
220.03,2.35,1.54,2.35,1.54,-1.55,-1.67,-1.98,0.80,0.80,0.80
222.23,2.29,1.56,2.29,1.56,-1.56,-1.70,-2.01,0.72,0.72,0.73
224.45,2.23,1.58,2.23,1.58,-1.58,-1.73,-2.04,0.65,0.65,0.65
226.70,2.17,1.60,2.17,1.60,-1.59,-1.76,-2.06,0.57,0.57,0.57
228.96,2.11,1.61,2.11,1.61,-1.61,-1.80,-2.09,0.50,0.50,0.49
231.25,2.04,1.63,2.04,1.63,-1.62,-1.83,-2.11,0.42,0.42,0.42
233.57,1.98,1.64,1.98,1.64,-1.64,-1.86,-2.14,0.35,0.35,0.34
235.90,1.92,1.65,1.92,1.65,-1.65,-1.89,-2.16,0.27,0.27,0.27
238.26,1.86,1.67,1.86,1.67,-1.67,-1.93,-2.17,0.20,0.19,0.20
240.64,1.80,1.68,1.80,1.68,-1.69,-1.96,-2.19,0.12,0.12,0.12
243.05,1.75,1.70,1.75,1.71,-1.71,-1.99,-2.20,0.04,0.04,0.04
245.48,1.69,1.73,1.69,1.73,-1.74,-2.02,-2.20,-0.04,-0.04,-0.04
247.93,1.65,1.77,1.65,1.77,-1.77,-2.04,-2.21,-0.12,-0.12,-0.12
250.41,1.60,1.80,1.61,1.80,-1.81,-2.07,-2.21,-0.21,-0.20,-0.20
252.92,1.57,1.85,1.57,1.85,-1.86,-2.10,-2.21,-0.29,-0.29,-0.28
255.45,1.55,1.90,1.55,1.90,-1.91,-2.12,-2.20,-0.36,-0.36,-0.36
258.00,1.53,1.96,1.53,1.96,-1.97,-2.14,-2.20,-0.44,-0.44,-0.43
260.58,1.52,2.03,1.51,2.03,-2.03,-2.16,-2.18,-0.52,-0.52,-0.51
263.19,1.50,2.10,1.50,2.10,-2.09,-2.18,-2.17,-0.59,-0.59,-0.60
265.82,1.48,2.16,1.48,2.16,-2.15,-2.20,-2.15,-0.67,-0.67,-0.68
268.48,1.46,2.22,1.46,2.22,-2.21,-2.21,-2.14,-0.75,-0.75,-0.76
271.16,1.42,2.27,1.42,2.27,-2.26,-2.23,-2.11,-0.83,-0.83,-0.84
273.87,1.39,2.31,1.39,2.31,-2.30,-2.24,-2.09,-0.91,-0.91,-0.92
276.61,1.34,2.34,1.34,2.34,-2.33,-2.24,-2.06,-0.99,-0.99,-0.99
279.38,1.30,2.36,1.30,2.36,-2.36,-2.25,-2.04,-1.06,-1.06,-1.06
282.17,1.25,2.38,1.25,2.38,-2.38,-2.25,-2.01,-1.13,-1.13,-1.13
284.99,1.20,2.40,1.20,2.40,-2.40,-2.26,-1.98,-1.20,-1.20,-1.20
287.84,1.15,2.41,1.15,2.41,-2.41,-2.25,-1.94,-1.26,-1.26,-1.26
290.72,1.10,2.42,1.10,2.42,-2.42,-2.25,-1.91,-1.32,-1.32,-1.31
293.63,1.05,2.42,1.05,2.42,-2.42,-2.24,-1.88,-1.37,-1.37,-1.37
296.57,1.01,2.42,1.01,2.42,-2.42,-2.23,-1.84,-1.42,-1.42,-1.42
299.53,0.96,2.42,0.96,2.42,-2.42,-2.22,-1.81,-1.46,-1.46,-1.46
302.53,0.91,2.41,0.91,2.41,-2.41,-2.21,-1.77,-1.49,-1.49,-1.50
305.55,0.86,2.39,0.86,2.39,-2.39,-2.19,-1.74,-1.53,-1.53,-1.53
308.61,0.82,2.37,0.82,2.37,-2.37,-2.18,-1.70,-1.55,-1.55,-1.55
311.69,0.77,2.35,0.77,2.34,-2.34,-2.16,-1.67,-1.57,-1.57,-1.57
314.81,0.73,2.31,0.73,2.31,-2.31,-2.13,-1.63,-1.58,-1.58,-1.58
317.96,0.68,2.28,0.68,2.28,-2.28,-2.11,-1.60,-1.59,-1.59,-1.59
321.14,0.64,2.24,0.64,2.24,-2.24,-2.08,-1.57,-1.60,-1.60,-1.60
324.35,0.60,2.20,0.60,2.20,-2.20,-2.06,-1.53,-1.60,-1.60,-1.60
327.59,0.56,2.15,0.56,2.15,-2.15,-2.03,-1.50,-1.60,-1.60,-1.60
330.87,0.51,2.11,0.51,2.11,-2.11,-2.00,-1.47,-1.59,-1.59,-1.59
334.18,0.47,2.06,0.47,2.06,-2.06,-1.97,-1.44,-1.59,-1.59,-1.59
337.52,0.43,2.01,0.43,2.01,-2.01,-1.93,-1.41,-1.58,-1.58,-1.58
340.90,0.39,1.96,0.39,1.96,-1.96,-1.90,-1.38,-1.57,-1.57,-1.57
344.30,0.35,1.91,0.35,1.91,-1.91,-1.86,-1.36,-1.56,-1.56,-1.56
347.75,0.31,1.86,0.31,1.86,-1.86,-1.83,-1.33,-1.55,-1.55,-1.55
351.23,0.27,1.81,0.27,1.81,-1.81,-1.79,-1.30,-1.54,-1.54,-1.54
354.74,0.23,1.76,0.23,1.76,-1.76,-1.76,-1.28,-1.52,-1.52,-1.52
358.28,0.20,1.71,0.20,1.71,-1.71,-1.72,-1.26,-1.51,-1.51,-1.51
361.87,0.16,1.65,0.16,1.65,-1.65,-1.68,-1.23,-1.50,-1.50,-1.50
365.49,0.12,1.60,0.12,1.60,-1.60,-1.64,-1.21,-1.48,-1.48,-1.48
369.14,0.08,1.55,0.08,1.55,-1.56,-1.61,-1.19,-1.47,-1.47,-1.47
372.83,0.05,1.51,0.05,1.51,-1.51,-1.57,-1.17,-1.46,-1.46,-1.46
376.56,0.01,1.46,0.01,1.46,-1.46,-1.53,-1.15,-1.45,-1.45,-1.45
380.33,-0.02,1.42,-0.02,1.42,-1.42,-1.49,-1.14,-1.44,-1.44,-1.44
384.13,-0.06,1.37,-0.06,1.37,-1.37,-1.46,-1.12,-1.43,-1.43,-1.43
387.97,-0.09,1.33,-0.09,1.33,-1.33,-1.42,-1.11,-1.43,-1.43,-1.43
391.85,-0.13,1.30,-0.13,1.29,-1.29,-1.38,-1.09,-1.42,-1.42,-1.42
395.77,-0.16,1.26,-0.16,1.26,-1.26,-1.34,-1.08,-1.42,-1.42,-1.42
399.73,-0.19,1.22,-0.19,1.22,-1.22,-1.31,-1.06,-1.41,-1.41,-1.41
403.72,-0.23,1.18,-0.23,1.18,-1.18,-1.27,-1.05,-1.41,-1.41,-1.41
407.76,-0.26,1.15,-0.26,1.15,-1.15,-1.24,-1.04,-1.41,-1.41,-1.41
411.84,-0.29,1.12,-0.29,1.12,-1.12,-1.20,-1.03,-1.41,-1.41,-1.41
415.96,-0.32,1.09,-0.32,1.09,-1.08,-1.17,-1.02,-1.41,-1.41,-1.41
420.12,-0.35,1.05,-0.35,1.05,-1.05,-1.13,-1.01,-1.40,-1.40,-1.41
424.32,-0.38,1.02,-0.38,1.02,-1.02,-1.10,-1.00,-1.40,-1.40,-1.40
428.56,-0.41,0.99,-0.41,0.99,-0.99,-1.07,-0.99,-1.40,-1.40,-1.40
432.85,-0.44,0.96,-0.44,0.96,-0.96,-1.04,-0.98,-1.40,-1.40,-1.40
437.18,-0.47,0.93,-0.47,0.93,-0.93,-1.00,-0.97,-1.40,-1.40,-1.40
441.55,-0.50,0.90,-0.50,0.90,-0.90,-0.97,-0.96,-1.40,-1.40,-1.40
445.96,-0.53,0.87,-0.53,0.87,-0.87,-0.94,-0.95,-1.40,-1.40,-1.40
450.42,-0.56,0.84,-0.56,0.84,-0.84,-0.91,-0.95,-1.40,-1.40,-1.40
454.93,-0.59,0.81,-0.59,0.81,-0.81,-0.88,-0.94,-1.40,-1.40,-1.40
459.48,-0.61,0.78,-0.61,0.78,-0.78,-0.85,-0.93,-1.40,-1.40,-1.40
464.07,-0.64,0.76,-0.64,0.76,-0.76,-0.83,-0.92,-1.40,-1.40,-1.40
468.71,-0.67,0.73,-0.67,0.73,-0.73,-0.80,-0.91,-1.40,-1.40,-1.40
473.40,-0.69,0.70,-0.69,0.71,-0.71,-0.77,-0.90,-1.40,-1.40,-1.40
478.13,-0.72,0.68,-0.72,0.68,-0.68,-0.74,-0.89,-1.40,-1.40,-1.40
482.91,-0.74,0.66,-0.74,0.66,-0.66,-0.72,-0.88,-1.40,-1.40,-1.40
487.74,-0.77,0.64,-0.77,0.64,-0.64,-0.69,-0.87,-1.40,-1.40,-1.40
