frequency,raw,error,smoothed,error_smoothed,equalization,parametric_eq,fixed_band_eq,equalized_raw,equalized_smoothed,target
20.00,6.31,-4.71,6.31,-4.73,4.73,-0.01,1.68,11.04,11.03,11.02
20.20,6.36,-4.71,6.36,-4.70,4.70,-0.01,1.73,11.06,11.06,11.07
20.40,6.41,-4.71,6.41,-4.68,4.68,-0.01,1.78,11.09,11.09,11.12
20.61,6.47,-4.66,6.47,-4.65,4.65,-0.01,1.84,11.12,11.12,11.12
20.81,6.52,-4.60,6.52,-4.63,4.63,-0.01,1.89,11.15,11.15,11.12
21.02,6.57,-4.59,6.57,-4.60,4.61,-0.01,1.95,11.17,11.17,11.16
21.23,6.62,-4.60,6.62,-4.57,4.58,-0.01,2.01,11.20,11.20,11.22
21.44,6.67,-4.55,6.67,-4.56,4.56,-0.01,2.07,11.23,11.23,11.22
21.66,6.72,-4.52,6.72,-4.54,4.53,-0.01,2.13,11.25,11.25,11.24
21.87,6.77,-4.54,6.77,-4.52,4.51,-0.01,2.19,11.28,11.28,11.31
22.09,6.82,-4.50,6.82,-4.49,4.48,-0.01,2.26,11.31,11.31,11.32
22.31,6.87,-4.45,6.87,-4.46,4.46,-0.01,2.33,11.33,11.33,11.32
22.54,6.92,-4.41,6.92,-4.43,4.44,-0.01,2.39,11.36,11.36,11.33
22.76,6.97,-4.44,6.97,-4.41,4.42,-0.01,2.46,11.39,11.39,11.41
22.99,7.02,-4.40,7.02,-4.40,4.40,-0.01,2.54,11.42,11.42,11.42
23.22,7.07,-4.36,7.07,-4.39,4.38,-0.01,2.61,11.45,11.45,11.43
23.45,7.12,-4.39,7.12,-4.36,4.37,-0.01,2.68,11.49,11.49,11.51
23.69,7.17,-4.35,7.17,-4.36,4.35,-0.01,2.76,11.52,11.52,11.52
23.92,7.22,-4.34,7.22,-4.35,4.34,-0.01,2.84,11.56,11.56,11.55
24.16,7.26,-4.35,7.26,-4.33,4.33,-0.01,2.92,11.60,11.60,11.61
24.40,7.31,-4.31,7.31,-4.32,4.32,-0.01,3.00,11.63,11.63,11.62
24.65,7.36,-4.30,7.36,-4.31,4.31,-0.01,3.08,11.67,11.67,11.66
24.89,7.41,-4.31,7.41,-4.29,4.30,-0.01,3.16,11.71,11.71,11.72
25.14,7.45,-4.27,7.45,-4.28,4.29,-0.01,3.25,11.74,11.74,11.72
25.39,7.50,-4.26,7.50,-4.27,4.27,-0.01,3.33,11.77,11.77,11.75
25.65,7.54,-4.28,7.54,-4.26,4.25,-0.01,3.42,11.79,11.79,11.82
25.91,7.59,-4.23,7.59,-4.23,4.22,-0.01,3.50,11.81,11.81,11.82
26.16,7.63,-4.19,7.63,-4.20,4.18,-0.02,3.58,11.82,11.82,11.82
26.43,7.67,-4.15,7.67,-4.15,4.14,-0.02,3.67,11.81,11.81,11.82
26.69,7.72,-4.10,7.72,-4.09,4.08,-0.02,3.75,11.80,11.80,11.82
26.96,7.76,-4.02,7.76,-4.02,4.01,-0.02,3.83,11.77,11.77,11.78
27.23,7.80,-3.92,7.80,-3.94,3.94,-0.02,3.90,11.74,11.74,11.72
27.50,7.84,-3.88,7.84,-3.86,3.87,-0.02,3.98,11.71,11.71,11.72
27.77,7.88,-3.78,7.88,-3.78,3.79,-0.02,4.05,11.68,11.68,11.67
28.05,7.92,-3.70,7.92,-3.72,3.73,-0.02,4.12,11.65,11.65,11.62
28.33,7.96,-3.66,7.96,-3.66,3.67,-0.02,4.18,11.63,11.63,11.62
28.62,8.00,-3.62,8.00,-3.62,3.62,-0.02,4.24,11.62,11.62,11.62
28.90,8.04,-3.58,8.04,-3.58,3.59,-0.02,4.30,11.62,11.62,11.62
29.19,8.08,-3.55,8.08,-3.54,3.56,-0.02,4.35,11.63,11.63,11.62
29.48,8.11,-3.51,8.11,-3.53,3.54,-0.02,4.39,11.65,11.65,11.62
29.78,8.15,-3.52,8.15,-3.52,3.52,-0.02,4.43,11.67,11.67,11.67
30.08,8.19,-3.53,8.19,-3.51,3.50,-0.02,4.46,11.68,11.68,11.72
30.38,8.22,-3.50,8.22,-3.50,3.48,-0.02,4.49,11.70,11.70,11.72
30.68,8.26,-3.46,8.26,-3.47,3.45,-0.02,4.50,11.71,11.71,11.72
30.99,8.29,-3.43,8.29,-3.43,3.43,-0.02,4.51,11.72,11.72,11.72
31.30,8.33,-3.39,8.33,-3.39,3.40,-0.02,4.51,11.73,11.73,11.72
31.61,8.36,-3.36,8.36,-3.36,3.37,-0.02,4.51,11.73,11.73,11.72
31.93,8.40,-3.33,8.40,-3.33,3.34,-0.02,4.49,11.73,11.73,11.72
32.24,8.43,-3.29,8.43,-3.29,3.30,-0.02,4.47,11.73,11.73,11.72
32.57,8.46,-3.26,8.46,-3.27,3.25,-0.02,4.44,11.72,11.72,11.72
32.89,8.49,-3.23,8.49,-3.23,3.21,-0.02,4.41,11.70,11.70,11.72
33.22,8.53,-3.19,8.53,-3.17,3.16,-0.02,4.37,11.69,11.69,11.72
33.55,8.56,-3.09,8.56,-3.11,3.10,-0.03,4.32,11.66,11.66,11.65
33.89,8.59,-3.03,8.59,-3.04,3.04,-0.03,4.27,11.63,11.63,11.62
34.23,8.62,-3.00,8.62,-2.97,2.98,-0.03,4.21,11.60,11.60,11.62
34.57,8.65,-2.90,8.65,-2.92,2.91,-0.03,4.15,11.56,11.56,11.55
34.92,8.68,-2.84,8.68,-2.85,2.85,-0.03,4.08,11.52,11.52,11.52
35.27,8.71,-2.80,8.71,-2.78,2.78,-0.03,4.01,11.49,11.49,11.51
35.62,8.73,-2.70,8.73,-2.72,2.73,-0.03,3.93,11.46,11.46,11.44
35.97,8.76,-2.66,8.76,-2.67,2.67,-0.03,3.85,11.43,11.43,11.42
36.33,8.79,-2.63,8.79,-2.63,2.63,-0.03,3.77,11.42,11.42,11.42
36.70,8.81,-2.61,8.81,-2.60,2.60,-0.03,3.69,11.41,11.41,11.42
37.06,8.84,-2.58,8.84,-2.58,2.58,-0.03,3.61,11.42,11.42,11.42
37.43,8.87,-2.56,8.87,-2.55,2.58,-0.03,3.52,11.44,11.44,11.42
37.81,8.89,-2.53,8.89,-2.55,2.58,-0.03,3.44,11.48,11.48,11.42
38.19,8.91,-2.56,8.91,-2.57,2.59,-0.03,3.35,11.51,11.51,11.48
38.57,8.94,-2.61,8.94,-2.61,2.60,-0.03,3.27,11.54,11.53,11.55
38.95,8.96,-2.65,8.96,-2.64,2.59,-0.03,3.18,11.56,11.56,11.61
39.34,8.98,-2.64,8.98,-2.64,2.59,-0.03,3.10,11.57,11.57,11.62
39.74,9.01,-2.62,9.01,-2.62,2.57,-0.04,3.01,11.58,11.58,11.62
40.14,9.03,-2.59,9.03,-2.57,2.56,-0.04,2.93,11.58,11.58,11.62
40.54,9.05,-2.50,9.05,-2.51,2.54,-0.04,2.85,11.59,11.59,11.55
40.94,9.07,-2.45,9.07,-2.47,2.52,-0.04,2.76,11.59,11.59,11.52
41.35,9.09,-2.44,9.09,-2.46,2.51,-0.04,2.68,11.60,11.60,11.53
41.76,9.11,-2.49,9.11,-2.47,2.51,-0.04,2.61,11.61,11.61,11.60
42.18,9.13,-2.50,9.13,-2.49,2.51,-0.04,2.53,11.63,11.63,11.62
42.60,9.14,-2.50,9.14,-2.52,2.51,-0.04,2.45,11.65,11.65,11.64
43.03,9.16,-2.55,9.16,-2.53,2.50,-0.04,2.38,11.66,11.66,11.71
43.46,9.18,-2.54,9.18,-2.53,2.48,-0.04,2.31,11.66,11.66,11.72
43.90,9.19,-2.50,9.20,-2.50,2.44,-0.04,2.24,11.64,11.64,11.69
44.33,9.21,-2.42,9.21,-2.43,2.38,-0.04,2.17,11.60,11.60,11.63
44.78,9.23,-2.33,9.23,-2.32,2.31,-0.05,2.10,11.54,11.54,11.56
45.23,9.24,-2.22,9.24,-2.21,2.23,-0.05,2.03,11.47,11.48,11.46
45.68,9.26,-2.07,9.26,-2.11,2.15,-0.05,1.97,11.41,11.41,11.33
46.13,9.27,-2.05,9.27,-2.03,2.08,-0.05,1.91,11.35,11.35,11.32
46.60,9.28,-2.00,9.28,-1.98,2.01,-0.05,1.85,11.29,11.29,11.28
47.06,9.29,-1.93,9.30,-1.95,1.96,-0.05,1.79,11.25,11.25,11.22
47.53,9.31,-1.91,9.31,-1.92,1.91,-0.05,1.73,11.22,11.22,11.22
48.01,9.32,-1.90,9.32,-1.89,1.87,-0.05,1.68,11.19,11.19,11.22
48.49,9.33,-1.88,9.33,-1.86,1.84,-0.05,1.62,11.17,11.17,11.21
48.97,9.34,-1.80,9.34,-1.82,1.81,-0.05,1.57,11.15,11.15,11.14
49.46,9.35,-1.77,9.35,-1.77,1.78,-0.06,1.52,11.13,11.13,11.12
49.96,9.36,-1.74,9.36,-1.72,1.74,-0.06,1.47,11.10,11.10,11.10
50.46,9.37,-1.66,9.37,-1.69,1.69,-0.06,1.42,11.06,11.06,11.03
50.96,9.38,-1.65,9.38,-1.64,1.63,-0.06,1.37,11.01,11.01,11.02
51.47,9.38,-1.61,9.38,-1.59,1.57,-0.06,1.33,10.96,10.96,11.00
51.99,9.39,-1.53,9.39,-1.54,1.51,-0.06,1.28,10.90,10.90,10.92
52.51,9.40,-1.46,9.40,-1.46,1.44,-0.06,1.24,10.84,10.84,10.86
53.03,9.40,-1.38,9.40,-1.38,1.38,-0.06,1.20,10.78,10.78,10.79
53.56,9.41,-1.30,9.41,-1.30,1.32,-0.07,1.16,10.73,10.73,10.71
54.10,9.41,-1.23,9.41,-1.24,1.27,-0.07,1.12,10.68,10.68,10.65
54.64,9.42,-1.20,9.42,-1.21,1.24,-0.07,1.08,10.65,10.65,10.62
55.18,9.42,-1.20,9.42,-1.19,1.22,-0.07,1.04,10.64,10.64,10.62
55.74,9.43,-1.20,9.43,-1.19,1.22,-0.07,1.00,10.64,10.64,10.62
56.29,9.43,-1.19,9.43,-1.20,1.23,-0.07,0.97,10.66,10.66,10.62
56.86,9.43,-1.21,9.43,-1.23,1.24,-0.07,0.93,10.67,10.67,10.64
57.42,9.43,-1.28,9.43,-1.26,1.24,-0.08,0.90,10.67,10.67,10.71
58.00,9.43,-1.29,9.43,-1.29,1.23,-0.08,0.87,10.66,10.66,10.72
58.58,9.43,-1.27,9.43,-1.26,1.20,-0.08,0.83,10.63,10.63,10.70
59.16,9.43,-1.19,9.43,-1.18,1.14,-0.08,0.80,10.58,10.58,10.63
59.76,9.43,-1.07,9.43,-1.09,1.07,-0.08,0.77,10.50,10.50,10.50
60.35,9.43,-0.96,9.43,-0.98,0.98,-0.09,0.74,10.41,10.41,10.39
60.96,9.43,-0.90,9.43,-0.87,0.88,-0.09,0.71,10.31,10.31,10.33
61.57,9.43,-0.75,9.43,-0.77,0.78,-0.09,0.68,10.21,10.21,10.18
62.18,9.42,-0.66,9.42,-0.67,0.69,-0.09,0.66,10.11,10.11,10.08
62.80,9.42,-0.59,9.42,-0.58,0.62,-0.09,0.63,10.04,10.04,10.01
63.43,9.41,-0.53,9.41,-0.54,0.56,-0.09,0.60,9.98,9.98,9.95
64.07,9.41,-0.51,9.41,-0.52,0.53,-0.10,0.57,9.94,9.94,9.92
64.71,9.40,-0.52,9.40,-0.51,0.51,-0.10,0.55,9.91,9.91,9.92
65.35,9.40,-0.53,9.40,-0.52,0.51,-0.10,0.52,9.91,9.91,9.92
66.01,9.39,-0.53,9.39,-0.53,0.53,-0.10,0.50,9.92,9.92,9.92
66.67,9.38,-0.54,9.38,-0.54,0.55,-0.11,0.47,9.93,9.93,9.92
67.33,9.37,-0.55,9.37,-0.57,0.58,-0.11,0.45,9.96,9.96,9.92
68.01,9.37,-0.62,9.37,-0.61,0.62,-0.11,0.42,9.98,9.98,9.98
68.69,9.36,-0.66,9.36,-0.65,0.65,-0.11,0.40,10.00,10.00,10.02
69.37,9.35,-0.67,9.35,-0.68,0.67,-0.11,0.38,10.02,10.02,10.02
70.07,9.34,-0.68,9.34,-0.69,0.68,-0.12,0.35,10.02,10.02,10.02
70.77,9.33,-0.69,9.33,-0.70,0.68,-0.12,0.33,10.01,10.01,10.02
71.48,9.32,-0.71,9.32,-0.69,0.66,-0.12,0.31,9.97,9.97,10.02
72.19,9.30,-0.65,9.30,-0.66,0.62,-0.13,0.28,9.92,9.92,9.95
72.91,9.29,-0.59,9.29,-0.59,0.56,-0.13,0.26,9.85,9.85,9.88
73.64,9.28,-0.52,9.28,-0.50,0.50,-0.13,0.24,9.78,9.78,9.80
74.38,9.26,-0.40,9.26,-0.41,0.43,-0.13,0.22,9.70,9.70,9.66
75.12,9.25,-0.32,9.25,-0.33,0.37,-0.14,0.19,9.62,9.62,9.57
75.87,9.24,-0.27,9.24,-0.26,0.31,-0.14,0.17,9.55,9.55,9.51
76.63,9.22,-0.22,9.22,-0.23,0.26,-0.14,0.15,9.48,9.48,9.44
77.40,9.21,-0.22,9.21,-0.21,0.21,-0.15,0.13,9.42,9.42,9.42
78.17,9.19,-0.21,9.19,-0.19,0.17,-0.15,0.11,9.36,9.36,9.40
78.95,9.17,-0.16,9.17,-0.16,0.13,-0.15,0.09,9.30,9.30,9.33
79.74,9.16,-0.11,9.16,-0.11,0.09,-0.16,0.06,9.24,9.24,9.26
80.54,9.14,-0.06,9.14,-0.06,0.04,-0.16,0.04,9.18,9.18,9.19
81.35,9.12,-0.01,9.12,-0.01,0.00,-0.16,0.02,9.12,9.12,9.13
82.16,9.10,0.04,9.10,0.05,-0.03,-0.17,-0.00,9.07,9.07,9.06
82.98,9.08,0.09,9.08,0.09,-0.06,-0.17,-0.02,9.02,9.02,8.99
83.81,9.06,0.14,9.06,0.12,-0.08,-0.17,-0.05,8.98,8.97,8.92
84.65,9.04,0.12,9.04,0.12,-0.10,-0.18,-0.07,8.94,8.94,8.92
85.50,9.02,0.10,9.02,0.10,-0.10,-0.18,-0.09,8.91,8.91,8.92
86.35,9.00,0.07,9.00,0.07,-0.10,-0.19,-0.11,8.90,8.90,8.92
87.22,8.97,0.05,8.97,0.07,-0.09,-0.19,-0.14,8.88,8.88,8.92
88.09,8.95,0.08,8.95,0.08,-0.08,-0.19,-0.16,8.87,8.87,8.87
88.97,8.92,0.10,8.92,0.08,-0.07,-0.20,-0.18,8.85,8.85,8.82
89.86,8.90,0.08,8.90,0.08,-0.06,-0.20,-0.20,8.84,8.84,8.82
90.76,8.88,0.05,8.88,0.07,-0.06,-0.21,-0.23,8.81,8.81,8.82
91.66,8.85,0.05,8.85,0.07,-0.07,-0.21,-0.25,8.78,8.78,8.80
92.58,8.82,0.09,8.82,0.07,-0.08,-0.22,-0.28,8.75,8.75,8.73
93.51,8.80,0.08,8.80,0.08,-0.09,-0.22,-0.30,8.71,8.71,8.72
94.44,8.77,0.08,8.77,0.10,-0.11,-0.23,-0.32,8.66,8.66,8.69
95.39,8.74,0.12,8.74,0.12,-0.14,-0.23,-0.35,8.61,8.61,8.62
96.34,8.72,0.16,8.72,0.16,-0.17,-0.24,-0.37,8.55,8.55,8.55
97.30,8.69,0.20,8.69,0.21,-0.20,-0.24,-0.40,8.49,8.49,8.49
98.28,8.66,0.24,8.66,0.25,-0.22,-0.25,-0.42,8.44,8.44,8.42
99.26,8.63,0.29,8.63,0.27,-0.24,-0.26,-0.45,8.39,8.39,8.35
100.25,8.60,0.28,8.60,0.28,-0.26,-0.26,-0.47,8.34,8.34,8.32
101.25,8.57,0.26,8.57,0.28,-0.27,-0.27,-0.50,8.31,8.31,8.31
102.27,8.54,0.29,8.54,0.28,-0.28,-0.27,-0.52,8.27,8.27,8.26
103.29,8.51,0.29,8.51,0.28,-0.29,-0.28,-0.55,8.22,8.22,8.22
104.32,8.48,0.28,8.48,0.29,-0.31,-0.29,-0.57,8.17,8.17,8.21
105.37,8.45,0.30,8.45,0.30,-0.34,-0.29,-0.60,8.11,8.11,8.15
106.42,8.42,0.34,8.42,0.35,-0.38,-0.30,-0.62,8.04,8.04,8.08
107.48,8.39,0.42,8.39,0.42,-0.43,-0.31,-0.64,7.96,7.96,7.97
108.56,8.36,0.49,8.36,0.49,-0.48,-0.32,-0.67,7.88,7.88,7.87
109.64,8.32,0.57,8.32,0.56,-0.52,-0.32,-0.69,7.80,7.80,7.76
110.74,8.29,0.61,8.29,0.60,-0.56,-0.33,-0.71,7.73,7.73,7.68
111.85,8.26,0.63,8.26,0.62,-0.59,-0.34,-0.74,7.66,7.66,7.63
112.97,8.22,0.60,8.22,0.62,-0.61,-0.35,-0.76,7.61,7.61,7.62
114.10,8.19,0.62,8.19,0.62,-0.62,-0.36,-0.78,7.57,7.57,7.57
115.24,8.15,0.63,8.15,0.61,-0.61,-0.36,-0.80,7.54,7.54,7.52
116.39,8.12,0.60,8.12,0.62,-0.61,-0.37,-0.82,7.51,7.51,7.52
117.55,8.08,0.61,8.08,0.60,-0.61,-0.38,-0.84,7.47,7.47,7.47
118.73,8.04,0.62,8.04,0.60,-0.62,-0.39,-0.86,7.42,7.42,7.42
119.92,8.01,0.59,8.01,0.62,-0.65,-0.40,-0.87,7.36,7.36,7.42
121.12,7.97,0.66,7.97,0.65,-0.69,-0.41,-0.89,7.28,7.28,7.31
122.33,7.93,0.73,7.93,0.71,-0.74,-0.42,-0.90,7.19,7.19,7.21
123.55,7.89,0.75,7.89,0.79,-0.79,-0.43,-0.92,7.10,7.10,7.14
124.79,7.85,0.89,7.85,0.86,-0.84,-0.44,-0.93,7.02,7.02,6.96
126.03,7.81,0.94,7.81,0.93,-0.88,-0.45,-0.94,6.93,6.93,6.87
127.29,7.77,0.96,7.77,0.98,-0.91,-0.46,-0.95,6.86,6.86,6.81
128.57,7.73,0.99,7.73,0.97,-0.94,-0.48,-0.96,6.79,6.79,6.74
129.85,7.69,0.97,7.69,0.96,-0.97,-0.49,-0.97,6.71,6.72,6.72
131.15,7.65,0.93,7.65,0.95,-1.00,-0.50,-0.98,6.65,6.65,6.71
132.46,7.60,0.96,7.60,0.97,-1.02,-0.51,-0.99,6.58,6.58,6.65
133.79,7.56,1.02,7.56,1.01,-1.05,-0.53,-0.99,6.51,6.51,6.54
135.12,7.52,1.10,7.52,1.08,-1.08,-0.54,-1.00,6.43,6.43,6.42
136.48,7.47,1.12,7.47,1.15,-1.11,-0.55,-1.00,6.36,6.36,6.35
137.84,7.42,1.19,7.42,1.19,-1.15,-0.57,-1.01,6.27,6.27,6.24
139.22,7.38,1.26,7.38,1.22,-1.19,-0.58,-1.01,6.19,6.19,6.12
140.61,7.33,1.21,7.33,1.23,-1.22,-0.59,-1.02,6.11,6.11,6.12
142.02,7.29,1.21,7.29,1.23,-1.25,-0.61,-1.02,6.04,6.04,6.07
143.44,7.24,1.24,7.24,1.23,-1.27,-0.63,-1.02,5.97,5.97,6.00
144.87,7.19,1.26,7.19,1.26,-1.28,-0.64,-1.03,5.91,5.91,5.93
146.32,7.14,1.28,7.14,1.28,-1.29,-0.66,-1.03,5.85,5.85,5.86
147.78,7.09,1.31,7.09,1.31,-1.29,-0.67,-1.03,5.80,5.80,5.78
149.26,7.04,1.33,7.04,1.34,-1.30,-0.69,-1.04,5.74,5.74,5.71
150.75,6.99,1.36,6.99,1.33,-1.31,-0.71,-1.04,5.68,5.68,5.63
152.26,6.94,1.32,6.94,1.31,-1.32,-0.73,-1.04,5.62,5.62,5.62
153.78,6.89,1.27,6.89,1.29,-1.32,-0.74,-1.05,5.57,5.57,5.62
155.32,6.84,1.28,6.84,1.28,-1.32,-0.76,-1.05,5.52,5.52,5.56
156.88,6.79,1.31,6.79,1.31,-1.32,-0.78,-1.06,5.47,5.47,5.48
158.44,6.73,1.33,6.73,1.33,-1.31,-0.80,-1.07,5.42,5.42,5.40
160.03,6.68,1.36,6.68,1.33,-1.31,-0.82,-1.07,5.37,5.37,5.32
161.63,6.63,1.30,6.63,1.31,-1.31,-0.84,-1.08,5.32,5.32,5.32
163.24,6.57,1.26,6.57,1.29,-1.30,-0.86,-1.09,5.27,5.27,5.31
164.88,6.52,1.29,6.52,1.28,-1.30,-0.88,-1.10,5.22,5.22,5.23
166.53,6.46,1.29,6.46,1.28,-1.28,-0.91,-1.11,5.18,5.18,5.17
168.19,6.40,1.28,6.41,1.27,-1.26,-0.93,-1.12,5.14,5.14,5.12
169.87,6.35,1.23,6.35,1.26,-1.24,-0.95,-1.13,5.11,5.11,5.12
171.57,6.29,1.25,6.29,1.22,-1.22,-0.97,-1.15,5.07,5.07,5.04
173.29,6.23,1.21,6.23,1.20,-1.19,-1.00,-1.16,5.04,5.04,5.02
175.02,6.17,1.15,6.17,1.18,-1.17,-1.02,-1.18,5.00,5.00,5.02
176.77,6.11,1.18,6.11,1.14,-1.15,-1.05,-1.19,4.95,4.95,4.93
178.54,6.05,1.13,6.05,1.12,-1.15,-1.07,-1.21,4.90,4.90,4.92
180.32,5.99,1.09,5.99,1.12,-1.16,-1.09,-1.23,4.83,4.83,4.90
182.13,5.92,1.14,5.92,1.13,-1.17,-1.12,-1.25,4.75,4.75,4.78
183.95,5.86,1.19,5.86,1.18,-1.19,-1.15,-1.27,4.67,4.67,4.67
185.79,5.80,1.23,5.80,1.24,-1.22,-1.17,-1.29,4.58,4.58,4.57
187.65,5.73,1.29,5.73,1.27,-1.24,-1.20,-1.31,4.49,4.49,4.44
189.52,5.67,1.30,5.67,1.30,-1.27,-1.22,-1.33,4.40,4.40,4.37
191.42,5.61,1.30,5.61,1.30,-1.28,-1.25,-1.35,4.33,4.33,4.31
193.33,5.55,1.30,5.55,1.29,-1.28,-1.28,-1.38,4.27,4.27,4.24
195.27,5.49,1.26,5.49,1.28,-1.27,-1.30,-1.40,4.22,4.22,4.22
197.22,5.43,1.25,5.43,1.25,-1.25,-1.33,-1.43,4.17,4.18,4.18
199.19,5.37,1.25,5.37,1.23,-1.24,-1.36,-1.45,4.14,4.14,4.12
201.18,5.32,1.20,5.32,1.21,-1.23,-1.38,-1.48,4.10,4.09,4.12
203.19,5.27,1.19,5.27,1.20,-1.23,-1.41,-1.51,4.05,4.05,4.08
205.23,5.23,1.22,5.23,1.21,-1.24,-1.44,-1.53,3.99,3.99,4.01
207.28,5.19,1.25,5.19,1.24,-1.26,-1.46,-1.56,3.93,3.93,3.95
209.35,5.16,1.28,5.16,1.28,-1.29,-1.49,-1.59,3.87,3.87,3.88
211.44,5.13,1.32,5.13,1.33,-1.32,-1.51,-1.61,3.81,3.81,3.81
213.56,5.11,1.37,5.11,1.38,-1.36,-1.54,-1.64,3.75,3.75,3.74
215.69,5.09,1.43,5.09,1.42,-1.39,-1.56,-1.66,3.70,3.70,3.66
217.85,5.07,1.45,5.08,1.44,-1.41,-1.58,-1.69,3.67,3.67,3.62
220.03,5.06,1.44,5.07,1.45,-1.42,-1.60,-1.71,3.64,3.64,3.62
222.23,5.06,1.44,5.06,1.43,-1.44,-1.63,-1.73,3.62,3.62,3.62
224.45,5.05,1.43,5.05,1.43,-1.45,-1.65,-1.75,3.60,3.60,3.62
226.70,5.05,1.42,5.05,1.45,-1.47,-1.66,-1.77,3.58,3.58,3.62
228.96,5.04,1.48,5.04,1.46,-1.49,-1.68,-1.79,3.55,3.55,3.56
231.25,5.03,1.51,5.03,1.49,-1.52,-1.70,-1.81,3.51,3.51,3.52
233.57,5.02,1.50,5.02,1.55,-1.55,-1.71,-1.82,3.47,3.47,3.52
235.90,5.01,1.61,5.01,1.61,-1.60,-1.73,-1.83,3.40,3.40,3.39
238.26,4.99,1.71,4.99,1.67,-1.66,-1.74,-1.84,3.33,3.33,3.28
240.64,4.97,1.74,4.97,1.72,-1.71,-1.75,-1.84,3.25,3.25,3.22
243.05,4.94,1.72,4.94,1.76,-1.77,-1.75,-1.85,3.17,3.17,3.22
245.48,4.91,1.78,4.91,1.80,-1.81,-1.76,-1.84,3.09,3.09,3.12
247.93,4.87,1.87,4.87,1.85,-1.85,-1.76,-1.84,3.02,3.02,3.00
250.41,4.83,1.90,4.83,1.90,-1.87,-1.77,-1.83,2.96,2.96,2.94
252.92,4.79,1.91,4.79,1.91,-1.89,-1.77,-1.82,2.90,2.90,2.87
255.45,4.74,1.92,4.74,1.90,-1.89,-1.76,-1.81,2.85,2.85,2.82
258.00,4.69,1.87,4.69,1.89,-1.89,-1.76,-1.80,2.80,2.80,2.82
260.58,4.64,1.88,4.64,1.87,-1.88,-1.75,-1.78,2.76,2.76,2.76
263.19,4.58,1.86,4.58,1.84,-1.85,-1.74,-1.76,2.72,2.72,2.72
265.82,4.52,1.80,4.52,1.83,-1.83,-1.73,-1.73,2.69,2.69,2.72
268.48,4.46,1.80,4.46,1.79,-1.80,-1.72,-1.71,2.66,2.66,2.66
271.16,4.40,1.78,4.40,1.76,-1.77,-1.71,-1.68,2.63,2.63,2.62
273.87,4.34,1.72,4.34,1.74,-1.74,-1.69,-1.64,2.60,2.60,2.62
276.61,4.27,1.72,4.27,1.70,-1.71,-1.67,-1.61,2.56,2.56,2.56
279.38,4.21,1.69,4.21,1.68,-1.68,-1.65,-1.58,2.53,2.53,2.52
282.17,4.15,1.63,4.15,1.66,-1.64,-1.63,-1.54,2.50,2.50,2.52
284.99,4.08,1.64,4.08,1.62,-1.61,-1.60,-1.50,2.47,2.47,2.45
287.84,4.02,1.60,4.02,1.58,-1.58,-1.58,-1.46,2.44,2.44,2.42
290.72,3.95,1.53,3.95,1.53,-1.55,-1.55,-1.42,2.40,2.40,2.42
293.63,3.89,1.47,3.89,1.49,-1.52,-1.52,-1.37,2.37,2.37,2.42
296.57,3.82,1.47,3.82,1.47,-1.49,-1.49,-1.33,2.33,2.33,2.36
299.53,3.76,1.47,3.76,1.46,-1.45,-1.46,-1.29,2.30,2.30,2.29
302.53,3.69,1.46,3.69,1.45,-1.41,-1.42,-1.24,2.28,2.28,2.23
305.55,3.63,1.41,3.63,1.41,-1.37,-1.39,-1.20,2.26,2.26,2.22
308.61,3.57,1.34,3.57,1.35,-1.33,-1.35,-1.15,2.24,2.24,2.22
311.69,3.50,1.28,3.50,1.28,-1.28,-1.32,-1.11,2.22,2.22,2.22
314.81,3.44,1.22,3.44,1.21,-1.23,-1.28,-1.06,2.21,2.21,2.22
317.96,3.38,1.15,3.38,1.16,-1.18,-1.24,-1.01,2.20,2.20,2.22
321.14,3.31,1.09,3.31,1.12,-1.13,-1.20,-0.97,2.18,2.18,2.22
324.35,3.25,1.11,3.25,1.09,-1.09,-1.16,-0.92,2.16,2.16,2.14
327.59,3.19,1.07,3.19,1.06,-1.07,-1.13,-0.88,2.12,2.12,2.12
330.87,3.13,1.02,3.13,1.04,-1.06,-1.09,-0.83,2.07,2.07,2.10
334.18,3.06,1.03,3.06,1.02,-1.05,-1.05,-0.79,2.02,2.02,2.04
337.52,3.00,1.03,3.00,1.03,-1.03,-1.01,-0.74,1.97,1.97,1.97
340.90,2.94,1.04,2.94,1.04,-1.02,-0.97,-0.70,1.92,1.92,1.90
344.30,2.88,1.04,2.88,1.03,-0.99,-0.93,-0.66,1.89,1.89,1.84
347.75,2.82,1.00,2.82,1.00,-0.96,-0.89,-0.61,1.86,1.86,1.82
351.23,2.76,0.94,2.76,0.94,-0.92,-0.85,-0.57,1.84,1.84,1.82
354.74,2.70,0.88,2.70,0.88,-0.88,-0.81,-0.53,1.82,1.82,1.82
358.28,2.64,0.82,2.64,0.81,-0.84,-0.77,-0.49,1.80,1.80,1.82
361.87,2.58,0.76,2.58,0.76,-0.79,-0.73,-0.45,1.79,1.79,1.82
365.49,2.52,0.71,2.52,0.72,-0.74,-0.69,-0.41,1.78,1.78,1.81
369.14,2.46,0.71,2.46,0.69,-0.70,-0.65,-0.37,1.76,1.76,1.75
372.83,2.40,0.68,2.40,0.67,-0.67,-0.62,-0.33,1.73,1.73,1.72
376.56,2.34,0.63,2.34,0.65,-0.65,-0.58,-0.29,1.70,1.70,1.71
380.33,2.29,0.64,2.29,0.62,-0.63,-0.54,-0.25,1.66,1.66,1.65
384.13,2.23,0.61,2.23,0.60,-0.61,-0.51,-0.21,1.62,1.62,1.62
387.97,2.17,0.57,2.17,0.59,-0.58,-0.47,-0.17,1.59,1.59,1.61
391.85,2.11,0.57,2.11,0.56,-0.54,-0.44,-0.14,1.57,1.57,1.54
395.77,2.06,0.54,2.06,0.53,-0.51,-0.40,-0.10,1.55,1.55,1.52
399.73,2.00,0.48,2.00,0.48,-0.46,-0.37,-0.06,1.54,1.54,1.52
403.72,1.94,0.42,1.94,0.42,-0.42,-0.33,-0.03,1.52,1.52,1.52
407.76,1.89,0.37,1.89,0.36,-0.38,-0.30,0.01,1.51,1.51,1.52
411.84,1.83,0.31,1.83,0.31,-0.34,-0.27,0.04,1.50,1.50,1.52
415.96,1.78,0.26,1.78,0.28,-0.30,-0.23,0.08,1.48,1.48,1.52
420.12,1.72,0.27,1.72,0.25,-0.27,-0.20,0.11,1.45,1.45,1.45
424.32,1.67,0.25,1.67,0.24,-0.24,-0.17,0.15,1.43,1.43,1.42
428.56,1.61,0.20,1.61,0.23,-0.21,-0.14,0.18,1.40,1.40,1.41
432.85,1.56,0.22,1.56,0.20,-0.19,-0.11,0.21,1.37,1.37,1.34
437.18,1.51,0.18,1.51,0.18,-0.16,-0.07,0.24,1.35,1.35,1.32
441.55,1.45,0.13,1.45,0.14,-0.12,-0.04,0.27,1.33,1.33,1.32
445.96,1.40,0.08,1.40,0.08,-0.08,-0.01,0.30,1.32,1.32,1.32
450.42,1.35,0.03,1.35,0.03,-0.03,0.02,0.33,1.32,1.32,1.32
454.93,1.29,-0.03,1.29,-0.03,0.03,0.05,0.36,1.32,1.32,1.32
459.48,1.24,-0.08,1.24,-0.08,0.07,0.08,0.38,1.32,1.32,1.32
464.07,1.19,-0.13,1.19,-0.14,0.12,0.11,0.41,1.31,1.31,1.32
468.71,1.14,-0.18,1.14,-0.18,0.16,0.14,0.43,1.30,1.30,1.32
473.40,1.09,-0.23,1.09,-0.21,0.20,0.17,0.46,1.29,1.29,1.32
478.13,1.04,-0.22,1.04,-0.23,0.24,0.20,0.48,1.28,1.28,1.26
482.91,0.99,-0.23,0.99,-0.25,0.27,0.24,0.50,1.26,1.26,1.22
487.74,0.94,-0.28,0.94,-0.28,0.30,0.27,0.52,1.24,1.24,1.22
492.62,0.89,-0.33,0.89,-0.34,0.33,0.30,0.54,1.22,1.22,1.22
497.55,0.84,-0.38,0.84,-0.38,0.36,0.33,0.56,1.19,1.19,1.22
502.52,0.79,-0.42,0.79,-0.40,0.39,0.36,0.57,1.17,1.18,1.21
507.55,0.74,-0.40,0.74,-0.42,0.42,0.39,0.59,1.16,1.16,1.14
512.62,0.69,-0.43,0.69,-0.44,0.45,0.42,0.60,1.15,1.15,1.12
517.75,0.64,-0.48,0.64,-0.47,0.49,0.45,0.61,1.14,1.14,1.12
