frequency,raw,error,smoothed,error_smoothed,equalization,parametric_eq,fixed_band_eq,equalized_raw,equalized_smoothed,target
20.00,10.71,2.22,10.71,2.22,-2.28,0.06,-0.34,8.44,8.43,8.49
20.20,10.69,2.16,10.70,2.16,-2.17,0.06,-0.36,8.53,8.53,8.53
20.40,10.67,2.09,10.67,2.09,-2.06,0.07,-0.37,8.61,8.61,8.58
20.61,10.65,2.03,10.64,2.02,-1.97,0.07,-0.38,8.68,8.67,8.62
20.81,10.61,1.93,10.61,1.93,-1.89,0.07,-0.39,8.72,8.72,8.67
21.02,10.56,1.84,10.56,1.84,-1.82,0.07,-0.40,8.75,8.75,8.72
21.23,10.52,1.75,10.52,1.75,-1.75,0.07,-0.42,8.77,8.77,8.77
21.44,10.49,1.67,10.49,1.67,-1.70,0.07,-0.43,8.79,8.80,8.82
21.66,10.48,1.62,10.48,1.62,-1.65,0.07,-0.44,8.84,8.84,8.87
21.87,10.49,1.58,10.49,1.58,-1.61,0.08,-0.46,8.88,8.88,8.91
22.09,10.52,1.56,10.52,1.56,-1.59,0.08,-0.47,8.94,8.94,8.96
22.31,10.58,1.57,10.57,1.57,-1.57,0.08,-0.49,9.00,9.00,9.01
22.54,10.63,1.58,10.64,1.58,-1.57,0.08,-0.50,9.07,9.07,9.06
22.76,10.69,1.59,10.69,1.58,-1.56,0.08,-0.52,9.13,9.13,9.11
22.99,10.75,1.59,10.74,1.58,-1.55,0.09,-0.53,9.19,9.19,9.16
23.22,10.78,1.56,10.77,1.56,-1.53,0.09,-0.55,9.24,9.24,9.21
23.45,10.79,1.53,10.79,1.53,-1.50,0.09,-0.57,9.29,9.29,9.26
23.69,10.79,1.48,10.79,1.48,-1.47,0.09,-0.58,9.33,9.32,9.31
23.92,10.79,1.42,10.79,1.42,-1.42,0.09,-0.60,9.36,9.36,9.37
24.16,10.79,1.37,10.79,1.37,-1.38,0.10,-0.62,9.40,9.41,9.42
24.40,10.80,1.32,10.80,1.32,-1.34,0.10,-0.64,9.45,9.45,9.47
24.65,10.82,1.29,10.82,1.29,-1.32,0.10,-0.65,9.50,9.50,9.53
24.89,10.85,1.27,10.86,1.27,-1.30,0.10,-0.67,9.56,9.56,9.58
25.14,10.90,1.27,10.90,1.27,-1.29,0.10,-0.69,9.61,9.61,9.63
25.39,10.96,1.28,10.96,1.28,-1.29,0.11,-0.71,9.67,9.67,9.68
25.65,11.01,1.29,11.01,1.29,-1.29,0.11,-0.73,9.72,9.72,9.72
25.91,11.06,1.30,11.06,1.30,-1.29,0.11,-0.74,9.77,9.77,9.76
26.16,11.09,1.30,11.09,1.30,-1.28,0.12,-0.76,9.82,9.82,9.79
26.43,11.11,1.28,11.10,1.27,-1.25,0.12,-0.78,9.86,9.85,9.83
26.69,11.10,1.23,11.10,1.23,-1.21,0.12,-0.79,9.89,9.89,9.87
26.96,11.08,1.17,11.08,1.17,-1.15,0.12,-0.81,9.93,9.93,9.91
27.23,11.04,1.09,11.04,1.09,-1.08,0.13,-0.82,9.96,9.96,9.95
27.50,11.00,1.00,11.00,1.00,-1.00,0.13,-0.84,9.99,9.99,10.00
27.77,10.95,0.91,10.95,0.91,-0.92,0.13,-0.85,10.03,10.03,10.04
28.05,10.91,0.82,10.91,0.82,-0.84,0.14,-0.86,10.07,10.07,10.08
28.33,10.87,0.75,10.87,0.75,-0.77,0.14,-0.87,10.11,10.11,10.12
28.62,10.84,0.68,10.84,0.68,-0.70,0.14,-0.88,10.14,10.14,10.16
28.90,10.82,0.63,10.82,0.63,-0.64,0.15,-0.89,10.18,10.18,10.19
29.19,10.81,0.59,10.81,0.59,-0.59,0.15,-0.89,10.22,10.22,10.22
29.48,10.81,0.55,10.81,0.55,-0.55,0.15,-0.90,10.25,10.25,10.25
29.78,10.81,0.52,10.80,0.52,-0.52,0.16,-0.90,10.29,10.29,10.28
30.08,10.80,0.49,10.80,0.49,-0.49,0.16,-0.90,10.32,10.32,10.31
30.38,10.80,0.46,10.80,0.46,-0.46,0.17,-0.90,10.34,10.34,10.34
30.68,10.80,0.43,10.80,0.43,-0.43,0.17,-0.89,10.37,10.37,10.37
30.99,10.80,0.40,10.80,0.40,-0.40,0.17,-0.89,10.40,10.40,10.39
31.30,10.78,0.37,10.78,0.37,-0.36,0.18,-0.88,10.42,10.42,10.42
31.61,10.77,0.33,10.77,0.33,-0.32,0.18,-0.87,10.45,10.45,10.44
31.93,10.75,0.28,10.75,0.28,-0.27,0.19,-0.86,10.47,10.47,10.46
32.24,10.72,0.23,10.72,0.23,-0.23,0.19,-0.84,10.49,10.50,10.49
32.57,10.69,0.18,10.69,0.18,-0.18,0.20,-0.83,10.52,10.52,10.52
32.89,10.67,0.12,10.67,0.12,-0.13,0.20,-0.81,10.54,10.54,10.55
33.22,10.64,0.07,10.64,0.07,-0.08,0.21,-0.79,10.57,10.57,10.57
33.55,10.62,0.02,10.62,0.03,-0.03,0.21,-0.76,10.59,10.59,10.60
33.89,10.61,-0.02,10.61,-0.02,0.01,0.22,-0.74,10.62,10.62,10.63
34.23,10.60,-0.05,10.60,-0.05,0.04,0.22,-0.71,10.65,10.65,10.65
34.57,10.60,-0.08,10.61,-0.08,0.07,0.23,-0.68,10.68,10.68,10.68
34.92,10.61,-0.10,10.61,-0.10,0.10,0.24,-0.65,10.72,10.72,10.71
35.27,10.63,-0.12,10.62,-0.12,0.13,0.24,-0.62,10.75,10.75,10.75
35.62,10.64,-0.14,10.64,-0.14,0.15,0.25,-0.59,10.79,10.79,10.78
35.97,10.64,-0.17,10.64,-0.17,0.18,0.25,-0.55,10.82,10.82,10.81
36.33,10.64,-0.20,10.64,-0.20,0.20,0.26,-0.52,10.84,10.84,10.84
36.70,10.64,-0.22,10.64,-0.22,0.22,0.27,-0.48,10.86,10.86,10.86
37.06,10.64,-0.25,10.64,-0.25,0.24,0.27,-0.44,10.87,10.88,10.88
37.43,10.63,-0.27,10.63,-0.27,0.26,0.28,-0.41,10.89,10.89,10.90
37.81,10.63,-0.28,10.63,-0.28,0.27,0.29,-0.37,10.91,10.91,10.91
38.19,10.63,-0.29,10.63,-0.29,0.29,0.30,-0.33,10.92,10.92,10.92
38.57,10.62,-0.30,10.62,-0.30,0.31,0.31,-0.29,10.93,10.93,10.93
38.95,10.62,-0.32,10.62,-0.32,0.33,0.31,-0.25,10.94,10.94,10.94
39.34,10.61,-0.34,10.61,-0.34,0.35,0.32,-0.20,10.96,10.96,10.95
39.74,10.60,-0.36,10.60,-0.37,0.38,0.33,-0.16,10.98,10.98,10.97
40.14,10.59,-0.40,10.59,-0.40,0.41,0.34,-0.12,11.00,11.00,10.99
40.54,10.58,-0.44,10.58,-0.44,0.45,0.35,-0.08,11.03,11.03,11.02
40.94,10.56,-0.49,10.56,-0.49,0.49,0.36,-0.03,11.05,11.05,11.05
41.35,10.54,-0.54,10.54,-0.53,0.53,0.37,0.01,11.07,11.07,11.07
41.76,10.51,-0.58,10.51,-0.58,0.56,0.38,0.06,11.08,11.08,11.09
42.18,10.49,-0.61,10.49,-0.61,0.60,0.39,0.10,11.09,11.09,11.10
42.60,10.47,-0.64,10.47,-0.64,0.63,0.40,0.14,11.09,11.09,11.10
43.03,10.45,-0.65,10.45,-0.65,0.65,0.41,0.19,11.10,11.10,11.10
43.46,10.43,-0.67,10.43,-0.67,0.68,0.42,0.24,11.11,11.11,11.10
43.90,10.41,-0.69,10.41,-0.69,0.70,0.43,0.28,11.11,11.11,11.10
44.33,10.40,-0.71,10.40,-0.71,0.71,0.44,0.33,11.11,11.11,11.10
44.78,10.38,-0.73,10.38,-0.73,0.73,0.46,0.37,11.11,11.11,11.11
45.23,10.36,-0.75,10.36,-0.75,0.75,0.47,0.42,11.11,11.11,11.11
45.68,10.35,-0.77,10.35,-0.77,0.76,0.48,0.47,11.11,11.11,11.12
46.13,10.34,-0.79,10.34,-0.79,0.78,0.50,0.51,11.12,11.12,11.13
46.60,10.33,-0.80,10.33,-0.80,0.80,0.51,0.56,11.13,11.13,11.13
47.06,10.32,-0.82,10.32,-0.82,0.83,0.52,0.61,11.14,11.14,11.14
47.53,10.30,-0.84,10.30,-0.84,0.85,0.54,0.66,11.16,11.16,11.15
48.01,10.29,-0.87,10.29,-0.87,0.88,0.55,0.70,11.17,11.17,11.16
48.49,10.27,-0.90,10.27,-0.90,0.91,0.57,0.75,11.18,11.18,11.17
48.97,10.24,-0.94,10.24,-0.94,0.94,0.58,0.80,11.18,11.18,11.18
49.46,10.21,-0.97,10.21,-0.97,0.96,0.60,0.85,11.18,11.18,11.18
49.96,10.18,-1.00,10.18,-1.00,0.99,0.62,0.89,11.17,11.17,11.18
50.46,10.16,-1.02,10.16,-1.02,1.01,0.63,0.94,11.17,11.17,11.19
50.96,10.15,-1.04,10.15,-1.03,1.03,0.65,0.99,11.18,11.18,11.18
51.47,10.14,-1.04,10.14,-1.04,1.04,0.67,1.03,11.18,11.18,11.18
51.99,10.13,-1.04,10.13,-1.04,1.05,0.68,1.08,11.18,11.18,11.17
52.51,10.12,-1.05,10.12,-1.05,1.05,0.70,1.12,11.17,11.17,11.16
53.03,10.10,-1.05,10.10,-1.05,1.06,0.72,1.16,11.16,11.15,11.15
53.56,10.08,-1.06,10.08,-1.06,1.06,0.74,1.21,11.13,11.13,11.13
54.10,10.05,-1.06,10.05,-1.06,1.06,0.76,1.25,11.11,11.11,11.11
54.64,10.03,-1.07,10.03,-1.07,1.06,0.78,1.29,11.09,11.09,11.10
55.18,10.01,-1.07,10.01,-1.07,1.07,0.80,1.32,11.08,11.08,11.08
55.74,10.00,-1.07,10.00,-1.07,1.07,0.82,1.36,11.07,11.07,11.07
56.29,9.98,-1.08,9.98,-1.08,1.08,0.84,1.39,11.07,11.07,11.06
56.86,9.97,-1.09,9.97,-1.09,1.09,0.86,1.42,11.06,11.06,11.05
57.42,9.95,-1.10,9.95,-1.10,1.10,0.88,1.45,11.05,11.05,11.05
58.00,9.92,-1.11,9.92,-1.11,1.12,0.90,1.48,11.04,11.04,11.04
58.58,9.90,-1.13,9.90,-1.13,1.13,0.92,1.50,11.03,11.03,11.03
59.16,9.87,-1.15,9.87,-1.15,1.15,0.94,1.52,11.02,11.02,11.02
59.76,9.84,-1.17,9.84,-1.17,1.17,0.96,1.54,11.00,11.00,11.01
60.35,9.80,-1.19,9.80,-1.19,1.18,0.98,1.55,10.98,10.98,10.99
60.96,9.77,-1.20,9.77,-1.20,1.19,1.00,1.56,10.96,10.97,10.97
61.57,9.75,-1.21,9.75,-1.21,1.20,1.02,1.56,10.95,10.95,10.95
62.18,9.72,-1.21,9.72,-1.21,1.21,1.03,1.56,10.93,10.93,10.93
62.80,9.69,-1.21,9.69,-1.21,1.22,1.05,1.56,10.91,10.91,10.91
63.43,9.67,-1.22,9.67,-1.22,1.22,1.07,1.55,10.89,10.89,10.89
64.07,9.64,-1.22,9.64,-1.22,1.22,1.09,1.54,10.86,10.86,10.86
64.71,9.61,-1.22,9.61,-1.22,1.22,1.10,1.53,10.84,10.84,10.83
65.35,9.58,-1.22,9.58,-1.22,1.22,1.12,1.51,10.81,10.81,10.81
66.01,9.55,-1.22,9.55,-1.22,1.22,1.14,1.49,10.78,10.78,10.78
66.67,9.53,-1.22,9.53,-1.22,1.22,1.15,1.47,10.75,10.75,10.75
67.33,9.50,-1.22,9.50,-1.22,1.22,1.16,1.44,10.72,10.72,10.72
68.01,9.48,-1.21,9.48,-1.21,1.21,1.17,1.41,10.69,10.69,10.69
68.69,9.46,-1.20,9.46,-1.20,1.21,1.18,1.38,10.66,10.66,10.66
69.37,9.43,-1.20,9.43,-1.20,1.20,1.19,1.34,10.63,10.63,10.62
70.07,9.40,-1.19,9.40,-1.19,1.20,1.20,1.30,10.59,10.59,10.59
70.77,9.36,-1.19,9.36,-1.19,1.19,1.21,1.26,10.55,10.56,10.55
71.48,9.33,-1.19,9.33,-1.19,1.19,1.21,1.22,10.52,10.52,10.52
72.19,9.30,-1.19,9.30,-1.19,1.18,1.21,1.18,10.48,10.48,10.48
72.91,9.26,-1.18,9.26,-1.18,1.18,1.21,1.13,10.44,10.44,10.45
73.64,9.23,-1.17,9.23,-1.17,1.17,1.21,1.08,10.40,10.41,10.41
74.38,9.20,-1.16,9.20,-1.16,1.17,1.21,1.03,10.37,10.37,10.36
75.12,9.17,-1.15,9.17,-1.16,1.16,1.20,0.98,10.33,10.33,10.32
75.87,9.13,-1.15,9.13,-1.15,1.15,1.19,0.93,10.28,10.28,10.28
76.63,9.10,-1.14,9.10,-1.14,1.14,1.18,0.88,10.24,10.24,10.24
77.40,9.07,-1.14,9.07,-1.14,1.13,1.17,0.83,10.20,10.20,10.20
78.17,9.03,-1.12,9.03,-1.13,1.12,1.16,0.78,10.16,10.16,10.16
78.95,9.00,-1.11,9.00,-1.11,1.11,1.14,0.73,10.11,10.11,10.11
79.74,8.96,-1.10,8.96,-1.10,1.10,1.12,0.67,10.06,10.06,10.06
80.54,8.92,-1.08,8.92,-1.08,1.08,1.10,0.62,10.00,10.00,10.00
81.35,8.88,-1.06,8.88,-1.06,1.06,1.08,0.56,9.94,9.94,9.94
82.16,8.85,-1.04,8.85,-1.04,1.04,1.05,0.51,9.89,9.89,9.89
82.98,8.81,-1.02,8.81,-1.02,1.03,1.03,0.46,9.84,9.84,9.83
83.81,8.78,-1.00,8.78,-1.00,1.01,1.00,0.40,9.79,9.79,9.78
84.65,8.74,-0.98,8.74,-0.98,0.99,0.97,0.35,9.73,9.73,9.73
85.50,8.70,-0.97,8.71,-0.97,0.97,0.94,0.30,9.67,9.67,9.67
86.35,8.67,-0.95,8.67,-0.95,0.94,0.90,0.24,9.61,9.61,9.62
87.22,8.63,-0.93,8.63,-0.93,0.92,0.87,0.19,9.56,9.56,9.56
88.09,8.60,-0.90,8.60,-0.90,0.90,0.83,0.14,9.50,9.50,9.50
88.97,8.56,-0.87,8.56,-0.87,0.88,0.79,0.08,9.44,9.44,9.43
89.86,8.52,-0.84,8.52,-0.84,0.85,0.75,0.03,9.37,9.37,9.36
90.76,8.48,-0.82,8.48,-0.82,0.82,0.70,-0.02,9.30,9.30,9.30
91.66,8.44,-0.79,8.44,-0.79,0.79,0.66,-0.08,9.23,9.23,9.23
92.58,8.41,-0.75,8.41,-0.75,0.75,0.62,-0.13,9.16,9.16,9.16
93.51,8.38,-0.71,8.38,-0.72,0.71,0.57,-0.18,9.09,9.09,9.09
94.44,8.34,-0.67,8.34,-0.67,0.66,0.52,-0.23,9.01,9.01,9.02
95.39,8.30,-0.63,8.30,-0.63,0.62,0.47,-0.29,8.92,8.92,8.93
96.34,8.26,-0.58,8.26,-0.57,0.57,0.42,-0.34,8.83,8.83,8.84
97.30,8.21,-0.51,8.22,-0.51,0.52,0.37,-0.39,8.74,8.74,8.73
98.28,8.17,-0.46,8.17,-0.46,0.47,0.32,-0.44,8.64,8.64,8.63
99.26,8.13,-0.41,8.13,-0.41,0.43,0.27,-0.49,8.55,8.55,8.53
100.25,8.08,-0.37,8.08,-0.37,0.38,0.21,-0.54,8.46,8.46,8.45
101.25,8.04,-0.34,8.04,-0.34,0.34,0.16,-0.59,8.38,8.38,8.38
102.27,7.99,-0.30,8.00,-0.30,0.30,0.10,-0.64,8.29,8.29,8.30
103.29,7.95,-0.26,7.95,-0.26,0.26,0.05,-0.69,8.21,8.21,8.21
104.32,7.91,-0.21,7.91,-0.21,0.21,-0.01,-0.74,8.12,8.12,8.12
105.37,7.86,-0.16,7.86,-0.16,0.16,-0.07,-0.79,8.02,8.02,8.03
106.42,7.81,-0.11,7.82,-0.11,0.10,-0.13,-0.84,7.92,7.92,7.93
107.48,7.77,-0.06,7.77,-0.05,0.03,-0.18,-0.89,7.80,7.81,7.82
108.56,7.73,0.03,7.73,0.03,-0.04,-0.24,-0.93,7.69,7.69,7.70
109.64,7.69,0.12,7.68,0.12,-0.13,-0.30,-0.98,7.56,7.56,7.56
110.74,7.64,0.22,7.64,0.22,-0.22,-0.36,-1.02,7.42,7.42,7.42
111.85,7.59,0.32,7.59,0.32,-0.31,-0.42,-1.06,7.28,7.28,7.27
112.97,7.54,0.42,7.54,0.42,-0.40,-0.48,-1.11,7.14,7.14,7.12
114.10,7.50,0.52,7.50,0.51,-0.50,-0.54,-1.15,7.00,7.00,6.98
115.24,7.45,0.60,7.45,0.60,-0.60,-0.60,-1.19,6.85,6.85,6.85
116.39,7.40,0.69,7.40,0.69,-0.71,-0.66,-1.22,6.70,6.70,6.71
117.55,7.36,0.78,7.36,0.78,-0.81,-0.73,-1.26,6.55,6.55,6.58
118.73,7.31,0.88,7.31,0.89,-0.91,-0.79,-1.29,6.40,6.40,6.43
119.92,7.27,0.99,7.27,1.00,-1.01,-0.85,-1.32,6.26,6.26,6.27
121.12,7.22,1.10,7.22,1.10,-1.09,-0.91,-1.35,6.13,6.13,6.12
122.33,7.18,1.20,7.18,1.20,-1.16,-0.97,-1.38,6.02,6.02,5.98
123.55,7.13,1.27,7.13,1.27,-1.22,-1.04,-1.41,5.91,5.91,5.86
124.79,7.07,1.30,7.07,1.30,-1.26,-1.10,-1.43,5.81,5.81,5.76
126.03,7.01,1.30,7.01,1.30,-1.29,-1.16,-1.46,5.72,5.72,5.71
127.29,6.96,1.29,6.96,1.30,-1.31,-1.23,-1.48,5.65,5.65,5.67
128.57,6.92,1.30,6.92,1.30,-1.32,-1.29,-1.50,5.59,5.59,5.62
129.85,6.87,1.31,6.87,1.31,-1.34,-1.35,-1.51,5.54,5.53,5.56
131.15,6.83,1.33,6.83,1.33,-1.36,-1.42,-1.53,5.47,5.47,5.51
132.46,6.79,1.37,6.79,1.38,-1.39,-1.48,-1.54,5.40,5.40,5.42
133.79,6.75,1.44,6.75,1.44,-1.43,-1.55,-1.55,5.32,5.32,5.31
135.12,6.70,1.51,6.70,1.50,-1.49,-1.61,-1.56,5.22,5.22,5.20
136.48,6.65,1.57,6.65,1.57,-1.55,-1.68,-1.57,5.10,5.10,5.08
137.84,6.58,1.62,6.58,1.62,-1.62,-1.74,-1.58,4.97,4.97,4.96
139.22,6.52,1.68,6.52,1.68,-1.69,-1.81,-1.59,4.83,4.84,4.84
140.61,6.47,1.75,6.47,1.75,-1.76,-1.88,-1.60,4.71,4.71,4.72
142.02,6.43,1.83,6.43,1.83,-1.84,-1.94,-1.61,4.59,4.59,4.59
143.44,6.38,1.92,6.38,1.92,-1.92,-2.01,-1.61,4.46,4.46,4.46
144.87,6.33,2.01,6.33,2.01,-2.00,-2.08,-1.62,4.33,4.33,4.32
146.32,6.27,2.09,6.27,2.09,-2.08,-2.14,-1.62,4.18,4.19,4.18
147.78,6.20,2.17,6.20,2.17,-2.17,-2.21,-1.63,4.04,4.04,4.03
149.26,6.14,2.26,6.14,2.25,-2.25,-2.28,-1.64,3.89,3.89,3.89
150.75,6.08,2.34,6.08,2.33,-2.33,-2.35,-1.64,3.75,3.75,3.75
152.26,6.03,2.41,6.03,2.41,-2.41,-2.42,-1.65,3.61,3.62,3.62
153.78,5.98,2.48,5.98,2.49,-2.50,-2.48,-1.66,3.49,3.49,3.50
155.32,5.94,2.56,5.94,2.57,-2.58,-2.55,-1.67,3.36,3.36,3.37
156.88,5.89,2.65,5.89,2.65,-2.66,-2.62,-1.68,3.23,3.23,3.24
158.44,5.85,2.74,5.85,2.74,-2.74,-2.69,-1.69,3.11,3.11,3.10
160.03,5.80,2.83,5.79,2.83,-2.81,-2.75,-1.70,2.98,2.98,2.96
161.63,5.74,2.90,5.74,2.90,-2.88,-2.82,-1.71,2.85,2.85,2.84
163.24,5.68,2.96,5.68,2.96,-2.95,-2.89,-1.72,2.73,2.73,2.72
164.88,5.63,3.02,5.62,3.02,-3.01,-2.95,-1.74,2.61,2.61,2.61
166.53,5.57,3.06,5.56,3.07,-3.07,-3.02,-1.75,2.49,2.49,2.50
168.19,5.50,3.11,5.50,3.11,-3.13,-3.08,-1.77,2.38,2.38,2.39
169.87,5.44,3.16,5.45,3.16,-3.18,-3.14,-1.79,2.27,2.27,2.28
171.57,5.39,3.22,5.39,3.22,-3.22,-3.19,-1.81,2.17,2.17,2.17
173.29,5.33,3.28,5.33,3.28,-3.27,-3.25,-1.83,2.06,2.06,2.06
175.02,5.28,3.33,5.28,3.32,-3.31,-3.30,-1.86,1.96,1.96,1.95
176.77,5.21,3.36,5.21,3.36,-3.36,-3.35,-1.88,1.86,1.86,1.85
178.54,5.15,3.39,5.15,3.39,-3.40,-3.39,-1.91,1.75,1.75,1.75
180.32,5.08,3.42,5.08,3.43,-3.44,-3.44,-1.94,1.65,1.65,1.66
182.13,5.02,3.46,5.03,3.46,-3.47,-3.47,-1.97,1.55,1.56,1.57
183.95,4.97,3.49,4.97,3.49,-3.50,-3.51,-2.00,1.48,1.48,1.48
185.79,4.93,3.52,4.93,3.52,-3.52,-3.53,-2.03,1.41,1.41,1.40
187.65,4.88,3.55,4.88,3.55,-3.54,-3.56,-2.07,1.35,1.35,1.33
189.52,4.83,3.56,4.83,3.56,-3.55,-3.57,-2.10,1.28,1.28,1.27
191.42,4.77,3.56,4.77,3.56,-3.55,-3.58,-2.14,1.22,1.22,1.22
193.33,4.71,3.55,4.71,3.55,-3.55,-3.59,-2.18,1.16,1.16,1.16
195.27,4.65,3.54,4.65,3.54,-3.54,-3.59,-2.22,1.10,1.11,1.11
197.22,4.59,3.53,4.59,3.53,-3.53,-3.58,-2.26,1.06,1.06,1.06
199.19,4.53,3.51,4.53,3.51,-3.50,-3.57,-2.30,1.03,1.03,1.02
201.18,4.47,3.47,4.47,3.47,-3.47,-3.55,-2.34,1.00,1.00,0.99
203.19,4.40,3.43,4.40,3.44,-3.43,-3.53,-2.38,0.96,0.97,0.97
205.23,4.34,3.39,4.34,3.39,-3.39,-3.49,-2.42,0.95,0.95,0.95
207.28,4.27,3.35,4.27,3.35,-3.34,-3.46,-2.46,0.93,0.93,0.93
209.35,4.21,3.30,4.21,3.29,-3.29,-3.42,-2.50,0.92,0.92,0.91
211.44,4.14,3.23,4.14,3.23,-3.24,-3.37,-2.54,0.90,0.90,0.90
213.56,4.07,3.17,4.07,3.17,-3.18,-3.32,-2.58,0.89,0.89,0.90
215.69,4.01,3.11,4.01,3.11,-3.12,-3.27,-2.62,0.89,0.89,0.89
217.85,3.94,3.05,3.94,3.05,-3.06,-3.21,-2.66,0.89,0.89,0.89
220.03,3.88,2.99,3.88,2.99,-2.99,-3.14,-2.70,0.89,0.89,0.89
222.23,3.82,2.93,3.82,2.93,-2.92,-3.08,-2.73,0.90,0.90,0.89
224.45,3.76,2.86,3.76,2.86,-2.85,-3.01,-2.76,0.91,0.91,0.90
226.70,3.69,2.79,3.69,2.79,-2.78,-2.94,-2.79,0.91,0.91,0.90
228.96,3.63,2.71,3.63,2.71,-2.71,-2.86,-2.81,0.92,0.92,0.92
231.25,3.57,2.63,3.57,2.63,-2.64,-2.79,-2.84,0.93,0.93,0.93
233.57,3.51,2.56,3.51,2.56,-2.57,-2.71,-2.85,0.94,0.94,0.95
235.90,3.47,2.50,3.47,2.50,-2.51,-2.63,-2.87,0.95,0.96,0.97
238.26,3.44,2.44,3.43,2.44,-2.46,-2.55,-2.88,0.98,0.98,0.99
240.64,3.41,2.40,3.41,2.40,-2.41,-2.47,-2.88,1.00,1.00,1.01
243.05,3.40,2.36,3.40,2.36,-2.36,-2.39,-2.88,1.03,1.04,1.04
245.48,3.39,2.33,3.39,2.33,-2.32,-2.31,-2.88,1.07,1.07,1.06
247.93,3.38,2.29,3.38,2.29,-2.28,-2.23,-2.87,1.10,1.10,1.09
250.41,3.37,2.25,3.36,2.25,-2.24,-2.16,-2.85,1.13,1.12,1.11
252.92,3.34,2.20,3.34,2.20,-2.19,-2.08,-2.83,1.15,1.15,1.14
255.45,3.31,2.14,3.31,2.14,-2.14,-2.00,-2.80,1.17,1.18,1.17
258.00,3.28,2.08,3.28,2.08,-2.08,-1.92,-2.77,1.21,1.21,1.20
260.58,3.25,2.01,3.25,2.01,-2.01,-1.84,-2.74,1.24,1.24,1.24
263.19,3.21,1.94,3.21,1.94,-1.94,-1.77,-2.70,1.28,1.27,1.27
265.82,3.17,1.86,3.17,1.86,-1.86,-1.69,-2.65,1.30,1.30,1.31
268.48,3.12,1.78,3.12,1.79,-1.79,-1.62,-2.60,1.33,1.33,1.34
271.16,3.07,1.71,3.07,1.71,-1.72,-1.54,-2.54,1.36,1.36,1.37
273.87,3.02,1.63,3.02,1.63,-1.64,-1.47,-2.49,1.38,1.38,1.39
276.61,2.97,1.56,2.97,1.56,-1.57,-1.40,-2.42,1.40,1.40,1.41
279.38,2.92,1.49,2.92,1.49,-1.49,-1.33,-2.36,1.43,1.43,1.42
282.17,2.86,1.42,2.86,1.42,-1.42,-1.26,-2.29,1.44,1.44,1.44
284.99,2.80,1.35,2.80,1.35,-1.34,-1.19,-2.21,1.46,1.46,1.45
287.84,2.74,1.27,2.74,1.27,-1.27,-1.13,-2.14,1.47,1.47,1.47
290.72,2.68,1.19,2.68,1.19,-1.20,-1.06,-2.06,1.48,1.48,1.48
293.63,2.62,1.11,2.62,1.11,-1.12,-1.00,-1.98,1.50,1.50,1.50
296.57,2.56,1.04,2.56,1.04,-1.04,-0.93,-1.90,1.52,1.52,1.52
299.53,2.51,0.97,2.51,0.96,-0.96,-0.87,-1.82,1.55,1.55,1.54
302.53,2.45,0.89,2.45,0.89,-0.88,-0.81,-1.74,1.58,1.58,1.57
305.55,2.40,0.80,2.40,0.80,-0.79,-0.75,-1.66,1.61,1.60,1.59
308.61,2.34,0.71,2.34,0.71,-0.71,-0.68,-1.57,1.63,1.63,1.63
311.69,2.28,0.62,2.28,0.62,-0.62,-0.62,-1.49,1.66,1.66,1.66
314.81,2.22,0.53,2.22,0.53,-0.54,-0.57,-1.40,1.69,1.69,1.70
317.96,2.17,0.45,2.17,0.45,-0.45,-0.51,-1.31,1.72,1.72,1.73
321.14,2.12,0.37,2.12,0.37,-0.37,-0.45,-1.23,1.75,1.75,1.75
324.35,2.07,0.30,2.07,0.30,-0.30,-0.39,-1.14,1.77,1.77,1.77
327.59,2.02,0.23,2.02,0.23,-0.23,-0.34,-1.05,1.79,1.79,1.79
330.87,1.96,0.17,1.96,0.17,-0.17,-0.28,-0.97,1.80,1.80,1.80
334.18,1.91,0.11,1.91,0.11,-0.11,-0.22,-0.88,1.81,1.81,1.81
337.52,1.86,0.05,1.86,0.05,-0.05,-0.17,-0.80,1.81,1.81,1.81
340.90,1.81,-0.00,1.81,-0.00,0.00,-0.11,-0.71,1.81,1.81,1.81
344.30,1.76,-0.05,1.76,-0.05,0.05,-0.06,-0.63,1.81,1.81,1.81
347.75,1.71,-0.10,1.71,-0.10,0.10,-0.01,-0.54,1.81,1.81,1.81
351.23,1.66,-0.15,1.66,-0.15,0.15,0.05,-0.46,1.81,1.81,1.81
354.74,1.60,-0.20,1.60,-0.20,0.19,0.10,-0.37,1.80,1.80,1.80
358.28,1.55,-0.24,1.55,-0.24,0.24,0.15,-0.29,1.79,1.79,1.80
361.87,1.51,-0.29,1.51,-0.29,0.28,0.21,-0.20,1.79,1.79,1.79
365.49,1.46,-0.33,1.46,-0.33,0.33,0.26,-0.12,1.79,1.79,1.79
369.14,1.42,-0.37,1.42,-0.37,0.37,0.31,-0.04,1.79,1.79,1.78
372.83,1.37,-0.41,1.37,-0.41,0.42,0.36,0.04,1.79,1.79,1.78
376.56,1.32,-0.46,1.32,-0.46,0.46,0.41,0.13,1.78,1.78,1.78
380.33,1.26,-0.51,1.27,-0.51,0.51,0.46,0.21,1.77,1.77,1.78
384.13,1.21,-0.56,1.22,-0.56,0.55,0.51,0.29,1.77,1.77,1.77
387.97,1.17,-0.60,1.17,-0.60,0.60,0.56,0.37,1.76,1.76,1.77
391.85,1.12,-0.64,1.12,-0.64,0.64,0.61,0.45,1.76,1.76,1.76
395.77,1.07,-0.68,1.07,-0.68,0.68,0.66,0.53,1.76,1.76,1.75
399.73,1.02,-0.72,1.02,-0.72,0.73,0.70,0.61,1.75,1.75,1.74
403.72,0.96,-0.77,0.96,-0.77,0.78,0.75,0.69,1.73,1.73,1.73
407.76,0.90,-0.82,0.90,-0.82,0.82,0.79,0.77,1.72,1.72,1.72
411.84,0.84,-0.87,0.84,-0.87,0.87,0.84,0.84,1.71,1.71,1.71
415.96,0.77,-0.92,0.77,-0.92,0.92,0.88,0.92,1.69,1.69,1.69
420.12,0.71,-0.97,0.72,-0.96,0.96,0.92,0.99,1.68,1.68,1.68
424.32,0.66,-1.01,0.66,-1.01,1.01,0.96,1.07,1.67,1.67,1.67
428.56,0.60,-1.05,0.60,-1.05,1.05,1.00,1.14,1.65,1.65,1.65
432.85,0.55,-1.09,0.55,-1.09,1.09,1.04,1.21,1.64,1.64,1.64
437.18,0.49,-1.13,0.50,-1.13,1.13,1.07,1.28,1.62,1.62,1.62
441.55,0.45,-1.16,0.45,-1.16,1.16,1.11,1.34,1.61,1.61,1.61
445.96,0.41,-1.19,0.41,-1.19,1.19,1.14,1.41,1.60,1.60,1.60
450.42,0.37,-1.22,0.37,-1.22,1.22,1.17,1.47,1.59,1.59,1.59
454.93,0.33,-1.25,0.33,-1.25,1.25,1.20,1.53,1.58,1.58,1.58
459.48,0.29,-1.27,0.29,-1.27,1.27,1.23,1.58,1.57,1.57,1.57
464.07,0.26,-1.30,0.26,-1.30,1.29,1.26,1.64,1.56,1.56,1.56
468.71,0.23,-1.32,0.23,-1.32,1.32,1.29,1.69,1.55,1.55,1.55
473.40,0.19,-1.34,0.19,-1.34,1.34,1.31,1.73,1.53,1.53,1.53
478.13,0.16,-1.36,0.16,-1.36,1.36,1.33,1.78,1.52,1.52,1.52
482.91,0.12,-1.38,0.12,-1.38,1.38,1.36,1.82,1.51,1.51,1.50
487.74,0.09,-1.40,0.09,-1.40,1.40,1.38,1.85,1.49,1.49,1.49
492.62,0.05,-1.43,0.05,-1.42,1.42,1.40,1.88,1.47,1.47,1.48
497.55,0.01,-1.45,0.01,-1.45,1.44,1.42,1.91,1.46,1.46,1.46
502.52,-0.02,-1.46,-0.02,-1.46,1.46,1.44,1.93,1.44,1.44,1.44
507.55,-0.05,-1.48,-0.06,-1.48,1.49,1.45,1.95,1.43,1.43,1.43
512.62,-0.09,-1.51,-0.09,-1.51,1.51,1.47,1.97,1.42,1.42,1.41
