frequency,raw,error,smoothed,error_smoothed,equalization,parametric_eq,fixed_band_eq,equalized_raw,equalized_smoothed,target
20.00,6.36,-2.16,6.35,-2.17,2.17,2.06,1.12,8.54,8.53,8.53
20.20,6.41,-2.14,6.42,-2.13,2.12,2.07,1.15,8.53,8.54,8.55
20.40,6.47,-2.11,6.49,-2.10,2.08,2.09,1.19,8.55,8.56,8.58
20.61,6.55,-2.06,6.55,-2.06,2.05,2.10,1.22,8.60,8.60,8.61
20.81,6.63,-2.01,6.63,-2.02,2.02,2.11,1.26,8.65,8.65,8.64
21.02,6.69,-1.98,6.69,-1.98,2.01,2.12,1.29,8.70,8.70,8.67
21.23,6.74,-1.96,6.73,-1.97,2.00,2.13,1.33,8.74,8.74,8.70
21.44,6.75,-1.97,6.75,-1.98,2.01,2.14,1.37,8.76,8.76,8.73
21.66,6.74,-2.01,6.74,-2.01,2.03,2.16,1.41,8.77,8.77,8.75
21.87,6.71,-2.06,6.71,-2.06,2.06,2.17,1.45,8.78,8.78,8.77
22.09,6.67,-2.11,6.67,-2.11,2.10,2.18,1.49,8.78,8.78,8.78
22.31,6.63,-2.16,6.63,-2.16,2.14,2.19,1.54,8.78,8.78,8.80
22.54,6.60,-2.20,6.60,-2.20,2.18,2.20,1.58,8.78,8.78,8.80
22.76,6.58,-2.23,6.58,-2.23,2.20,2.21,1.63,8.78,8.78,8.81
22.99,6.57,-2.24,6.57,-2.24,2.21,2.22,1.67,8.78,8.79,8.81
23.22,6.58,-2.23,6.58,-2.23,2.22,2.23,1.72,8.79,8.79,8.80
23.45,6.59,-2.21,6.59,-2.21,2.21,2.24,1.77,8.80,8.80,8.80
23.69,6.60,-2.19,6.60,-2.19,2.20,2.26,1.82,8.80,8.80,8.79
23.92,6.61,-2.18,6.61,-2.18,2.19,2.27,1.87,8.80,8.80,8.79
24.16,6.62,-2.17,6.62,-2.17,2.18,2.28,1.92,8.80,8.80,8.79
24.40,6.62,-2.17,6.62,-2.17,2.18,2.29,1.98,8.80,8.80,8.79
24.65,6.61,-2.18,6.61,-2.18,2.18,2.30,2.03,8.79,8.79,8.79
24.89,6.61,-2.19,6.61,-2.19,2.19,2.31,2.08,8.80,8.80,8.80
25.14,6.60,-2.21,6.60,-2.21,2.21,2.32,2.14,8.81,8.81,8.81
25.39,6.60,-2.23,6.60,-2.23,2.22,2.33,2.19,8.83,8.83,8.83
25.65,6.60,-2.25,6.60,-2.25,2.24,2.33,2.25,8.85,8.85,8.85
25.91,6.60,-2.26,6.60,-2.27,2.26,2.34,2.30,8.87,8.87,8.87
26.16,6.60,-2.28,6.60,-2.28,2.28,2.35,2.36,8.89,8.89,8.89
26.43,6.60,-2.30,6.60,-2.30,2.30,2.36,2.41,8.90,8.90,8.91
26.69,6.60,-2.32,6.60,-2.32,2.31,2.37,2.47,8.91,8.91,8.92
26.96,6.60,-2.33,6.60,-2.33,2.32,2.38,2.52,8.92,8.92,8.93
27.23,6.59,-2.34,6.59,-2.34,2.34,2.39,2.57,8.93,8.93,8.93
27.50,6.59,-2.35,6.59,-2.35,2.35,2.40,2.62,8.94,8.94,8.94
27.77,6.59,-2.35,6.59,-2.35,2.36,2.41,2.67,8.95,8.95,8.94
28.05,6.58,-2.36,6.58,-2.36,2.37,2.41,2.72,8.96,8.96,8.95
28.33,6.58,-2.38,6.58,-2.38,2.38,2.42,2.77,8.96,8.96,8.96
28.62,6.57,-2.40,6.57,-2.40,2.40,2.43,2.81,8.97,8.97,8.97
28.90,6.56,-2.42,6.56,-2.42,2.41,2.44,2.85,8.98,8.98,8.98
29.19,6.55,-2.43,6.55,-2.43,2.43,2.45,2.89,8.99,8.99,8.99
29.48,6.54,-2.45,6.55,-2.45,2.45,2.45,2.92,8.99,8.99,9.00
29.78,6.54,-2.47,6.54,-2.47,2.47,2.46,2.96,9.00,9.00,9.01
30.08,6.53,-2.48,6.53,-2.48,2.48,2.47,2.98,9.01,9.01,9.01
30.38,6.52,-2.49,6.52,-2.49,2.50,2.48,3.01,9.02,9.02,9.02
30.68,6.51,-2.51,6.51,-2.51,2.51,2.48,3.03,9.02,9.02,9.02
30.99,6.49,-2.52,6.49,-2.52,2.52,2.49,3.05,9.01,9.01,9.01
31.30,6.47,-2.54,6.47,-2.54,2.54,2.50,3.06,9.00,9.00,9.00
31.61,6.44,-2.55,6.44,-2.55,2.55,2.50,3.07,8.99,8.99,8.99
31.93,6.42,-2.56,6.42,-2.56,2.56,2.51,3.08,8.98,8.98,8.98
32.24,6.40,-2.57,6.40,-2.57,2.57,2.52,3.08,8.97,8.97,8.97
32.57,6.38,-2.58,6.38,-2.58,2.57,2.52,3.08,8.96,8.96,8.96
32.89,6.37,-2.58,6.37,-2.58,2.58,2.53,3.08,8.95,8.95,8.95
33.22,6.36,-2.59,6.36,-2.59,2.59,2.54,3.07,8.95,8.95,8.94
33.55,6.34,-2.60,6.34,-2.60,2.60,2.54,3.06,8.94,8.94,8.94
33.89,6.33,-2.61,6.32,-2.61,2.61,2.55,3.05,8.93,8.93,8.93
34.23,6.30,-2.62,6.30,-2.62,2.62,2.56,3.04,8.92,8.92,8.92
34.57,6.28,-2.63,6.28,-2.63,2.63,2.56,3.02,8.91,8.91,8.91
34.92,6.26,-2.64,6.26,-2.64,2.65,2.57,3.00,8.90,8.90,8.90
35.27,6.23,-2.66,6.23,-2.66,2.66,2.57,2.98,8.90,8.90,8.89
35.62,6.21,-2.68,6.21,-2.68,2.68,2.58,2.96,8.89,8.90,8.89
35.97,6.19,-2.70,6.19,-2.70,2.71,2.58,2.93,8.89,8.89,8.89
36.33,6.16,-2.72,6.16,-2.72,2.73,2.59,2.91,8.89,8.89,8.89
36.70,6.14,-2.75,6.14,-2.75,2.75,2.59,2.88,8.89,8.89,8.89
37.06,6.11,-2.77,6.11,-2.77,2.76,2.60,2.86,8.88,8.88,8.88
37.43,6.09,-2.79,6.09,-2.79,2.77,2.60,2.84,8.86,8.86,8.88
37.81,6.07,-2.79,6.07,-2.79,2.78,2.61,2.81,8.85,8.85,8.87
38.19,6.06,-2.80,6.06,-2.79,2.78,2.61,2.79,8.84,8.84,8.85
38.57,6.05,-2.78,6.05,-2.79,2.78,2.62,2.76,8.83,8.83,8.83
38.95,6.04,-2.77,6.04,-2.77,2.78,2.62,2.74,8.82,8.82,8.81
39.34,6.03,-2.76,6.02,-2.77,2.78,2.63,2.72,8.80,8.80,8.79
39.74,6.01,-2.76,6.01,-2.76,2.78,2.63,2.70,8.79,8.79,8.77
40.14,6.00,-2.77,6.00,-2.77,2.78,2.64,2.68,8.77,8.77,8.76
40.54,5.98,-2.78,5.98,-2.78,2.78,2.64,2.66,8.75,8.75,8.75
40.94,5.96,-2.79,5.96,-2.79,2.78,2.64,2.65,8.74,8.74,8.74
41.35,5.94,-2.79,5.94,-2.79,2.78,2.65,2.63,8.72,8.72,8.73
41.76,5.93,-2.79,5.93,-2.79,2.78,2.65,2.62,8.71,8.71,8.72
42.18,5.91,-2.79,5.91,-2.79,2.78,2.66,2.61,8.70,8.70,8.70
42.60,5.90,-2.79,5.90,-2.78,2.78,2.66,2.60,8.68,8.68,8.68
43.03,5.88,-2.78,5.88,-2.78,2.78,2.66,2.60,8.67,8.67,8.66
43.46,5.86,-2.78,5.86,-2.78,2.79,2.67,2.59,8.65,8.65,8.64
43.90,5.84,-2.78,5.84,-2.78,2.79,2.67,2.59,8.64,8.64,8.62
44.33,5.82,-2.79,5.81,-2.79,2.80,2.68,2.59,8.62,8.62,8.61
44.78,5.79,-2.81,5.79,-2.81,2.82,2.68,2.59,8.60,8.60,8.60
45.23,5.76,-2.83,5.76,-2.83,2.83,2.68,2.59,8.59,8.59,8.59
45.68,5.73,-2.85,5.73,-2.85,2.84,2.69,2.60,8.57,8.57,8.58
46.13,5.70,-2.86,5.70,-2.86,2.85,2.69,2.61,8.55,8.55,8.56
46.60,5.67,-2.87,5.67,-2.87,2.85,2.69,2.61,8.52,8.52,8.54
47.06,5.64,-2.86,5.64,-2.86,2.85,2.70,2.63,8.49,8.49,8.50
47.53,5.62,-2.85,5.62,-2.85,2.85,2.70,2.64,8.46,8.46,8.47
48.01,5.59,-2.84,5.59,-2.84,2.84,2.70,2.65,8.44,8.43,8.43
48.49,5.57,-2.82,5.57,-2.82,2.84,2.71,2.67,8.41,8.41,8.39
48.97,5.54,-2.82,5.54,-2.82,2.84,2.71,2.69,8.38,8.38,8.36
49.46,5.51,-2.82,5.51,-2.82,2.84,2.71,2.71,8.36,8.36,8.33
49.96,5.48,-2.84,5.48,-2.84,2.85,2.72,2.73,8.33,8.33,8.32
50.46,5.45,-2.87,5.45,-2.86,2.86,2.72,2.75,8.31,8.31,8.32
50.96,5.42,-2.89,5.42,-2.88,2.86,2.72,2.77,8.29,8.29,8.31
51.47,5.39,-2.90,5.39,-2.89,2.87,2.72,2.80,8.27,8.27,8.29
51.99,5.36,-2.89,5.36,-2.89,2.88,2.73,2.82,8.24,8.24,8.25
52.51,5.33,-2.87,5.33,-2.88,2.88,2.73,2.85,8.21,8.21,8.21
53.03,5.30,-2.86,5.30,-2.86,2.87,2.73,2.87,8.17,8.17,8.16
53.56,5.27,-2.86,5.27,-2.86,2.86,2.74,2.90,8.13,8.13,8.12
54.10,5.23,-2.85,5.23,-2.85,2.86,2.74,2.92,8.09,8.09,8.09
54.64,5.20,-2.85,5.20,-2.85,2.85,2.74,2.95,8.05,8.05,8.05
55.18,5.17,-2.85,5.17,-2.85,2.85,2.74,2.97,8.01,8.02,8.01
55.74,5.14,-2.84,5.14,-2.85,2.85,2.75,3.00,7.98,7.98,7.98
56.29,5.11,-2.85,5.11,-2.85,2.85,2.75,3.02,7.95,7.95,7.95
56.86,5.08,-2.85,5.08,-2.85,2.85,2.75,3.04,7.93,7.93,7.93
57.42,5.05,-2.86,5.05,-2.86,2.85,2.76,3.06,7.90,7.90,7.91
58.00,5.02,-2.86,5.02,-2.85,2.85,2.76,3.08,7.87,7.87,7.88
58.58,5.00,-2.85,5.00,-2.85,2.85,2.76,3.09,7.85,7.85,7.85
59.16,4.97,-2.85,4.97,-2.85,2.85,2.77,3.10,7.82,7.82,7.82
59.76,4.94,-2.85,4.94,-2.85,2.85,2.77,3.12,7.79,7.79,7.79
60.35,4.91,-2.85,4.91,-2.85,2.86,2.77,3.12,7.77,7.77,7.76
60.96,4.88,-2.86,4.88,-2.86,2.86,2.77,3.13,7.74,7.73,7.73
61.57,4.84,-2.87,4.84,-2.87,2.86,2.78,3.13,7.70,7.70,7.71
62.18,4.80,-2.87,4.80,-2.87,2.87,2.78,3.13,7.67,7.67,7.68
62.80,4.77,-2.88,4.77,-2.88,2.87,2.78,3.13,7.64,7.64,7.64
63.43,4.73,-2.88,4.73,-2.88,2.88,2.79,3.12,7.60,7.60,7.60
64.07,4.69,-2.87,4.69,-2.88,2.88,2.79,3.11,7.57,7.57,7.57
64.71,4.66,-2.88,4.66,-2.88,2.88,2.79,3.10,7.54,7.54,7.53
65.35,4.62,-2.88,4.62,-2.88,2.87,2.79,3.08,7.50,7.50,7.50
66.01,4.59,-2.88,4.59,-2.87,2.87,2.80,3.06,7.46,7.46,7.47
66.67,4.56,-2.87,4.56,-2.87,2.87,2.80,3.04,7.42,7.42,7.43
67.33,4.53,-2.86,4.53,-2.86,2.86,2.80,3.02,7.39,7.39,7.39
68.01,4.50,-2.85,4.50,-2.85,2.86,2.80,3.00,7.35,7.35,7.35
68.69,4.47,-2.85,4.46,-2.85,2.86,2.81,2.97,7.32,7.32,7.31
69.37,4.43,-2.84,4.43,-2.84,2.85,2.81,2.94,7.28,7.28,7.27
70.07,4.40,-2.84,4.39,-2.84,2.85,2.81,2.91,7.25,7.24,7.24
70.77,4.35,-2.85,4.35,-2.85,2.85,2.81,2.88,7.20,7.20,7.20
71.48,4.31,-2.85,4.31,-2.85,2.84,2.82,2.85,7.15,7.15,7.16
72.19,4.27,-2.85,4.27,-2.85,2.83,2.82,2.81,7.11,7.11,7.12
72.91,4.24,-2.84,4.24,-2.83,2.83,2.82,2.78,7.06,7.06,7.07
73.64,4.21,-2.82,4.21,-2.82,2.82,2.82,2.75,7.02,7.02,7.02
74.38,4.17,-2.80,4.17,-2.80,2.81,2.82,2.71,6.98,6.98,6.98
75.12,4.14,-2.79,4.14,-2.79,2.80,2.82,2.68,6.94,6.94,6.93
75.87,4.11,-2.78,4.11,-2.78,2.79,2.83,2.64,6.89,6.89,6.88
76.63,4.07,-2.77,4.07,-2.77,2.78,2.83,2.61,6.84,6.84,6.84
77.40,4.03,-2.77,4.03,-2.77,2.77,2.83,2.58,6.79,6.80,6.80
78.17,3.99,-2.77,3.99,-2.77,2.76,2.83,2.55,6.75,6.75,6.75
78.95,3.95,-2.76,3.95,-2.76,2.76,2.83,2.52,6.70,6.70,6.71
79.74,3.91,-2.75,3.91,-2.75,2.75,2.83,2.49,6.66,6.66,6.66
80.54,3.87,-2.75,3.87,-2.75,2.74,2.82,2.46,6.61,6.61,6.61
81.35,3.83,-2.74,3.83,-2.74,2.73,2.82,2.44,6.56,6.56,6.57
82.16,3.79,-2.72,3.80,-2.72,2.72,2.82,2.41,6.52,6.52,6.52
82.98,3.76,-2.71,3.76,-2.71,2.71,2.82,2.39,6.47,6.47,6.47
83.81,3.72,-2.70,3.72,-2.70,2.70,2.82,2.37,6.43,6.42,6.42
84.65,3.68,-2.69,3.68,-2.69,2.70,2.81,2.35,6.38,6.38,6.37
85.50,3.64,-2.69,3.64,-2.69,2.70,2.81,2.33,6.33,6.33,6.33
86.35,3.59,-2.69,3.59,-2.69,2.70,2.80,2.31,6.29,6.29,6.28
87.22,3.55,-2.70,3.55,-2.70,2.70,2.80,2.30,6.25,6.25,6.24
88.09,3.50,-2.70,3.50,-2.70,2.70,2.79,2.28,6.20,6.20,6.20
88.97,3.46,-2.71,3.46,-2.71,2.70,2.78,2.27,6.16,6.16,6.17
89.86,3.41,-2.71,3.41,-2.71,2.70,2.78,2.26,6.11,6.11,6.13
90.76,3.37,-2.71,3.37,-2.70,2.69,2.77,2.25,6.07,6.07,6.08
91.66,3.33,-2.69,3.33,-2.69,2.68,2.76,2.25,6.01,6.02,6.03
92.58,3.30,-2.67,3.30,-2.67,2.67,2.75,2.24,5.96,5.96,5.97
93.51,3.26,-2.65,3.26,-2.65,2.65,2.74,2.24,5.91,5.91,5.91
94.44,3.23,-2.63,3.22,-2.63,2.64,2.73,2.24,5.86,5.86,5.85
95.39,3.19,-2.61,3.19,-2.61,2.62,2.71,2.24,5.81,5.81,5.80
96.34,3.15,-2.60,3.15,-2.60,2.61,2.70,2.24,5.76,5.76,5.75
97.30,3.11,-2.59,3.11,-2.59,2.60,2.69,2.25,5.71,5.71,5.71
98.28,3.08,-2.59,3.08,-2.59,2.58,2.67,2.25,5.66,5.66,5.66
99.26,3.04,-2.58,3.04,-2.58,2.57,2.66,2.26,5.61,5.61,5.62
100.25,3.00,-2.57,3.00,-2.56,2.55,2.64,2.26,5.56,5.56,5.57
101.25,2.97,-2.54,2.97,-2.54,2.54,2.62,2.27,5.51,5.51,5.51
102.27,2.93,-2.52,2.93,-2.52,2.52,2.60,2.28,5.45,5.45,5.45
103.29,2.89,-2.49,2.89,-2.49,2.50,2.58,2.29,5.39,5.39,5.39
104.32,2.85,-2.47,2.85,-2.47,2.47,2.56,2.30,5.33,5.33,5.32
105.37,2.81,-2.45,2.81,-2.45,2.45,2.54,2.31,5.26,5.26,5.26
106.42,2.78,-2.43,2.78,-2.43,2.43,2.52,2.32,5.20,5.20,5.20
107.48,2.74,-2.40,2.74,-2.40,2.40,2.50,2.33,5.14,5.14,5.14
108.56,2.71,-2.38,2.71,-2.38,2.38,2.48,2.34,5.09,5.09,5.09
109.64,2.67,-2.36,2.67,-2.36,2.36,2.46,2.35,5.03,5.03,5.03
110.74,2.63,-2.34,2.63,-2.34,2.34,2.43,2.36,4.98,4.98,4.97
111.85,2.60,-2.32,2.60,-2.32,2.32,2.41,2.37,4.92,4.91,4.92
112.97,2.56,-2.30,2.56,-2.30,2.30,2.38,2.38,4.85,4.85,4.86
114.10,2.52,-2.28,2.52,-2.28,2.27,2.36,2.39,4.79,4.79,4.80
115.24,2.48,-2.26,2.48,-2.26,2.25,2.33,2.39,4.73,4.73,4.74
116.39,2.45,-2.23,2.45,-2.23,2.23,2.31,2.39,4.68,4.68,4.68
117.55,2.42,-2.20,2.42,-2.21,2.21,2.28,2.39,4.63,4.63,4.63
118.73,2.39,-2.19,2.39,-2.19,2.19,2.26,2.40,4.58,4.58,4.57
119.92,2.35,-2.17,2.35,-2.17,2.18,2.23,2.39,4.53,4.52,4.52
121.12,2.31,-2.16,2.31,-2.16,2.16,2.20,2.39,4.47,4.46,4.47
122.33,2.26,-2.15,2.26,-2.15,2.14,2.17,2.38,4.40,4.40,4.41
123.55,2.21,-2.13,2.21,-2.13,2.12,2.15,2.37,4.34,4.34,4.35
124.79,2.17,-2.11,2.17,-2.11,2.11,2.12,2.36,4.28,4.28,4.28
126.03,2.12,-2.09,2.12,-2.09,2.09,2.09,2.34,4.21,4.21,4.21
127.29,2.08,-2.07,2.08,-2.07,2.08,2.06,2.33,4.15,4.15,4.15
128.57,2.03,-2.05,2.03,-2.05,2.06,2.04,2.31,4.09,4.09,4.09
129.85,1.99,-2.04,1.99,-2.04,2.05,2.01,2.28,4.03,4.03,4.03
131.15,1.95,-2.03,1.95,-2.03,2.03,1.98,2.26,3.98,3.98,3.97
132.46,1.91,-2.02,1.91,-2.02,2.01,1.95,2.23,3.92,3.92,3.92
133.79,1.87,-2.00,1.87,-2.00,2.00,1.92,2.20,3.87,3.87,3.87
135.12,1.83,-1.99,1.83,-1.99,1.98,1.89,2.17,3.81,3.81,3.81
136.48,1.79,-1.97,1.79,-1.97,1.96,1.87,2.14,3.75,3.75,3.75
137.84,1.75,-1.94,1.75,-1.94,1.94,1.84,2.10,3.69,3.69,3.69
139.22,1.72,-1.92,1.72,-1.92,1.91,1.81,2.07,3.63,3.63,3.63
140.61,1.68,-1.89,1.68,-1.89,1.88,1.78,2.03,3.57,3.57,3.57
142.02,1.65,-1.86,1.65,-1.86,1.85,1.75,1.99,3.50,3.50,3.50
143.44,1.62,-1.82,1.62,-1.82,1.82,1.72,1.95,3.44,3.44,3.44
144.87,1.59,-1.78,1.59,-1.78,1.78,1.70,1.91,3.38,3.38,3.37
146.32,1.57,-1.75,1.57,-1.75,1.75,1.67,1.86,3.32,3.32,3.31
147.78,1.55,-1.71,1.55,-1.71,1.71,1.64,1.82,3.26,3.26,3.26
149.26,1.53,-1.67,1.53,-1.67,1.68,1.61,1.78,3.21,3.21,3.20
150.75,1.51,-1.64,1.51,-1.64,1.65,1.59,1.74,3.15,3.15,3.15
152.26,1.49,-1.61,1.49,-1.61,1.62,1.56,1.69,3.10,3.10,3.10
153.78,1.47,-1.59,1.47,-1.59,1.59,1.53,1.65,3.06,3.06,3.06
155.32,1.45,-1.56,1.45,-1.56,1.56,1.50,1.61,3.01,3.01,3.01
156.88,1.43,-1.54,1.43,-1.54,1.54,1.48,1.57,2.96,2.96,2.96
158.44,1.40,-1.51,1.40,-1.51,1.51,1.45,1.52,2.91,2.91,2.91
160.03,1.37,-1.49,1.37,-1.49,1.49,1.42,1.48,2.86,2.86,2.86
161.63,1.35,-1.46,1.35,-1.47,1.47,1.40,1.44,2.82,2.82,2.81
163.24,1.32,-1.45,1.32,-1.45,1.45,1.37,1.40,2.77,2.77,2.76
164.88,1.29,-1.43,1.29,-1.43,1.43,1.34,1.36,2.72,2.72,2.72
166.53,1.26,-1.41,1.26,-1.41,1.41,1.31,1.32,2.67,2.67,2.67
168.19,1.23,-1.39,1.22,-1.39,1.39,1.29,1.29,2.62,2.62,2.62
169.87,1.19,-1.37,1.19,-1.37,1.37,1.26,1.25,2.56,2.56,2.56
171.57,1.16,-1.35,1.16,-1.35,1.35,1.24,1.21,2.51,2.51,2.51
173.29,1.13,-1.33,1.13,-1.33,1.33,1.21,1.18,2.46,2.46,2.45
175.02,1.09,-1.31,1.09,-1.31,1.31,1.18,1.14,2.40,2.40,2.40
176.77,1.06,-1.29,1.06,-1.29,1.29,1.16,1.11,2.35,2.35,2.35
178.54,1.03,-1.26,1.03,-1.26,1.26,1.13,1.07,2.29,2.29,2.29
180.32,0.99,-1.24,0.99,-1.24,1.24,1.11,1.04,2.23,2.23,2.23
182.13,0.96,-1.21,0.96,-1.21,1.21,1.08,1.01,2.17,2.17,2.17
183.95,0.93,-1.18,0.93,-1.18,1.18,1.05,0.98,2.11,2.11,2.11
185.79,0.90,-1.15,0.90,-1.15,1.16,1.03,0.95,2.05,2.05,2.05
187.65,0.87,-1.12,0.87,-1.12,1.13,1.00,0.92,1.99,1.99,1.99
189.52,0.83,-1.10,0.83,-1.10,1.10,0.98,0.90,1.93,1.93,1.93
191.42,0.80,-1.07,0.80,-1.07,1.06,0.95,0.87,1.87,1.87,1.87
193.33,0.77,-1.04,0.77,-1.04,1.03,0.93,0.84,1.81,1.81,1.81
195.27,0.74,-1.00,0.74,-1.00,1.00,0.90,0.82,1.74,1.74,1.75
197.22,0.72,-0.97,0.72,-0.97,0.97,0.88,0.79,1.68,1.68,1.68
199.19,0.69,-0.93,0.69,-0.93,0.93,0.85,0.77,1.62,1.62,1.62
201.18,0.66,-0.90,0.66,-0.90,0.90,0.83,0.74,1.56,1.56,1.56
203.19,0.63,-0.87,0.63,-0.87,0.87,0.80,0.72,1.50,1.50,1.50
205.23,0.61,-0.84,0.61,-0.84,0.84,0.78,0.70,1.44,1.44,1.44
207.28,0.58,-0.81,0.58,-0.81,0.81,0.75,0.67,1.39,1.39,1.39
209.35,0.55,-0.78,0.55,-0.78,0.78,0.73,0.65,1.33,1.33,1.33
211.44,0.52,-0.75,0.52,-0.75,0.75,0.70,0.63,1.27,1.27,1.27
213.56,0.49,-0.72,0.49,-0.72,0.72,0.68,0.61,1.21,1.21,1.21
215.69,0.46,-0.69,0.46,-0.69,0.69,0.65,0.59,1.15,1.15,1.15
217.85,0.43,-0.66,0.43,-0.66,0.66,0.63,0.57,1.09,1.09,1.10
220.03,0.40,-0.63,0.40,-0.63,0.63,0.60,0.55,1.03,1.03,1.04
222.23,0.37,-0.60,0.37,-0.60,0.60,0.58,0.53,0.97,0.97,0.97
224.45,0.34,-0.57,0.34,-0.57,0.57,0.55,0.51,0.91,0.91,0.91
226.70,0.31,-0.54,0.31,-0.54,0.54,0.53,0.49,0.85,0.85,0.85
228.96,0.28,-0.51,0.28,-0.51,0.51,0.50,0.47,0.79,0.79,0.79
231.25,0.25,-0.48,0.25,-0.48,0.48,0.48,0.45,0.73,0.73,0.73
233.57,0.22,-0.45,0.22,-0.45,0.45,0.45,0.43,0.67,0.67,0.67
235.90,0.19,-0.42,0.19,-0.42,0.42,0.43,0.41,0.61,0.61,0.61
238.26,0.16,-0.39,0.16,-0.39,0.39,0.40,0.39,0.55,0.55,0.55
240.64,0.14,-0.35,0.14,-0.35,0.35,0.38,0.37,0.49,0.49,0.49
243.05,0.11,-0.32,0.11,-0.32,0.32,0.35,0.35,0.43,0.43,0.43
245.48,0.08,-0.29,0.08,-0.29,0.29,0.33,0.33,0.37,0.37,0.37
247.93,0.06,-0.26,0.06,-0.26,0.26,0.30,0.31,0.31,0.31,0.31
250.41,0.03,-0.22,0.03,-0.22,0.23,0.27,0.28,0.26,0.26,0.26
252.92,0.00,-0.19,0.00,-0.19,0.20,0.25,0.26,0.20,0.20,0.20
255.45,-0.02,-0.17,-0.02,-0.17,0.17,0.22,0.24,0.14,0.14,0.14
258.00,-0.05,-0.14,-0.05,-0.14,0.14,0.20,0.22,0.09,0.09,0.09
260.58,-0.08,-0.11,-0.08,-0.11,0.11,0.17,0.20,0.04,0.04,0.04
263.19,-0.11,-0.09,-0.11,-0.09,0.09,0.14,0.17,-0.02,-0.02,-0.02
265.82,-0.13,-0.07,-0.13,-0.07,0.07,0.12,0.15,-0.07,-0.07,-0.07
268.48,-0.16,-0.04,-0.16,-0.04,0.04,0.09,0.13,-0.12,-0.12,-0.12
271.16,-0.19,-0.02,-0.19,-0.02,0.02,0.06,0.10,-0.17,-0.17,-0.17
273.87,-0.21,0.00,-0.21,0.00,-0.01,0.03,0.08,-0.22,-0.22,-0.22
276.61,-0.24,0.03,-0.24,0.03,-0.03,0.01,0.05,-0.27,-0.27,-0.27
279.38,-0.27,0.05,-0.27,0.05,-0.05,-0.02,0.03,-0.32,-0.32,-0.32
282.17,-0.29,0.08,-0.29,0.08,-0.08,-0.05,-0.00,-0.37,-0.37,-0.37
284.99,-0.32,0.10,-0.32,0.10,-0.10,-0.08,-0.03,-0.42,-0.42,-0.42
287.84,-0.35,0.13,-0.35,0.13,-0.13,-0.11,-0.05,-0.48,-0.48,-0.48
290.72,-0.38,0.15,-0.38,0.15,-0.15,-0.14,-0.08,-0.53,-0.53,-0.53
293.63,-0.40,0.18,-0.40,0.18,-0.18,-0.17,-0.11,-0.58,-0.58,-0.59
296.57,-0.43,0.21,-0.43,0.21,-0.21,-0.20,-0.14,-0.64,-0.64,-0.64
299.53,-0.46,0.23,-0.46,0.23,-0.23,-0.23,-0.16,-0.69,-0.69,-0.70
302.53,-0.50,0.25,-0.50,0.26,-0.25,-0.26,-0.19,-0.75,-0.75,-0.75
305.55,-0.53,0.28,-0.53,0.28,-0.28,-0.29,-0.22,-0.80,-0.80,-0.81
308.61,-0.56,0.30,-0.56,0.30,-0.30,-0.32,-0.25,-0.86,-0.86,-0.86
311.69,-0.59,0.33,-0.59,0.33,-0.32,-0.35,-0.28,-0.91,-0.91,-0.91
314.81,-0.61,0.35,-0.61,0.35,-0.35,-0.39,-0.31,-0.96,-0.96,-0.96
317.96,-0.64,0.38,-0.64,0.38,-0.38,-0.42,-0.34,-1.01,-1.01,-1.01
321.14,-0.65,0.41,-0.65,0.41,-0.41,-0.45,-0.37,-1.07,-1.07,-1.06
324.35,-0.66,0.44,-0.66,0.44,-0.45,-0.49,-0.41,-1.12,-1.12,-1.11
327.59,-0.66,0.49,-0.66,0.49,-0.50,-0.52,-0.44,-1.16,-1.16,-1.15
330.87,-0.65,0.54,-0.65,0.54,-0.56,-0.56,-0.47,-1.21,-1.21,-1.19
334.18,-0.63,0.61,-0.63,0.61,-0.62,-0.59,-0.50,-1.25,-1.24,-1.24
337.52,-0.60,0.68,-0.60,0.68,-0.68,-0.63,-0.54,-1.28,-1.28,-1.28
340.90,-0.57,0.75,-0.57,0.75,-0.75,-0.66,-0.57,-1.32,-1.32,-1.32
344.30,-0.55,0.82,-0.55,0.82,-0.81,-0.70,-0.61,-1.36,-1.36,-1.37
347.75,-0.53,0.88,-0.53,0.88,-0.87,-0.74,-0.64,-1.40,-1.40,-1.41
351.23,-0.53,0.94,-0.53,0.94,-0.93,-0.77,-0.68,-1.45,-1.45,-1.46
354.74,-0.53,0.98,-0.53,0.98,-0.97,-0.81,-0.72,-1.50,-1.50,-1.51
358.28,-0.54,1.02,-0.54,1.02,-1.01,-0.85,-0.75,-1.55,-1.55,-1.56
361.87,-0.56,1.05,-0.56,1.05,-1.05,-0.89,-0.79,-1.60,-1.60,-1.61
365.49,-0.58,1.08,-0.58,1.08,-1.08,-0.93,-0.83,-1.65,-1.65,-1.65
369.14,-0.60,1.10,-0.60,1.10,-1.10,-0.96,-0.87,-1.70,-1.70,-1.70
372.83,-0.62,1.12,-0.62,1.12,-1.12,-1.00,-0.91,-1.75,-1.75,-1.75
376.56,-0.65,1.14,-0.65,1.14,-1.15,-1.04,-0.95,-1.80,-1.80,-1.79
380.33,-0.67,1.16,-0.67,1.16,-1.17,-1.08,-0.99,-1.84,-1.84,-1.84
384.13,-0.70,1.19,-0.70,1.19,-1.19,-1.11,-1.03,-1.89,-1.88,-1.88
387.97,-0.72,1.21,-0.72,1.21,-1.21,-1.15,-1.07,-1.93,-1.93,-1.93
391.85,-0.74,1.23,-0.74,1.23,-1.23,-1.19,-1.11,-1.97,-1.97,-1.97
395.77,-0.77,1.25,-0.77,1.25,-1.25,-1.22,-1.15,-2.02,-2.02,-2.02
399.73,-0.79,1.27,-0.79,1.27,-1.27,-1.25,-1.19,-2.06,-2.06,-2.06
403.72,-0.81,1.30,-0.81,1.30,-1.29,-1.29,-1.24,-2.10,-2.10,-2.10
407.76,-0.83,1.32,-0.83,1.32,-1.32,-1.32,-1.28,-2.15,-2.15,-2.15
411.84,-0.85,1.34,-0.85,1.34,-1.34,-1.35,-1.32,-2.19,-2.19,-2.19
415.96,-0.87,1.36,-0.87,1.36,-1.36,-1.38,-1.36,-2.23,-2.23,-2.23
420.12,-0.89,1.38,-0.89,1.38,-1.38,-1.41,-1.41,-2.27,-2.27,-2.27
424.32,-0.91,1.40,-0.91,1.40,-1.40,-1.43,-1.45,-2.31,-2.31,-2.31
428.56,-0.93,1.42,-0.93,1.42,-1.42,-1.46,-1.49,-2.35,-2.35,-2.35
432.85,-0.95,1.44,-0.95,1.44,-1.44,-1.48,-1.53,-2.40,-2.40,-2.39
437.18,-0.97,1.46,-0.97,1.46,-1.46,-1.50,-1.57,-2.43,-2.43,-2.43
441.55,-0.99,1.49,-0.99,1.49,-1.49,-1.52,-1.61,-2.47,-2.47,-2.47
445.96,-1.01,1.51,-1.01,1.51,-1.51,-1.54,-1.65,-2.51,-2.51,-2.51
450.42,-1.02,1.53,-1.02,1.53,-1.53,-1.56,-1.68,-2.55,-2.55,-2.55
454.93,-1.04,1.55,-1.04,1.55,-1.55,-1.58,-1.72,-2.59,-2.59,-2.59
459.48,-1.06,1.56,-1.06,1.56,-1.57,-1.60,-1.75,-2.62,-2.62,-2.62
464.07,-1.08,1.58,-1.08,1.58,-1.58,-1.61,-1.79,-2.66,-2.66,-2.66
468.71,-1.09,1.60,-1.09,1.60,-1.60,-1.63,-1.82,-2.70,-2.70,-2.70
473.40,-1.11,1.62,-1.11,1.62,-1.62,-1.64,-1.84,-2.73,-2.73,-2.73
478.13,-1.13,1.64,-1.13,1.64,-1.64,-1.65,-1.87,-2.76,-2.76,-2.76
482.91,-1.14,1.66,-1.14,1.66,-1.65,-1.67,-1.90,-2.80,-2.80,-2.80
487.74,-1.16,1.67,-1.16,1.67,-1.67,-1.68,-1.92,-2.83,-2.83,-2.83
492.62,-1.18,1.69,-1.18,1.69,-1.69,-1.69,-1.94,-2.86,-2.86,-2.86
497.55,-1.19,1.70,-1.19,1.70,-1.70,-1.70,-1.96,-2.89,-2.89,-2.89
502.52,-1.21,1.72,-1.21,1.72,-1.72,-1.72,-1.97,-2.92,-2.93,-2.92
507.55,-1.22,1.73,-1.22,1.73,-1.73,-1.73,-1.99,-2.96,-2.96,-2.96
512.62,-1.24,1.75,-1.24,1.75,-1.75,-1.74,-2.00,-2.99,-2.99,-2.99
517.75,-1.25,1.76,-1.25,1.76,-1.76,-1.76,-2.01,-3.01,-3.01,-3.01
522.93,-1.26,1.78,-1.26,1.78,-1.78,-1.77,-2.01,-3.04,-3.04,-3.04
528.16,-1.28,1.79,-1.28,1.79,-1.79,-1.78,-2.02,-3.07,-3.07,-3.07
533.44,-1.29,1.81,-1.29,1.81,-1.81,-1.80,-2.02,-3.10,-3.10,-3.10
538.77,-1.30,1.83,-1.30,1.83,-1.83,-1.81,-2.02,-3.13,-3.13,-3.13
