frequency,raw,error,smoothed,error_smoothed,equalization,parametric_eq,fixed_band_eq,equalized_raw,equalized_smoothed,target
20.00,19.43,5.24,19.42,5.24,-5.25,-5.15,-2.09,14.17,14.17,14.18
20.20,19.44,5.23,19.44,5.23,-5.23,-5.14,-2.15,14.20,14.21,14.21
20.40,19.45,5.22,19.46,5.22,-5.22,-5.14,-2.22,14.24,14.24,14.24
20.61,19.47,5.21,19.47,5.21,-5.20,-5.14,-2.28,14.27,14.27,14.27
20.81,19.49,5.19,19.49,5.19,-5.18,-5.14,-2.35,14.30,14.30,14.30
21.02,19.50,5.18,19.50,5.18,-5.17,-5.13,-2.41,14.33,14.33,14.33
21.23,19.51,5.16,19.51,5.16,-5.15,-5.13,-2.48,14.36,14.36,14.36
21.44,19.52,5.14,19.52,5.14,-5.14,-5.12,-2.56,14.38,14.38,14.38
21.66,19.52,5.12,19.52,5.12,-5.12,-5.12,-2.63,14.40,14.40,14.40
21.87,19.52,5.10,19.52,5.10,-5.10,-5.11,-2.71,14.42,14.42,14.43
22.09,19.52,5.08,19.52,5.08,-5.09,-5.10,-2.78,14.44,14.44,14.44
22.31,19.52,5.07,19.52,5.07,-5.08,-5.09,-2.87,14.45,14.45,14.45
22.54,19.52,5.06,19.52,5.06,-5.07,-5.08,-2.95,14.45,14.45,14.46
22.76,19.52,5.06,19.52,5.06,-5.06,-5.07,-3.03,14.46,14.46,14.46
22.99,19.52,5.05,19.52,5.05,-5.06,-5.06,-3.12,14.46,14.46,14.46
23.22,19.51,5.05,19.51,5.05,-5.05,-5.05,-3.21,14.46,14.46,14.46
23.45,19.51,5.05,19.51,5.05,-5.05,-5.03,-3.30,14.45,14.45,14.45
23.69,19.50,5.05,19.50,5.05,-5.05,-5.02,-3.39,14.45,14.45,14.45
23.92,19.49,5.04,19.49,5.04,-5.04,-5.00,-3.49,14.45,14.45,14.44
24.16,19.48,5.03,19.48,5.03,-5.03,-4.98,-3.58,14.44,14.44,14.44
24.40,19.46,5.02,19.46,5.02,-5.01,-4.96,-3.68,14.45,14.45,14.44
24.65,19.44,5.00,19.44,5.00,-4.99,-4.94,-3.78,14.45,14.45,14.44
24.89,19.42,4.97,19.42,4.97,-4.96,-4.92,-3.88,14.46,14.46,14.45
25.14,19.40,4.93,19.40,4.93,-4.93,-4.90,-3.98,14.47,14.47,14.47
25.39,19.37,4.89,19.37,4.89,-4.89,-4.88,-4.08,14.49,14.49,14.48
25.65,19.35,4.84,19.35,4.84,-4.84,-4.85,-4.18,14.50,14.50,14.50
25.91,19.32,4.79,19.32,4.79,-4.80,-4.82,-4.29,14.52,14.52,14.52
26.16,19.29,4.74,19.29,4.74,-4.75,-4.79,-4.39,14.54,14.54,14.54
26.43,19.26,4.70,19.26,4.70,-4.71,-4.76,-4.49,14.55,14.55,14.56
26.69,19.23,4.66,19.23,4.66,-4.67,-4.72,-4.59,14.56,14.56,14.57
26.96,19.20,4.62,19.20,4.62,-4.63,-4.69,-4.69,14.58,14.58,14.58
27.23,19.18,4.59,19.18,4.59,-4.59,-4.65,-4.79,14.59,14.59,14.59
27.50,19.15,4.56,19.15,4.56,-4.56,-4.61,-4.88,14.59,14.59,14.59
27.77,19.13,4.53,19.13,4.53,-4.53,-4.57,-4.97,14.60,14.60,14.60
28.05,19.11,4.50,19.11,4.50,-4.50,-4.53,-5.06,14.61,14.61,14.60
28.33,19.08,4.47,19.08,4.47,-4.47,-4.49,-5.14,14.62,14.62,14.61
28.62,19.06,4.44,19.06,4.44,-4.44,-4.44,-5.22,14.63,14.63,14.62
28.90,19.04,4.41,19.04,4.41,-4.40,-4.40,-5.29,14.64,14.64,14.63
29.19,19.02,4.37,19.02,4.37,-4.37,-4.35,-5.36,14.64,14.64,14.64
29.48,19.00,4.34,19.00,4.34,-4.34,-4.31,-5.42,14.65,14.65,14.65
29.78,18.97,4.31,18.97,4.31,-4.31,-4.27,-5.48,14.66,14.66,14.66
30.08,18.95,4.29,18.95,4.29,-4.29,-4.23,-5.53,14.67,14.67,14.67
30.38,18.93,4.26,18.93,4.26,-4.27,-4.19,-5.57,14.67,14.67,14.67
30.68,18.91,4.24,18.91,4.24,-4.25,-4.16,-5.60,14.67,14.67,14.67
30.99,18.90,4.23,18.90,4.23,-4.23,-4.13,-5.62,14.66,14.66,14.67
31.30,18.88,4.22,18.88,4.22,-4.22,-4.11,-5.64,14.66,14.66,14.66
31.61,18.86,4.22,18.86,4.22,-4.22,-4.10,-5.64,14.65,14.65,14.65
31.93,18.85,4.21,18.85,4.21,-4.21,-4.09,-5.64,14.64,14.64,14.64
32.24,18.84,4.21,18.84,4.21,-4.21,-4.09,-5.63,14.63,14.63,14.62
32.57,18.82,4.21,18.82,4.21,-4.20,-4.09,-5.62,14.62,14.62,14.61
32.89,18.81,4.20,18.81,4.20,-4.20,-4.09,-5.59,14.61,14.61,14.61
33.22,18.80,4.20,18.80,4.20,-4.20,-4.10,-5.56,14.60,14.60,14.60
33.55,18.79,4.19,18.79,4.19,-4.20,-4.12,-5.52,14.59,14.59,14.59
33.89,18.78,4.19,18.78,4.19,-4.19,-4.13,-5.48,14.58,14.58,14.59
34.23,18.77,4.19,18.77,4.19,-4.19,-4.14,-5.43,14.57,14.57,14.58
34.57,18.75,4.19,18.75,4.19,-4.19,-4.16,-5.38,14.57,14.57,14.57
34.92,18.74,4.19,18.74,4.19,-4.18,-4.17,-5.32,14.56,14.56,14.56
35.27,18.73,4.18,18.73,4.18,-4.18,-4.19,-5.26,14.56,14.56,14.55
35.62,18.72,4.18,18.72,4.18,-4.17,-4.20,-5.19,14.55,14.55,14.55
35.97,18.71,4.17,18.71,4.17,-4.16,-4.21,-5.12,14.55,14.55,14.54
36.33,18.70,4.16,18.70,4.16,-4.16,-4.22,-5.05,14.54,14.54,14.54
36.70,18.69,4.15,18.69,4.15,-4.15,-4.23,-4.98,14.54,14.54,14.54
37.06,18.67,4.14,18.67,4.14,-4.14,-4.23,-4.91,14.53,14.53,14.54
37.43,18.66,4.13,18.66,4.13,-4.14,-4.24,-4.84,14.52,14.53,14.53
37.81,18.65,4.13,18.65,4.13,-4.14,-4.24,-4.76,14.51,14.51,14.52
38.19,18.64,4.13,18.64,4.13,-4.14,-4.24,-4.69,14.50,14.50,14.51
38.57,18.62,4.14,18.62,4.14,-4.14,-4.24,-4.62,14.48,14.49,14.49
38.95,18.61,4.15,18.61,4.15,-4.14,-4.24,-4.55,14.47,14.47,14.47
39.34,18.60,4.15,18.60,4.15,-4.14,-4.24,-4.48,14.45,14.45,14.45
39.74,18.58,4.15,18.58,4.15,-4.15,-4.23,-4.41,14.44,14.44,14.43
40.14,18.57,4.15,18.57,4.15,-4.15,-4.23,-4.35,14.42,14.42,14.42
40.54,18.56,4.15,18.56,4.15,-4.15,-4.22,-4.28,14.41,14.41,14.41
40.94,18.54,4.14,18.54,4.14,-4.14,-4.21,-4.22,14.40,14.40,14.40
41.35,18.52,4.14,18.52,4.14,-4.14,-4.20,-4.16,14.38,14.38,14.39
41.76,18.51,4.13,18.51,4.13,-4.14,-4.19,-4.11,14.37,14.37,14.38
42.18,18.49,4.13,18.49,4.13,-4.14,-4.18,-4.05,14.35,14.35,14.36
42.60,18.47,4.13,18.47,4.13,-4.13,-4.17,-4.00,14.34,14.34,14.34
43.03,18.45,4.13,18.45,4.13,-4.13,-4.16,-3.95,14.32,14.32,14.32
43.46,18.42,4.13,18.42,4.13,-4.12,-4.15,-3.91,14.30,14.30,14.30
43.90,18.40,4.12,18.40,4.12,-4.11,-4.14,-3.87,14.29,14.29,14.28
44.33,18.37,4.11,18.37,4.11,-4.10,-4.12,-3.83,14.27,14.27,14.26
44.78,18.35,4.09,18.35,4.09,-4.09,-4.11,-3.79,14.26,14.26,14.25
45.23,18.32,4.07,18.32,4.07,-4.08,-4.09,-3.76,14.24,14.24,14.25
45.68,18.29,4.06,18.29,4.06,-4.06,-4.08,-3.73,14.23,14.23,14.23
46.13,18.26,4.04,18.26,4.04,-4.05,-4.06,-3.70,14.21,14.21,14.22
46.60,18.23,4.04,18.23,4.04,-4.05,-4.05,-3.67,14.18,14.18,14.19
47.06,18.19,4.03,18.19,4.03,-4.04,-4.03,-3.65,14.15,14.15,14.16
47.53,18.16,4.03,18.16,4.03,-4.04,-4.01,-3.63,14.12,14.12,14.13
48.01,18.12,4.04,18.12,4.04,-4.04,-4.00,-3.61,14.09,14.09,14.09
48.49,18.09,4.04,18.09,4.04,-4.03,-3.98,-3.60,14.06,14.06,14.05
48.97,18.05,4.04,18.05,4.04,-4.02,-3.97,-3.59,14.03,14.03,14.01
49.46,18.01,4.03,18.01,4.02,-4.00,-3.95,-3.58,14.01,14.01,13.99
49.96,17.98,4.00,17.98,4.00,-3.99,-3.93,-3.57,13.99,13.99,13.98
50.46,17.94,3.96,17.94,3.96,-3.97,-3.91,-3.56,13.97,13.97,13.97
50.96,17.89,3.93,17.89,3.93,-3.95,-3.90,-3.56,13.95,13.95,13.97
51.47,17.85,3.91,17.85,3.91,-3.93,-3.88,-3.56,13.92,13.92,13.95
51.99,17.81,3.90,17.81,3.90,-3.91,-3.86,-3.56,13.89,13.89,13.91
52.51,17.76,3.90,17.76,3.90,-3.90,-3.85,-3.56,13.86,13.86,13.86
53.03,17.72,3.90,17.72,3.90,-3.89,-3.83,-3.56,13.83,13.83,13.82
53.56,17.67,3.89,17.67,3.89,-3.88,-3.81,-3.57,13.79,13.79,13.78
54.10,17.62,3.88,17.62,3.88,-3.87,-3.79,-3.57,13.75,13.75,13.74
54.64,17.57,3.86,17.57,3.86,-3.86,-3.78,-3.58,13.71,13.71,13.70
55.18,17.52,3.85,17.52,3.85,-3.84,-3.76,-3.58,13.67,13.67,13.67
55.74,17.47,3.83,17.47,3.83,-3.82,-3.74,-3.59,13.64,13.64,13.64
56.29,17.41,3.80,17.41,3.80,-3.80,-3.73,-3.59,13.61,13.61,13.61
56.86,17.36,3.78,17.36,3.78,-3.78,-3.71,-3.60,13.58,13.58,13.59
57.42,17.31,3.75,17.31,3.75,-3.75,-3.69,-3.60,13.56,13.56,13.56
58.00,17.26,3.72,17.26,3.72,-3.73,-3.68,-3.60,13.53,13.53,13.54
58.58,17.21,3.70,17.21,3.70,-3.70,-3.66,-3.61,13.50,13.50,13.50
59.16,17.15,3.68,17.15,3.68,-3.68,-3.64,-3.61,13.47,13.47,13.47
59.76,17.10,3.66,17.10,3.66,-3.65,-3.63,-3.61,13.45,13.45,13.44
60.35,17.05,3.63,17.05,3.63,-3.63,-3.61,-3.61,13.42,13.42,13.41
60.96,17.00,3.61,17.00,3.61,-3.61,-3.60,-3.60,13.39,13.39,13.39
61.57,16.94,3.58,16.94,3.58,-3.58,-3.58,-3.60,13.36,13.36,13.36
62.18,16.89,3.56,16.89,3.56,-3.56,-3.57,-3.59,13.33,13.33,13.33
62.80,16.83,3.54,16.83,3.54,-3.54,-3.55,-3.58,13.29,13.29,13.30
63.43,16.78,3.52,16.78,3.52,-3.52,-3.54,-3.57,13.26,13.26,13.26
64.07,16.73,3.51,16.73,3.50,-3.50,-3.52,-3.56,13.23,13.23,13.22
64.71,16.68,3.49,16.68,3.49,-3.48,-3.51,-3.55,13.19,13.19,13.19
65.35,16.63,3.47,16.63,3.47,-3.47,-3.50,-3.53,13.16,13.16,13.16
66.01,16.57,3.45,16.57,3.45,-3.45,-3.48,-3.52,13.12,13.12,13.12
66.67,16.52,3.44,16.52,3.44,-3.44,-3.47,-3.50,13.08,13.08,13.08
67.33,16.47,3.42,16.47,3.42,-3.42,-3.46,-3.48,13.04,13.04,13.04
68.01,16.42,3.41,16.42,3.41,-3.41,-3.44,-3.46,13.01,13.01,13.01
68.69,16.36,3.40,16.36,3.40,-3.39,-3.43,-3.44,12.97,12.97,12.97
69.37,16.31,3.38,16.31,3.38,-3.38,-3.42,-3.42,12.93,12.93,12.93
70.07,16.26,3.37,16.26,3.36,-3.36,-3.41,-3.39,12.90,12.90,12.89
70.77,16.20,3.35,16.20,3.35,-3.35,-3.40,-3.37,12.86,12.86,12.86
71.48,16.15,3.33,16.15,3.33,-3.34,-3.38,-3.35,12.81,12.81,12.82
72.19,16.10,3.32,16.10,3.32,-3.33,-3.37,-3.32,12.77,12.77,12.78
72.91,16.04,3.31,16.04,3.31,-3.32,-3.36,-3.30,12.72,12.72,12.73
73.64,15.99,3.31,15.99,3.31,-3.31,-3.35,-3.28,12.68,12.68,12.68
74.38,15.94,3.31,15.94,3.31,-3.31,-3.34,-3.26,12.63,12.63,12.63
75.12,15.89,3.31,15.89,3.31,-3.30,-3.33,-3.24,12.59,12.59,12.58
75.87,15.84,3.31,15.84,3.31,-3.30,-3.33,-3.22,12.54,12.54,12.54
76.63,15.80,3.30,15.80,3.30,-3.30,-3.32,-3.20,12.50,12.50,12.49
77.40,15.75,3.30,15.75,3.30,-3.29,-3.31,-3.18,12.45,12.45,12.45
78.17,15.70,3.29,15.70,3.29,-3.29,-3.30,-3.17,12.41,12.41,12.41
78.95,15.65,3.29,15.65,3.29,-3.29,-3.29,-3.16,12.36,12.36,12.36
79.74,15.60,3.28,15.60,3.28,-3.29,-3.29,-3.14,12.31,12.31,12.32
80.54,15.55,3.28,15.55,3.28,-3.28,-3.28,-3.13,12.27,12.27,12.27
81.35,15.50,3.28,15.50,3.28,-3.28,-3.27,-3.12,12.22,12.22,12.22
82.16,15.45,3.28,15.45,3.28,-3.28,-3.27,-3.12,12.17,12.17,12.17
82.98,15.41,3.28,15.41,3.28,-3.28,-3.26,-3.11,12.12,12.12,12.12
83.81,15.36,3.29,15.36,3.29,-3.28,-3.26,-3.11,12.08,12.08,12.07
84.65,15.31,3.29,15.31,3.29,-3.28,-3.25,-3.11,12.03,12.03,12.03
85.50,15.26,3.28,15.26,3.28,-3.28,-3.25,-3.12,11.99,11.99,11.98
86.35,15.22,3.28,15.21,3.28,-3.27,-3.24,-3.12,11.95,11.95,11.94
87.22,15.16,3.26,15.16,3.27,-3.26,-3.24,-3.13,11.90,11.90,11.90
88.09,15.11,3.25,15.11,3.25,-3.25,-3.24,-3.14,11.86,11.86,11.86
88.97,15.06,3.24,15.06,3.24,-3.24,-3.24,-3.15,11.82,11.82,11.82
89.86,15.01,3.23,15.01,3.23,-3.24,-3.23,-3.17,11.77,11.77,11.78
90.76,14.96,3.23,14.96,3.23,-3.24,-3.23,-3.18,11.72,11.72,11.73
91.66,14.91,3.23,14.91,3.23,-3.24,-3.23,-3.20,11.67,11.67,11.68
92.58,14.86,3.24,14.86,3.24,-3.24,-3.23,-3.22,11.62,11.62,11.62
93.51,14.81,3.25,14.81,3.25,-3.24,-3.23,-3.25,11.57,11.57,11.56
94.44,14.76,3.25,14.76,3.25,-3.25,-3.23,-3.27,11.52,11.52,11.51
95.39,14.72,3.26,14.72,3.26,-3.25,-3.23,-3.30,11.47,11.47,11.46
96.34,14.67,3.26,14.67,3.26,-3.25,-3.23,-3.33,11.42,11.42,11.41
97.30,14.62,3.26,14.62,3.26,-3.25,-3.23,-3.36,11.37,11.37,11.36
98.28,14.57,3.25,14.57,3.25,-3.25,-3.23,-3.40,11.32,11.32,11.32
99.26,14.52,3.24,14.52,3.25,-3.25,-3.23,-3.43,11.27,11.27,11.28
100.25,14.47,3.24,14.47,3.25,-3.26,-3.24,-3.47,11.22,11.22,11.23
101.25,14.42,3.25,14.42,3.25,-3.26,-3.24,-3.51,11.16,11.16,11.17
102.27,14.37,3.26,14.37,3.26,-3.27,-3.24,-3.55,11.10,11.10,11.11
103.29,14.32,3.28,14.32,3.27,-3.27,-3.24,-3.59,11.04,11.04,11.04
104.32,14.26,3.29,14.26,3.29,-3.28,-3.25,-3.63,10.98,10.98,10.98
105.37,14.21,3.30,14.21,3.30,-3.29,-3.25,-3.67,10.92,10.92,10.92
106.42,14.16,3.30,14.16,3.30,-3.30,-3.26,-3.71,10.86,10.86,10.86
107.48,14.11,3.31,14.11,3.31,-3.31,-3.26,-3.75,10.80,10.80,10.80
108.56,14.05,3.31,14.05,3.31,-3.31,-3.27,-3.79,10.74,10.74,10.74
109.64,14.00,3.31,14.00,3.31,-3.32,-3.27,-3.83,10.68,10.68,10.69
110.74,13.95,3.32,13.95,3.32,-3.32,-3.28,-3.87,10.63,10.63,10.63
111.85,13.89,3.32,13.89,3.32,-3.32,-3.28,-3.91,10.57,10.57,10.57
112.97,13.83,3.32,13.83,3.32,-3.33,-3.29,-3.94,10.51,10.51,10.51
114.10,13.78,3.33,13.78,3.33,-3.33,-3.29,-3.98,10.45,10.45,10.45
115.24,13.72,3.33,13.72,3.33,-3.33,-3.30,-4.01,10.40,10.40,10.39
116.39,13.66,3.33,13.66,3.33,-3.32,-3.31,-4.04,10.34,10.34,10.34
117.55,13.61,3.33,13.61,3.32,-3.32,-3.32,-4.07,10.29,10.29,10.28
118.73,13.54,3.32,13.54,3.32,-3.31,-3.32,-4.09,10.23,10.23,10.23
119.92,13.48,3.30,13.48,3.30,-3.30,-3.33,-4.11,10.17,10.18,10.18
121.12,13.41,3.29,13.41,3.29,-3.30,-3.34,-4.13,10.12,10.12,10.12
122.33,13.35,3.28,13.35,3.28,-3.29,-3.35,-4.14,10.06,10.06,10.06
123.55,13.28,3.27,13.28,3.27,-3.28,-3.36,-4.15,9.99,9.99,10.00
124.79,13.20,3.27,13.20,3.27,-3.27,-3.36,-4.15,9.93,9.93,9.94
126.03,13.13,3.26,13.13,3.27,-3.26,-3.37,-4.16,9.87,9.87,9.87
127.29,13.06,3.26,13.06,3.26,-3.25,-3.38,-4.15,9.81,9.81,9.80
128.57,12.99,3.25,12.99,3.25,-3.24,-3.39,-4.15,9.75,9.75,9.74
129.85,12.92,3.23,12.92,3.23,-3.22,-3.40,-4.14,9.70,9.70,9.69
131.15,12.84,3.21,12.84,3.21,-3.20,-3.41,-4.12,9.64,9.64,9.63
132.46,12.77,3.19,12.77,3.19,-3.18,-3.42,-4.11,9.59,9.59,9.58
133.79,12.69,3.17,12.69,3.17,-3.17,-3.43,-4.09,9.53,9.53,9.52
135.12,12.62,3.16,12.62,3.16,-3.16,-3.44,-4.06,9.46,9.46,9.47
136.48,12.56,3.15,12.56,3.15,-3.17,-3.45,-4.04,9.40,9.39,9.41
137.84,12.51,3.16,12.52,3.17,-3.19,-3.46,-4.01,9.32,9.32,9.35
139.22,12.49,3.20,12.49,3.20,-3.23,-3.47,-3.98,9.26,9.26,9.29
140.61,12.49,3.26,12.49,3.27,-3.29,-3.48,-3.95,9.20,9.20,9.23
142.02,12.51,3.35,12.51,3.35,-3.37,-3.49,-3.91,9.14,9.14,9.16
143.44,12.54,3.44,12.54,3.45,-3.45,-3.50,-3.88,9.09,9.09,9.10
144.87,12.58,3.55,12.58,3.55,-3.53,-3.51,-3.84,9.05,9.05,9.03
146.32,12.61,3.64,12.61,3.64,-3.61,-3.52,-3.81,9.00,9.00,8.97
147.78,12.63,3.72,12.62,3.71,-3.68,-3.53,-3.77,8.94,8.94,8.91
149.26,12.62,3.76,12.62,3.76,-3.74,-3.54,-3.74,8.88,8.88,8.86
150.75,12.60,3.80,12.60,3.80,-3.78,-3.55,-3.70,8.82,8.82,8.80
152.26,12.57,3.81,12.57,3.81,-3.81,-3.56,-3.67,8.76,8.76,8.76
153.78,12.53,3.82,12.53,3.82,-3.83,-3.57,-3.64,8.70,8.70,8.71
155.32,12.49,3.82,12.49,3.82,-3.83,-3.58,-3.61,8.66,8.66,8.67
156.88,12.44,3.83,12.44,3.83,-3.83,-3.59,-3.58,8.61,8.61,8.62
158.44,12.39,3.83,12.39,3.83,-3.83,-3.59,-3.55,8.57,8.57,8.57
160.03,12.34,3.82,12.34,3.82,-3.82,-3.60,-3.52,8.52,8.52,8.52
161.63,12.28,3.81,12.28,3.81,-3.81,-3.61,-3.50,8.47,8.47,8.47
163.24,12.22,3.80,12.22,3.80,-3.80,-3.62,-3.47,8.42,8.42,8.42
164.88,12.15,3.78,12.15,3.78,-3.79,-3.63,-3.45,8.37,8.37,8.37
166.53,12.09,3.77,12.09,3.77,-3.77,-3.64,-3.44,8.32,8.32,8.33
168.19,12.03,3.76,12.03,3.76,-3.76,-3.64,-3.42,8.27,8.27,8.27
169.87,11.97,3.75,11.97,3.75,-3.75,-3.65,-3.41,8.22,8.22,8.22
171.57,11.91,3.74,11.91,3.74,-3.74,-3.66,-3.40,8.17,8.17,8.16
173.29,11.84,3.73,11.84,3.73,-3.73,-3.66,-3.39,8.11,8.11,8.11
175.02,11.78,3.72,11.78,3.72,-3.72,-3.67,-3.38,8.06,8.06,8.06
176.77,11.72,3.71,11.72,3.71,-3.71,-3.68,-3.38,8.00,8.00,8.00
178.54,11.65,3.71,11.65,3.71,-3.71,-3.68,-3.38,7.94,7.94,7.95
180.32,11.59,3.70,11.59,3.70,-3.70,-3.69,-3.38,7.89,7.89,7.89
182.13,11.53,3.70,11.53,3.70,-3.70,-3.69,-3.39,7.83,7.83,7.83
183.95,11.46,3.69,11.46,3.69,-3.69,-3.70,-3.39,7.77,7.77,7.77
185.79,11.40,3.69,11.40,3.69,-3.69,-3.70,-3.41,7.71,7.71,7.71
187.65,11.34,3.69,11.34,3.69,-3.69,-3.70,-3.42,7.65,7.65,7.65
189.52,11.27,3.69,11.27,3.69,-3.68,-3.71,-3.43,7.59,7.59,7.59
191.42,11.21,3.68,11.21,3.68,-3.68,-3.71,-3.45,7.53,7.53,7.53
193.33,11.14,3.68,11.14,3.68,-3.68,-3.71,-3.47,7.47,7.46,7.47
195.27,11.08,3.67,11.08,3.67,-3.68,-3.71,-3.49,7.40,7.40,7.40
197.22,11.01,3.67,11.01,3.67,-3.67,-3.71,-3.51,7.34,7.34,7.34
199.19,10.94,3.67,10.94,3.67,-3.67,-3.71,-3.54,7.28,7.28,7.28
201.18,10.88,3.66,10.88,3.66,-3.66,-3.71,-3.56,7.22,7.22,7.21
203.19,10.81,3.66,10.81,3.66,-3.66,-3.71,-3.59,7.16,7.16,7.15
205.23,10.75,3.65,10.75,3.65,-3.65,-3.71,-3.62,7.10,7.10,7.10
207.28,10.69,3.65,10.69,3.65,-3.65,-3.71,-3.65,7.04,7.04,7.04
209.35,10.62,3.64,10.62,3.64,-3.64,-3.71,-3.68,6.99,6.98,6.99
211.44,10.56,3.63,10.56,3.63,-3.63,-3.70,-3.71,6.93,6.93,6.93
213.56,10.49,3.63,10.49,3.63,-3.63,-3.70,-3.74,6.87,6.87,6.87
215.69,10.43,3.62,10.43,3.62,-3.62,-3.69,-3.77,6.81,6.81,6.81
217.85,10.36,3.61,10.36,3.61,-3.61,-3.69,-3.80,6.75,6.75,6.75
220.03,10.30,3.61,10.30,3.61,-3.61,-3.68,-3.83,6.69,6.69,6.69
222.23,10.24,3.61,10.24,3.61,-3.61,-3.68,-3.86,6.63,6.63,6.63
224.45,10.17,3.60,10.17,3.60,-3.60,-3.67,-3.88,6.57,6.57,6.57
226.70,10.10,3.60,10.10,3.60,-3.60,-3.66,-3.91,6.51,6.51,6.51
228.96,10.04,3.59,10.04,3.59,-3.59,-3.65,-3.93,6.45,6.45,6.45
231.25,9.97,3.59,9.97,3.59,-3.59,-3.64,-3.95,6.39,6.39,6.39
233.57,9.91,3.58,9.91,3.58,-3.58,-3.64,-3.97,6.33,6.33,6.33
235.90,9.84,3.58,9.84,3.58,-3.58,-3.63,-3.98,6.27,6.27,6.27
238.26,9.78,3.57,9.78,3.57,-3.57,-3.61,-3.99,6.21,6.21,6.21
240.64,9.71,3.56,9.71,3.57,-3.57,-3.60,-3.99,6.15,6.15,6.15
243.05,9.65,3.56,9.65,3.56,-3.56,-3.59,-3.99,6.09,6.09,6.09
245.48,9.58,3.55,9.58,3.55,-3.55,-3.58,-3.99,6.03,6.03,6.03
247.93,9.51,3.54,9.51,3.54,-3.54,-3.57,-3.98,5.97,5.97,5.97
250.41,9.44,3.53,9.44,3.53,-3.53,-3.55,-3.97,5.91,5.91,5.91
252.92,9.38,3.52,9.38,3.52,-3.52,-3.54,-3.96,5.85,5.85,5.85
255.45,9.31,3.51,9.31,3.51,-3.51,-3.52,-3.93,5.80,5.80,5.80
258.00,9.24,3.50,9.24,3.50,-3.50,-3.51,-3.91,5.74,5.74,5.74
260.58,9.17,3.48,9.17,3.48,-3.48,-3.49,-3.88,5.69,5.69,5.69
263.19,9.10,3.47,9.10,3.47,-3.46,-3.47,-3.85,5.64,5.64,5.64
265.82,9.04,3.45,9.03,3.45,-3.45,-3.46,-3.81,5.59,5.59,5.59
268.48,8.96,3.43,8.97,3.43,-3.43,-3.44,-3.77,5.54,5.54,5.54
271.16,8.89,3.41,8.89,3.41,-3.41,-3.42,-3.72,5.49,5.49,5.49
273.87,8.82,3.39,8.82,3.39,-3.39,-3.40,-3.68,5.44,5.44,5.44
276.61,8.75,3.37,8.75,3.37,-3.37,-3.38,-3.63,5.39,5.39,5.39
279.38,8.68,3.35,8.68,3.35,-3.35,-3.36,-3.57,5.34,5.34,5.34
282.17,8.61,3.33,8.61,3.33,-3.33,-3.34,-3.52,5.28,5.28,5.29
284.99,8.54,3.31,8.54,3.31,-3.31,-3.32,-3.46,5.23,5.23,5.23
287.84,8.47,3.29,8.47,3.29,-3.29,-3.30,-3.40,5.18,5.18,5.18
290.72,8.40,3.27,8.40,3.27,-3.27,-3.28,-3.35,5.12,5.12,5.13
293.63,8.33,3.26,8.33,3.26,-3.26,-3.25,-3.29,5.07,5.07,5.07
296.57,8.26,3.24,8.26,3.24,-3.24,-3.23,-3.23,5.02,5.02,5.01
299.53,8.19,3.23,8.19,3.23,-3.23,-3.21,-3.16,4.96,4.96,4.96
302.53,8.12,3.21,8.12,3.21,-3.21,-3.18,-3.10,4.90,4.90,4.90
305.55,8.05,3.20,8.05,3.20,-3.20,-3.16,-3.04,4.85,4.85,4.85
308.61,7.97,3.18,7.97,3.18,-3.18,-3.14,-2.98,4.80,4.80,4.79
311.69,7.90,3.16,7.90,3.16,-3.16,-3.11,-2.92,4.74,4.74,4.74
314.81,7.83,3.14,7.83,3.14,-3.14,-3.09,-2.87,4.69,4.69,4.69
317.96,7.76,3.12,7.76,3.12,-3.12,-3.06,-2.81,4.64,4.64,4.64
321.14,7.69,3.09,7.69,3.09,-3.09,-3.04,-2.75,4.60,4.60,4.59
324.35,7.62,3.07,7.62,3.07,-3.07,-3.01,-2.70,4.55,4.55,4.55
327.59,7.55,3.04,7.55,3.04,-3.04,-2.99,-2.64,4.51,4.51,4.51
330.87,7.47,3.01,7.47,3.01,-3.01,-2.96,-2.59,4.46,4.46,4.46
334.18,7.40,2.98,7.40,2.98,-2.98,-2.94,-2.54,4.42,4.42,4.42
337.52,7.33,2.95,7.33,2.95,-2.95,-2.91,-2.49,4.37,4.38,4.38
340.90,7.25,2.92,7.25,2.92,-2.92,-2.88,-2.44,4.33,4.33,4.33
344.30,7.18,2.89,7.18,2.89,-2.89,-2.86,-2.40,4.29,4.29,4.29
347.75,7.10,2.86,7.10,2.86,-2.86,-2.83,-2.36,4.24,4.24,4.24
351.23,7.03,2.84,7.03,2.84,-2.84,-2.80,-2.31,4.19,4.19,4.19
354.74,6.96,2.81,6.96,2.81,-2.81,-2.78,-2.27,4.15,4.15,4.15
358.28,6.88,2.79,6.88,2.79,-2.79,-2.75,-2.23,4.10,4.10,4.10
361.87,6.81,2.76,6.81,2.76,-2.76,-2.72,-2.20,4.05,4.05,4.05
365.49,6.74,2.74,6.74,2.74,-2.74,-2.70,-2.16,4.00,4.00,4.00
369.14,6.67,2.72,6.67,2.72,-2.72,-2.67,-2.13,3.96,3.96,3.96
372.83,6.60,2.69,6.60,2.69,-2.69,-2.64,-2.10,3.91,3.91,3.91
376.56,6.53,2.67,6.53,2.67,-2.67,-2.62,-2.07,3.86,3.86,3.86
380.33,6.46,2.64,6.46,2.64,-2.64,-2.59,-2.04,3.82,3.82,3.82
384.13,6.39,2.62,6.39,2.62,-2.62,-2.56,-2.01,3.77,3.77,3.77
387.97,6.32,2.59,6.32,2.59,-2.59,-2.54,-1.99,3.73,3.73,3.73
391.85,6.24,2.56,6.24,2.56,-2.56,-2.51,-1.97,3.68,3.68,3.68
395.77,6.17,2.53,6.17,2.53,-2.53,-2.48,-1.94,3.64,3.64,3.64
399.73,6.10,2.50,6.09,2.50,-2.50,-2.46,-1.92,3.60,3.60,3.60
403.72,6.02,2.47,6.02,2.47,-2.47,-2.43,-1.90,3.55,3.55,3.55
407.76,5.95,2.44,5.95,2.44,-2.44,-2.40,-1.88,3.51,3.51,3.51
411.84,5.87,2.40,5.87,2.40,-2.40,-2.37,-1.86,3.47,3.47,3.47
415.96,5.80,2.37,5.80,2.37,-2.37,-2.35,-1.85,3.42,3.42,3.42
420.12,5.72,2.34,5.72,2.34,-2.34,-2.32,-1.83,3.38,3.38,3.38
424.32,5.64,2.30,5.64,2.30,-2.30,-2.29,-1.81,3.34,3.34,3.34
428.56,5.57,2.27,5.57,2.27,-2.27,-2.26,-1.79,3.30,3.30,3.30
432.85,5.49,2.23,5.49,2.23,-2.23,-2.23,-1.78,3.26,3.26,3.26
437.18,5.42,2.20,5.42,2.20,-2.20,-2.20,-1.76,3.22,3.22,3.22
441.55,5.35,2.17,5.35,2.17,-2.16,-2.17,-1.74,3.18,3.18,3.18
445.96,5.27,2.13,5.27,2.13,-2.13,-2.14,-1.73,3.14,3.14,3.14
450.42,5.20,2.09,5.20,2.09,-2.09,-2.11,-1.71,3.10,3.10,3.10
454.93,5.12,2.06,5.12,2.06,-2.06,-2.07,-1.69,3.07,3.07,3.07
459.48,5.05,2.02,5.05,2.02,-2.02,-2.04,-1.67,3.03,3.03,3.03
