frequency,raw,error,smoothed,error_smoothed,equalization,parametric_eq,fixed_band_eq,equalized_raw,equalized_smoothed,target
20.00,10.46,3.73,10.46,3.73,-3.72,-3.65,-1.36,6.74,6.74,6.73
20.20,10.45,3.72,10.45,3.72,-3.73,-3.72,-1.41,6.72,6.72,6.73
20.40,10.43,3.71,10.44,3.72,-3.73,-3.78,-1.45,6.70,6.70,6.73
20.61,10.42,3.70,10.42,3.72,-3.73,-3.81,-1.49,6.69,6.69,6.73
20.81,10.41,3.75,10.41,3.74,-3.73,-3.85,-1.54,6.68,6.68,6.66
21.02,10.39,3.76,10.39,3.75,-3.72,-3.84,-1.59,6.67,6.67,6.63
21.23,10.37,3.74,10.37,3.74,-3.71,-3.84,-1.63,6.66,6.66,6.63
21.44,10.34,3.71,10.34,3.71,-3.69,-3.80,-1.68,6.65,6.65,6.63
21.66,10.30,3.67,10.30,3.67,-3.66,-3.76,-1.73,6.64,6.64,6.63
21.87,10.26,3.63,10.26,3.63,-3.63,-3.71,-1.79,6.63,6.63,6.63
22.09,10.21,3.58,10.21,3.58,-3.59,-3.66,-1.84,6.62,6.62,6.63
22.31,10.18,3.55,10.18,3.55,-3.56,-3.61,-1.90,6.62,6.62,6.63
22.54,10.15,3.52,10.15,3.52,-3.53,-3.56,-1.95,6.61,6.61,6.63
22.76,10.12,3.49,10.12,3.49,-3.52,-3.52,-2.01,6.60,6.60,6.63
22.99,10.11,3.48,10.11,3.48,-3.51,-3.47,-2.07,6.60,6.60,6.63
23.22,10.10,3.48,10.10,3.50,-3.51,-3.44,-2.13,6.59,6.59,6.62
23.45,10.09,3.54,10.09,3.52,-3.51,-3.40,-2.19,6.58,6.58,6.55
23.69,10.07,3.54,10.07,3.54,-3.50,-3.38,-2.26,6.57,6.57,6.53
23.92,10.05,3.52,10.05,3.53,-3.49,-3.35,-2.32,6.56,6.56,6.53
24.16,10.02,3.49,10.02,3.49,-3.48,-3.32,-2.39,6.55,6.55,6.53
24.40,9.99,3.46,9.99,3.46,-3.46,-3.30,-2.46,6.53,6.53,6.53
24.65,9.95,3.42,9.96,3.43,-3.44,-3.28,-2.52,6.52,6.52,6.53
24.89,9.92,3.39,9.93,3.40,-3.42,-3.26,-2.59,6.50,6.51,6.53
25.14,9.90,3.37,9.90,3.37,-3.40,-3.25,-2.66,6.50,6.50,6.53
25.39,9.88,3.35,9.88,3.36,-3.39,-3.23,-2.73,6.49,6.50,6.53
25.65,9.87,3.35,9.87,3.37,-3.38,-3.22,-2.80,6.49,6.49,6.52
25.91,9.85,3.40,9.85,3.38,-3.36,-3.20,-2.87,6.49,6.49,6.45
26.16,9.83,3.40,9.82,3.39,-3.34,-3.19,-2.93,6.48,6.48,6.43
26.43,9.79,3.36,9.79,3.36,-3.32,-3.17,-3.00,6.47,6.47,6.43
26.69,9.74,3.31,9.74,3.31,-3.29,-3.16,-3.07,6.45,6.44,6.43
26.96,9.69,3.26,9.68,3.26,-3.26,-3.15,-3.13,6.42,6.42,6.43
27.23,9.63,3.21,9.64,3.21,-3.23,-3.13,-3.20,6.40,6.40,6.43
27.50,9.60,3.17,9.60,3.17,-3.20,-3.12,-3.26,6.40,6.40,6.43
27.77,9.58,3.15,9.58,3.15,-3.18,-3.10,-3.31,6.40,6.40,6.43
28.05,9.58,3.15,9.58,3.15,-3.17,-3.09,-3.37,6.41,6.41,6.43
28.33,9.58,3.16,9.58,3.15,-3.16,-3.07,-3.42,6.43,6.43,6.43
28.62,9.59,3.16,9.59,3.16,-3.16,-3.05,-3.47,6.44,6.44,6.43
28.90,9.60,3.17,9.59,3.16,-3.15,-3.04,-3.51,6.45,6.44,6.43
29.19,9.58,3.15,9.58,3.15,-3.14,-3.02,-3.55,6.44,6.44,6.43
29.48,9.56,3.13,9.56,3.13,-3.11,-3.00,-3.58,6.45,6.44,6.43
29.78,9.52,3.09,9.52,3.09,-3.07,-2.98,-3.61,6.44,6.44,6.43
30.08,9.47,3.04,9.47,3.04,-3.02,-2.96,-3.63,6.45,6.45,6.43
30.38,9.42,2.99,9.42,2.97,-2.96,-2.94,-3.65,6.46,6.46,6.43
30.68,9.37,2.89,9.37,2.89,-2.89,-2.92,-3.66,6.48,6.48,6.47
30.99,9.32,2.79,9.32,2.81,-2.82,-2.90,-3.66,6.50,6.50,6.53
31.30,9.28,2.75,9.28,2.73,-2.75,-2.87,-3.66,6.53,6.53,6.53
31.61,9.25,2.67,9.25,2.66,-2.69,-2.85,-3.65,6.55,6.56,6.58
31.93,9.22,2.60,9.23,2.61,-2.64,-2.82,-3.63,6.59,6.59,6.63
32.24,9.21,2.58,9.21,2.58,-2.59,-2.80,-3.61,6.62,6.62,6.63
32.57,9.19,2.57,9.19,2.56,-2.56,-2.77,-3.58,6.64,6.64,6.63
32.89,9.18,2.55,9.18,2.55,-2.52,-2.74,-3.55,6.65,6.65,6.63
33.22,9.15,2.52,9.15,2.52,-2.50,-2.71,-3.51,6.65,6.65,6.63
33.55,9.12,2.49,9.11,2.48,-2.47,-2.69,-3.47,6.64,6.64,6.63
33.89,9.07,2.44,9.07,2.44,-2.45,-2.66,-3.41,6.62,6.62,6.63
34.23,9.01,2.39,9.01,2.41,-2.42,-2.62,-3.36,6.59,6.59,6.62
34.57,8.96,2.40,8.96,2.39,-2.39,-2.59,-3.30,6.56,6.56,6.56
34.92,8.90,2.38,8.91,2.37,-2.36,-2.56,-3.24,6.54,6.54,6.53
35.27,8.86,2.33,8.86,2.34,-2.33,-2.53,-3.17,6.53,6.53,6.53
35.62,8.83,2.30,8.83,2.30,-2.30,-2.49,-3.10,6.53,6.53,6.53
35.97,8.80,2.27,8.80,2.27,-2.27,-2.46,-3.03,6.53,6.53,6.53
36.33,8.78,2.25,8.78,2.25,-2.24,-2.42,-2.95,6.54,6.54,6.53
36.70,8.75,2.22,8.75,2.22,-2.21,-2.38,-2.88,6.54,6.54,6.53
37.06,8.71,2.18,8.71,2.18,-2.18,-2.35,-2.80,6.53,6.53,6.53
37.43,8.67,2.14,8.67,2.14,-2.15,-2.31,-2.72,6.52,6.52,6.53
37.81,8.62,2.09,8.62,2.11,-2.13,-2.27,-2.64,6.49,6.49,6.53
38.19,8.57,2.10,8.57,2.09,-2.10,-2.23,-2.56,6.47,6.47,6.47
38.57,8.53,2.10,8.53,2.08,-2.08,-2.19,-2.48,6.45,6.45,6.43
38.95,8.49,2.06,8.49,2.07,-2.06,-2.15,-2.40,6.44,6.44,6.43
39.34,8.47,2.04,8.47,2.04,-2.03,-2.11,-2.32,6.43,6.43,6.43
39.74,8.44,2.01,8.44,2.01,-2.01,-2.07,-2.24,6.43,6.43,6.43
40.14,8.41,1.98,8.41,1.98,-1.98,-2.02,-2.16,6.43,6.43,6.43
40.54,8.38,1.95,8.38,1.95,-1.95,-1.98,-2.08,6.43,6.43,6.43
40.94,8.35,1.92,8.35,1.92,-1.92,-1.94,-2.00,6.43,6.43,6.43
41.35,8.31,1.88,8.31,1.88,-1.88,-1.89,-1.92,6.43,6.43,6.43
41.76,8.27,1.84,8.27,1.84,-1.84,-1.85,-1.84,6.43,6.43,6.43
42.18,8.23,1.80,8.23,1.80,-1.80,-1.80,-1.77,6.43,6.43,6.43
42.60,8.19,1.76,8.19,1.76,-1.76,-1.76,-1.69,6.43,6.43,6.43
43.03,8.14,1.72,8.14,1.71,-1.71,-1.71,-1.62,6.43,6.43,6.43
43.46,8.10,1.67,8.10,1.67,-1.67,-1.66,-1.54,6.43,6.43,6.43
43.90,8.05,1.62,8.05,1.62,-1.62,-1.62,-1.47,6.43,6.43,6.43
44.33,8.00,1.57,8.00,1.57,-1.57,-1.57,-1.40,6.43,6.43,6.43
44.78,7.95,1.52,7.95,1.52,-1.52,-1.52,-1.33,6.43,6.43,6.43
45.23,7.90,1.47,7.90,1.47,-1.48,-1.47,-1.26,6.43,6.43,6.43
45.68,7.86,1.43,7.86,1.43,-1.43,-1.43,-1.20,6.43,6.43,6.43
46.13,7.81,1.38,7.81,1.38,-1.38,-1.38,-1.13,6.43,6.43,6.43
46.60,7.77,1.34,7.77,1.34,-1.34,-1.33,-1.06,6.43,6.43,6.43
47.06,7.73,1.30,7.73,1.30,-1.30,-1.28,-1.00,6.43,6.43,6.43
47.53,7.68,1.26,7.69,1.26,-1.26,-1.23,-0.94,6.42,6.43,6.43
48.01,7.65,1.22,7.65,1.22,-1.22,-1.18,-0.88,6.43,6.43,6.43
48.49,7.61,1.18,7.61,1.18,-1.18,-1.13,-0.81,6.43,6.43,6.43
48.97,7.58,1.15,7.58,1.15,-1.15,-1.08,-0.75,6.43,6.43,6.43
49.46,7.54,1.11,7.54,1.11,-1.11,-1.03,-0.70,6.43,6.43,6.43
49.96,7.50,1.07,7.50,1.07,-1.07,-0.98,-0.64,6.44,6.44,6.43
50.46,7.46,1.03,7.46,1.03,-1.02,-0.93,-0.58,6.44,6.44,6.43
50.96,7.42,0.99,7.42,0.99,-0.97,-0.88,-0.53,6.44,6.44,6.43
51.47,7.37,0.94,7.37,0.94,-0.92,-0.83,-0.47,6.44,6.44,6.43
51.99,7.32,0.89,7.32,0.89,-0.88,-0.78,-0.42,6.43,6.43,6.43
52.51,7.27,0.84,7.27,0.83,-0.85,-0.73,-0.36,6.41,6.41,6.43
53.03,7.21,0.78,7.21,0.78,-0.83,-0.68,-0.31,6.38,6.38,6.43
53.56,7.16,0.74,7.16,0.75,-0.80,-0.63,-0.26,6.35,6.35,6.42
54.10,7.11,0.75,7.11,0.76,-0.78,-0.58,-0.21,6.33,6.33,6.35
54.64,7.06,0.77,7.06,0.77,-0.74,-0.52,-0.16,6.32,6.32,6.29
55.18,7.01,0.78,7.01,0.77,-0.70,-0.47,-0.12,6.31,6.31,6.23
55.74,6.96,0.73,6.96,0.72,-0.66,-0.42,-0.07,6.30,6.30,6.23
56.29,6.91,0.63,6.91,0.63,-0.60,-0.37,-0.02,6.31,6.31,6.28
56.86,6.86,0.51,6.86,0.51,-0.53,-0.32,0.02,6.33,6.33,6.35
57.42,6.82,0.39,6.82,0.42,-0.45,-0.27,0.06,6.37,6.37,6.42
58.00,6.78,0.35,6.78,0.34,-0.36,-0.22,0.11,6.41,6.42,6.43
58.58,6.74,0.29,6.74,0.26,-0.28,-0.17,0.15,6.47,6.47,6.45
59.16,6.70,0.18,6.70,0.20,-0.20,-0.12,0.19,6.50,6.50,6.53
59.76,6.66,0.13,6.66,0.12,-0.14,-0.07,0.23,6.52,6.52,6.53
60.35,6.61,0.08,6.61,0.07,-0.09,-0.02,0.27,6.52,6.52,6.53
60.96,6.55,0.02,6.55,0.04,-0.05,0.02,0.30,6.50,6.50,6.53
61.57,6.49,0.03,6.49,0.01,-0.01,0.07,0.34,6.47,6.47,6.46
62.18,6.42,-0.01,6.42,-0.02,0.02,0.12,0.37,6.44,6.44,6.43
62.80,6.36,-0.06,6.36,-0.04,0.05,0.17,0.41,6.40,6.40,6.42
63.43,6.29,-0.06,6.29,-0.07,0.08,0.22,0.44,6.37,6.37,6.36
64.07,6.23,-0.10,6.23,-0.11,0.11,0.27,0.47,6.35,6.35,6.33
64.71,6.18,-0.15,6.18,-0.15,0.16,0.31,0.50,6.33,6.33,6.33
65.35,6.13,-0.20,6.13,-0.19,0.21,0.36,0.53,6.33,6.33,6.33
66.01,6.08,-0.25,6.08,-0.25,0.26,0.41,0.56,6.34,6.34,6.33
66.67,6.04,-0.30,6.04,-0.32,0.32,0.46,0.59,6.36,6.36,6.35
67.33,6.00,-0.42,6.00,-0.40,0.39,0.50,0.62,6.39,6.39,6.42
68.01,5.96,-0.47,5.96,-0.46,0.46,0.55,0.65,6.42,6.42,6.43
68.69,5.91,-0.52,5.91,-0.53,0.54,0.59,0.67,6.45,6.45,6.43
69.37,5.86,-0.57,5.86,-0.60,0.61,0.64,0.70,6.47,6.47,6.43
70.07,5.81,-0.69,5.81,-0.68,0.68,0.68,0.73,6.49,6.49,6.50
70.77,5.76,-0.77,5.76,-0.76,0.74,0.73,0.75,6.50,6.50,6.53
71.48,5.71,-0.82,5.71,-0.83,0.79,0.77,0.78,6.50,6.50,6.53
72.19,5.66,-0.87,5.66,-0.86,0.83,0.82,0.81,6.49,6.49,6.53
72.91,5.61,-0.88,5.61,-0.88,0.87,0.86,0.83,6.48,6.47,6.49
73.64,5.55,-0.88,5.55,-0.90,0.90,0.91,0.86,6.45,6.45,6.43
74.38,5.50,-0.93,5.50,-0.91,0.93,0.95,0.89,6.43,6.43,6.43
75.12,5.44,-0.94,5.44,-0.93,0.96,0.99,0.91,6.40,6.40,6.38
75.87,5.39,-0.94,5.38,-0.96,0.99,1.03,0.94,6.38,6.38,6.33
76.63,5.33,-1.00,5.33,-1.00,1.03,1.07,0.97,6.36,6.36,6.33
77.40,5.27,-1.06,5.27,-1.06,1.07,1.12,1.00,6.34,6.34,6.33
78.17,5.21,-1.12,5.21,-1.12,1.11,1.16,1.02,6.32,6.32,6.33
78.95,5.16,-1.17,5.16,-1.18,1.15,1.20,1.05,6.30,6.30,6.33
79.74,5.10,-1.23,5.10,-1.22,1.17,1.24,1.08,6.28,6.28,6.33
80.54,5.06,-1.25,5.06,-1.24,1.19,1.28,1.12,6.25,6.25,6.30
81.35,5.01,-1.23,5.01,-1.23,1.20,1.32,1.15,6.21,6.21,6.23
82.16,4.96,-1.21,4.96,-1.20,1.22,1.36,1.18,6.17,6.17,6.17
82.98,4.90,-1.19,4.90,-1.19,1.23,1.39,1.21,6.14,6.14,6.10
83.81,4.85,-1.18,4.84,-1.20,1.26,1.43,1.25,6.10,6.10,6.03
84.65,4.78,-1.25,4.78,-1.25,1.29,1.47,1.29,6.07,6.07,6.03
85.50,4.71,-1.32,4.71,-1.31,1.34,1.51,1.32,6.04,6.04,6.03
86.35,4.64,-1.39,4.64,-1.39,1.39,1.54,1.36,6.02,6.02,6.03
87.22,4.57,-1.46,4.57,-1.48,1.44,1.58,1.40,6.01,6.02,6.03
88.09,4.52,-1.56,4.52,-1.55,1.50,1.62,1.44,6.02,6.02,6.08
88.97,4.48,-1.63,4.48,-1.60,1.55,1.65,1.48,6.03,6.03,6.11
89.86,4.44,-1.60,4.44,-1.62,1.60,1.69,1.52,6.04,6.04,6.04
90.76,4.40,-1.63,4.40,-1.64,1.65,1.72,1.57,6.05,6.05,6.03
91.66,4.35,-1.68,4.35,-1.67,1.70,1.76,1.61,6.05,6.05,6.03
92.58,4.29,-1.74,4.29,-1.74,1.77,1.79,1.66,6.06,6.06,6.03
93.51,4.21,-1.82,4.21,-1.82,1.85,1.82,1.71,6.06,6.06,6.03
94.44,4.12,-1.91,4.12,-1.91,1.96,1.85,1.76,6.08,6.08,6.03
95.39,4.00,-2.03,4.00,-2.03,2.08,1.89,1.80,6.08,6.08,6.03
96.34,3.86,-2.17,3.86,-2.17,2.21,1.92,1.85,6.07,6.07,6.03
97.30,3.70,-2.33,3.70,-2.34,2.33,1.95,1.91,6.03,6.03,6.03
98.28,3.54,-2.49,3.54,-2.49,2.43,1.98,1.96,5.97,5.97,6.03
99.26,3.40,-2.63,3.41,-2.60,2.50,2.01,2.01,5.90,5.91,6.03
100.25,3.33,-2.66,3.34,-2.64,2.55,2.04,2.06,5.87,5.89,5.98
101.25,3.33,-2.60,3.34,-2.61,2.57,2.07,2.12,5.90,5.90,5.93
102.27,3.38,-2.55,3.38,-2.55,2.56,2.10,2.17,5.95,5.94,5.93
103.29,3.44,-2.49,3.44,-2.49,2.54,2.13,2.23,5.99,5.98,5.93
104.32,3.49,-2.44,3.48,-2.45,2.51,2.16,2.28,6.00,5.99,5.93
105.37,3.50,-2.43,3.50,-2.44,2.48,2.19,2.33,5.97,5.97,5.93
106.42,3.48,-2.45,3.48,-2.45,2.45,2.21,2.39,5.93,5.93,5.93
107.48,3.44,-2.47,3.43,-2.46,2.45,2.24,2.44,5.89,5.88,5.91
108.56,3.37,-2.48,3.37,-2.47,2.46,2.27,2.49,5.83,5.83,5.85
109.64,3.29,-2.48,3.29,-2.48,2.49,2.30,2.54,5.77,5.77,5.76
110.74,3.20,-2.49,3.20,-2.50,2.52,2.32,2.59,5.72,5.72,5.69
111.85,3.12,-2.52,3.12,-2.53,2.55,2.35,2.64,5.67,5.67,5.64
112.97,3.04,-2.59,3.04,-2.59,2.58,2.37,2.69,5.62,5.62,5.63
114.10,2.98,-2.65,2.98,-2.64,2.62,2.40,2.73,5.59,5.59,5.63
115.24,2.92,-2.70,2.92,-2.68,2.66,2.42,2.78,5.58,5.58,5.62
116.39,2.87,-2.69,2.87,-2.70,2.70,2.44,2.82,5.57,5.57,5.56
117.55,2.83,-2.70,2.83,-2.71,2.74,2.47,2.85,5.57,5.57,5.53
118.73,2.78,-2.75,2.78,-2.75,2.78,2.49,2.89,5.56,5.56,5.53
119.92,2.73,-2.80,2.73,-2.80,2.80,2.51,2.92,5.54,5.53,5.53
121.12,2.68,-2.85,2.68,-2.85,2.82,2.54,2.95,5.50,5.50,5.53
122.33,2.63,-2.89,2.62,-2.88,2.83,2.56,2.97,5.45,5.45,5.51
123.55,2.57,-2.88,2.57,-2.87,2.83,2.58,2.99,5.40,5.41,5.45
124.79,2.52,-2.83,2.52,-2.84,2.84,2.60,3.01,5.36,5.36,5.35
126.03,2.48,-2.80,2.48,-2.81,2.85,2.62,3.02,5.33,5.33,5.28
127.29,2.44,-2.79,2.44,-2.80,2.86,2.64,3.03,5.30,5.30,5.23
128.57,2.41,-2.82,2.41,-2.82,2.85,2.66,3.04,5.26,5.26,5.23
129.85,2.38,-2.85,2.38,-2.85,2.84,2.68,3.04,5.23,5.22,5.23
131.15,2.35,-2.87,2.36,-2.88,2.83,2.70,3.05,5.18,5.19,5.23
132.46,2.35,-2.88,2.35,-2.87,2.81,2.72,3.04,5.16,5.16,5.23
133.79,2.35,-2.84,2.34,-2.84,2.79,2.73,3.04,5.14,5.13,5.19
135.12,2.34,-2.78,2.34,-2.78,2.77,2.75,3.03,5.11,5.11,5.12
136.48,2.34,-2.72,2.34,-2.72,2.74,2.77,3.02,5.08,5.08,5.06
137.84,2.32,-2.67,2.32,-2.67,2.72,2.79,3.01,5.04,5.04,4.99
139.22,2.29,-2.64,2.29,-2.65,2.71,2.80,2.99,5.00,5.00,4.93
140.61,2.26,-2.67,2.26,-2.66,2.70,2.82,2.98,4.96,4.96,4.93
142.02,2.22,-2.71,2.22,-2.71,2.70,2.84,2.96,4.93,4.93,4.93
143.44,2.18,-2.75,2.18,-2.75,2.72,2.85,2.94,4.90,4.90,4.93
144.87,2.13,-2.80,2.13,-2.78,2.75,2.87,2.92,4.88,4.88,4.93
146.32,2.08,-2.78,2.08,-2.80,2.78,2.88,2.91,4.86,4.86,4.86
147.78,2.03,-2.80,2.03,-2.81,2.81,2.90,2.89,4.84,4.84,4.83
149.26,1.98,-2.84,1.98,-2.81,2.84,2.91,2.87,4.81,4.81,4.82
150.75,1.92,-2.82,1.92,-2.84,2.86,2.92,2.85,4.78,4.78,4.74
152.26,1.86,-2.86,1.86,-2.88,2.87,2.94,2.83,4.73,4.73,4.73
153.78,1.80,-2.93,1.80,-2.90,2.88,2.95,2.81,4.68,4.68,4.73
155.32,1.74,-2.92,1.75,-2.91,2.89,2.96,2.80,4.64,4.64,4.66
156.88,1.69,-2.89,1.69,-2.91,2.90,2.98,2.78,4.59,4.59,4.59
158.44,1.65,-2.88,1.65,-2.90,2.91,2.99,2.77,4.55,4.55,4.53
160.03,1.61,-2.92,1.61,-2.90,2.91,3.00,2.75,4.52,4.52,4.53
161.63,1.57,-2.91,1.57,-2.91,2.91,3.01,2.74,4.48,4.48,4.47
163.24,1.52,-2.90,1.52,-2.92,2.92,3.02,2.73,4.45,4.45,4.43
164.88,1.48,-2.95,1.48,-2.92,2.93,3.03,2.72,4.41,4.41,4.43
166.53,1.44,-2.94,1.44,-2.94,2.95,3.04,2.72,4.39,4.39,4.38
168.19,1.39,-2.94,1.39,-2.96,2.97,3.05,2.71,4.36,4.36,4.33
169.87,1.35,-2.98,1.35,-2.98,2.99,3.06,2.71,4.34,4.34,4.33
171.57,1.30,-3.03,1.30,-3.01,3.01,3.07,2.71,4.31,4.31,4.33
173.29,1.24,-3.04,1.24,-3.04,3.03,3.08,2.71,4.28,4.28,4.29
175.02,1.19,-3.04,1.19,-3.06,3.05,3.09,2.72,4.24,4.24,4.23
176.77,1.14,-3.09,1.14,-3.07,3.07,3.10,2.72,4.21,4.21,4.23
178.54,1.09,-3.09,1.09,-3.08,3.08,3.10,2.73,4.17,4.17,4.18
180.32,1.04,-3.07,1.04,-3.08,3.08,3.11,2.74,4.12,4.12,4.12
182.13,1.00,-3.06,1.00,-3.07,3.07,3.12,2.75,4.07,4.08,4.06
183.95,0.96,-3.07,0.96,-3.07,3.07,3.13,2.77,4.03,4.03,4.03
185.79,0.93,-3.07,0.93,-3.06,3.05,3.13,2.78,3.98,3.98,4.00
187.65,0.90,-3.04,0.90,-3.04,3.04,3.14,2.80,3.94,3.93,3.94
189.52,0.87,-3.01,0.87,-3.02,3.01,3.14,2.82,3.88,3.88,3.88
191.42,0.84,-2.99,0.84,-3.00,2.99,3.15,2.85,3.83,3.83,3.83
193.33,0.82,-3.01,0.83,-2.98,2.97,3.15,2.87,3.79,3.79,3.83
195.27,0.81,-2.95,0.82,-2.96,2.95,3.16,2.90,3.77,3.77,3.77
197.22,0.81,-2.92,0.81,-2.94,2.95,3.16,2.92,3.76,3.75,3.73
199.19,0.79,-2.94,0.78,-2.92,2.95,3.17,2.95,3.74,3.74,3.72
201.18,0.74,-2.92,0.74,-2.93,2.97,3.17,2.98,3.71,3.71,3.66
203.19,0.67,-2.96,0.67,-2.97,3.00,3.18,3.01,3.67,3.67,3.63
205.23,0.59,-3.04,0.59,-3.03,3.04,3.18,3.05,3.63,3.63,3.63
207.28,0.52,-3.11,0.52,-3.09,3.07,3.18,3.08,3.59,3.59,3.63
209.35,0.45,-3.13,0.45,-3.14,3.11,3.18,3.11,3.56,3.56,3.58
211.44,0.39,-3.14,0.39,-3.16,3.13,3.18,3.15,3.53,3.53,3.53
213.56,0.34,-3.19,0.34,-3.18,3.15,3.19,3.18,3.49,3.49,3.53
215.69,0.29,-3.19,0.29,-3.18,3.16,3.19,3.21,3.45,3.45,3.47
217.85,0.24,-3.16,0.24,-3.16,3.16,3.19,3.25,3.39,3.40,3.40
220.03,0.20,-3.13,0.20,-3.13,3.14,3.19,3.28,3.34,3.34,3.33
222.23,0.17,-3.11,0.17,-3.12,3.13,3.19,3.31,3.30,3.30,3.27
224.45,0.13,-3.10,0.13,-3.11,3.12,3.19,3.34,3.25,3.25,3.23
226.70,0.10,-3.13,0.10,-3.10,3.12,3.19,3.37,3.22,3.22,3.23
228.96,0.07,-3.09,0.07,-3.10,3.12,3.19,3.40,3.19,3.19,3.16
231.25,0.04,-3.09,0.03,-3.11,3.12,3.18,3.42,3.15,3.15,3.13
233.57,-0.00,-3.13,-0.00,-3.13,3.13,3.18,3.44,3.13,3.13,3.13
235.90,-0.04,-3.17,-0.04,-3.15,3.14,3.18,3.46,3.10,3.10,3.13
238.26,-0.08,-3.17,-0.08,-3.17,3.15,3.18,3.48,3.07,3.07,3.09
240.64,-0.12,-3.15,-0.12,-3.17,3.16,3.17,3.49,3.04,3.05,3.03
243.05,-0.15,-3.18,-0.15,-3.16,3.17,3.17,3.50,3.02,3.02,3.03
245.48,-0.19,-3.17,-0.19,-3.17,3.17,3.17,3.51,2.98,2.98,2.98
247.93,-0.22,-3.15,-0.22,-3.18,3.17,3.16,3.51,2.95,2.95,2.93
250.41,-0.26,-3.19,-0.26,-3.18,3.16,3.16,3.51,2.90,2.90,2.93
252.92,-0.30,-3.18,-0.30,-3.17,3.16,3.15,3.51,2.86,2.86,2.88
255.45,-0.34,-3.15,-0.34,-3.15,3.15,3.15,3.50,2.81,2.81,2.81
258.00,-0.38,-3.11,-0.38,-3.14,3.15,3.14,3.49,2.77,2.77,2.73
260.58,-0.42,-3.15,-0.42,-3.13,3.15,3.14,3.48,2.73,2.73,2.73
263.19,-0.45,-3.15,-0.45,-3.13,3.16,3.13,3.46,2.70,2.70,2.70
265.82,-0.49,-3.12,-0.49,-3.14,3.16,3.12,3.44,2.68,2.67,2.63
268.48,-0.52,-3.15,-0.52,-3.16,3.16,3.11,3.42,2.64,2.64,2.63
271.16,-0.56,-3.19,-0.56,-3.18,3.16,3.11,3.39,2.61,2.61,2.63
273.87,-0.59,-3.22,-0.59,-3.20,3.16,3.10,3.36,2.57,2.57,2.63
276.61,-0.63,-3.19,-0.63,-3.19,3.16,3.09,3.33,2.53,2.53,2.56
279.38,-0.66,-3.16,-0.66,-3.16,3.15,3.08,3.30,2.49,2.49,2.49
282.17,-0.69,-3.12,-0.69,-3.12,3.15,3.07,3.27,2.45,2.45,2.43
284.99,-0.73,-3.08,-0.73,-3.09,3.13,3.06,3.23,2.41,2.41,2.35
287.84,-0.76,-3.08,-0.76,-3.10,3.12,3.05,3.20,2.36,2.36,2.33
290.72,-0.78,-3.11,-0.78,-3.10,3.10,3.05,3.16,2.32,2.32,2.33
293.63,-0.80,-3.13,-0.80,-3.10,3.09,3.04,3.12,2.29,2.29,2.33
296.57,-0.82,-3.08,-0.82,-3.10,3.07,3.03,3.08,2.26,2.26,2.27
299.53,-0.83,-3.06,-0.83,-3.07,3.06,3.02,3.05,2.23,2.23,2.23
302.53,-0.83,-3.06,-0.83,-3.04,3.04,3.01,3.01,2.20,2.20,2.23
305.55,-0.84,-3.01,-0.84,-3.02,3.01,3.00,2.97,2.17,2.17,2.17
308.61,-0.85,-2.98,-0.85,-2.99,2.99,2.99,2.94,2.14,2.14,2.13
311.69,-0.86,-2.99,-0.86,-2.96,2.97,2.98,2.91,2.12,2.12,2.13
314.81,-0.87,-2.93,-0.87,-2.94,2.96,2.97,2.87,2.09,2.09,2.06
317.96,-0.89,-2.92,-0.89,-2.93,2.96,2.96,2.84,2.07,2.07,2.03
321.14,-0.90,-2.93,-0.90,-2.93,2.95,2.95,2.81,2.05,2.05,2.03
324.35,-0.92,-2.95,-0.92,-2.95,2.94,2.94,2.78,2.02,2.02,2.03
327.59,-0.94,-2.97,-0.94,-2.97,2.93,2.93,2.75,1.99,1.99,2.03
330.87,-0.96,-2.97,-0.96,-2.96,2.92,2.93,2.73,1.96,1.96,2.01
334.18,-0.98,-2.93,-0.98,-2.93,2.90,2.92,2.70,1.92,1.92,1.95
337.52,-1.01,-2.89,-1.01,-2.89,2.89,2.91,2.68,1.88,1.88,1.88
340.90,-1.03,-2.84,-1.03,-2.84,2.87,2.91,2.66,1.84,1.84,1.81
344.30,-1.06,-2.80,-1.06,-2.81,2.85,2.90,2.64,1.79,1.79,1.74
347.75,-1.08,-2.81,-1.08,-2.82,2.83,2.89,2.62,1.75,1.75,1.73
351.23,-1.10,-2.83,-1.11,-2.83,2.82,2.89,2.61,1.72,1.72,1.73
354.74,-1.13,-2.86,-1.13,-2.84,2.83,2.88,2.60,1.69,1.69,1.73
358.28,-1.16,-2.82,-1.16,-2.83,2.84,2.88,2.59,1.68,1.68,1.66
361.87,-1.18,-2.81,-1.18,-2.83,2.86,2.88,2.58,1.68,1.68,1.63
365.49,-1.21,-2.85,-1.21,-2.87,2.88,2.87,2.57,1.67,1.67,1.64
369.14,-1.23,-2.93,-1.23,-2.90,2.90,2.87,2.57,1.67,1.67,1.70
372.83,-1.26,-2.95,-1.26,-2.93,2.90,2.86,2.57,1.65,1.65,1.69
376.56,-1.28,-2.91,-1.28,-2.94,2.90,2.86,2.57,1.62,1.62,1.63
380.33,-1.30,-2.93,-1.30,-2.92,2.89,2.86,2.57,1.59,1.59,1.63
384.13,-1.33,-2.91,-1.33,-2.90,2.88,2.85,2.57,1.55,1.55,1.59
387.97,-1.35,-2.86,-1.35,-2.87,2.86,2.85,2.58,1.51,1.51,1.51
391.85,-1.37,-2.82,-1.37,-2.81,2.85,2.85,2.58,1.48,1.48,1.45
395.77,-1.39,-2.77,-1.39,-2.78,2.84,2.84,2.59,1.44,1.44,1.37
399.73,-1.41,-2.77,-1.41,-2.79,2.83,2.84,2.60,1.42,1.42,1.36
403.72,-1.43,-2.85,-1.43,-2.82,2.84,2.84,2.61,1.41,1.41,1.42
407.76,-1.44,-2.87,-1.44,-2.87,2.86,2.83,2.62,1.41,1.41,1.43
411.84,-1.46,-2.89,-1.46,-2.90,2.88,2.83,2.63,1.42,1.42,1.43
415.96,-1.47,-2.90,-1.47,-2.90,2.89,2.82,2.65,1.42,1.42,1.43
420.12,-1.49,-2.92,-1.49,-2.92,2.90,2.82,2.66,1.42,1.42,1.43
424.32,-1.50,-2.93,-1.50,-2.93,2.90,2.81,2.67,1.40,1.40,1.43
428.56,-1.51,-2.93,-1.51,-2.91,2.89,2.81,2.69,1.38,1.38,1.42
432.85,-1.52,-2.87,-1.52,-2.88,2.86,2.80,2.70,1.34,1.34,1.35
437.18,-1.54,-2.82,-1.54,-2.82,2.83,2.80,2.72,1.29,1.29,1.28
441.55,-1.55,-2.77,-1.55,-2.77,2.79,2.79,2.73,1.24,1.24,1.22
445.96,-1.57,-2.72,-1.57,-2.74,2.76,2.79,2.75,1.19,1.19,1.15
450.42,-1.59,-2.72,-1.59,-2.71,2.73,2.78,2.76,1.14,1.14,1.13
454.93,-1.60,-2.72,-1.60,-2.69,2.70,2.77,2.77,1.10,1.10,1.11
459.48,-1.62,-2.66,-1.62,-2.68,2.68,2.76,2.78,1.07,1.07,1.04
464.07,-1.63,-2.66,-1.63,-2.67,2.66,2.76,2.79,1.03,1.03,1.03
468.71,-1.64,-2.67,-1.64,-2.67,2.65,2.75,2.79,1.00,1.01,1.03
473.40,-1.65,-2.68,-1.65,-2.66,2.63,2.74,2.80,0.98,0.98,1.03
478.13,-1.66,-2.63,-1.65,-2.64,2.61,2.73,2.80,0.96,0.96,0.97
482.91,-1.66,-2.59,-1.66,-2.60,2.60,2.72,2.80,0.94,0.94,0.93
487.74,-1.66,-2.59,-1.66,-2.56,2.59,2.71,2.80,0.93,0.93,0.93
492.62,-1.67,-2.53,-1.67,-2.55,2.59,2.70,2.79,0.93,0.93,0.86
497.55,-1.67,-2.54,-1.68,-2.56,2.60,2.69,2.79,0.92,0.92,0.87
502.52,-1.69,-2.62,-1.69,-2.59,2.60,2.68,2.78,0.92,0.92,0.93
507.55,-1.70,-2.63,-1.70,-2.63,2.61,2.66,2.76,0.91,0.91,0.93
512.62,-1.71,-2.64,-1.71,-2.65,2.61,2.65,2.75,0.90,0.90,0.93
517.75,-1.72,-2.65,-1.72,-2.65,2.62,2.64,2.73,0.90,0.90,0.93
522.93,-1.73,-2.66,-1.73,-2.64,2.62,2.63,2.71,0.89,0.89,0.93
528.16,-1.74,-2.61,-1.74,-2.61,2.62,2.61,2.69,0.88,0.88,0.88
533.44,-1.74,-2.57,-1.74,-2.58,2.61,2.60,2.66,0.87,0.87,0.83
538.77,-1.74,-2.57,-1.74,-2.56,2.59,2.59,2.63,0.85,0.85,0.83
544.16,-1.74,-2.57,-1.74,-2.57,2.57,2.57,2.61,0.83,0.83,0.83
549.60,-1.74,-2.57,-1.74,-2.57,2.55,2.56,2.58,0.81,0.81,0.83
