frequency,raw,error,smoothed,error_smoothed,equalization,parametric_eq,fixed_band_eq,equalized_raw,equalized_smoothed,target
20.00,8.60,-1.48,8.60,-1.48,1.48,-0.13,0.29,10.08,10.08,10.08
20.20,8.63,-1.46,8.63,-1.46,1.46,-0.13,0.30,10.09,10.09,10.09
20.40,8.67,-1.43,8.67,-1.43,1.43,-0.14,0.31,10.10,10.10,10.10
20.61,8.70,-1.41,8.70,-1.41,1.41,-0.14,0.32,10.11,10.11,10.11
20.81,8.73,-1.39,8.73,-1.39,1.39,-0.14,0.33,10.12,10.12,10.12
21.02,8.75,-1.37,8.76,-1.37,1.38,-0.14,0.34,10.13,10.13,10.13
21.23,8.78,-1.35,8.78,-1.35,1.36,-0.15,0.35,10.14,10.14,10.14
21.44,8.80,-1.34,8.80,-1.34,1.34,-0.15,0.37,10.15,10.15,10.14
21.66,8.83,-1.33,8.83,-1.33,1.33,-0.15,0.38,10.15,10.15,10.15
21.87,8.85,-1.32,8.85,-1.32,1.31,-0.16,0.39,10.16,10.16,10.16
22.09,8.86,-1.30,8.86,-1.30,1.30,-0.16,0.40,10.17,10.17,10.17
22.31,8.88,-1.29,8.88,-1.29,1.29,-0.16,0.42,10.17,10.17,10.17
22.54,8.90,-1.28,8.90,-1.28,1.28,-0.17,0.43,10.17,10.17,10.18
22.76,8.91,-1.26,8.91,-1.26,1.26,-0.17,0.45,10.18,10.18,10.18
22.99,8.93,-1.25,8.93,-1.25,1.25,-0.17,0.46,10.18,10.18,10.18
23.22,8.94,-1.23,8.94,-1.23,1.23,-0.18,0.48,10.18,10.18,10.18
23.45,8.96,-1.22,8.96,-1.22,1.22,-0.18,0.49,10.18,10.18,10.18
23.69,8.97,-1.20,8.97,-1.20,1.20,-0.18,0.51,10.18,10.18,10.18
23.92,8.99,-1.18,8.99,-1.18,1.18,-0.19,0.52,10.18,10.18,10.18
24.16,9.01,-1.17,9.01,-1.17,1.16,-0.19,0.54,10.17,10.17,10.18
24.40,9.03,-1.14,9.03,-1.14,1.14,-0.20,0.55,10.17,10.17,10.17
24.65,9.05,-1.12,9.05,-1.12,1.11,-0.20,0.57,10.16,10.16,10.17
24.89,9.08,-1.08,9.08,-1.08,1.08,-0.20,0.59,10.16,10.16,10.16
25.14,9.11,-1.05,9.11,-1.05,1.04,-0.21,0.60,10.15,10.15,10.16
25.39,9.14,-1.01,9.14,-1.01,1.00,-0.21,0.62,10.14,10.15,10.15
25.65,9.18,-0.96,9.18,-0.96,0.96,-0.22,0.64,10.14,10.14,10.14
25.91,9.21,-0.92,9.21,-0.92,0.92,-0.22,0.65,10.13,10.13,10.13
26.16,9.25,-0.88,9.25,-0.88,0.88,-0.23,0.67,10.13,10.13,10.12
26.43,9.28,-0.84,9.28,-0.84,0.84,-0.23,0.68,10.12,10.12,10.12
26.69,9.30,-0.80,9.30,-0.80,0.81,-0.24,0.70,10.11,10.11,10.11
26.96,9.33,-0.77,9.33,-0.77,0.78,-0.24,0.71,10.10,10.10,10.10
27.23,9.34,-0.74,9.34,-0.75,0.75,-0.25,0.72,10.09,10.09,10.09
27.50,9.36,-0.72,9.36,-0.72,0.72,-0.25,0.73,10.07,10.07,10.08
27.77,9.37,-0.69,9.37,-0.69,0.69,-0.26,0.75,10.06,10.06,10.06
28.05,9.38,-0.66,9.38,-0.66,0.66,-0.26,0.76,10.04,10.04,10.05
28.33,9.40,-0.63,9.40,-0.63,0.62,-0.27,0.76,10.03,10.03,10.03
28.62,9.42,-0.59,9.42,-0.59,0.59,-0.27,0.77,10.01,10.01,10.02
28.90,9.44,-0.56,9.45,-0.56,0.56,-0.28,0.78,10.00,10.00,10.00
29.19,9.47,-0.52,9.47,-0.52,0.52,-0.29,0.78,9.99,9.99,9.99
29.48,9.49,-0.49,9.49,-0.49,0.49,-0.29,0.78,9.98,9.98,9.97
29.78,9.50,-0.46,9.50,-0.46,0.46,-0.30,0.78,9.96,9.96,9.96
30.08,9.51,-0.43,9.51,-0.43,0.43,-0.30,0.78,9.95,9.95,9.95
30.38,9.52,-0.41,9.52,-0.41,0.41,-0.31,0.78,9.93,9.93,9.93
30.68,9.52,-0.38,9.52,-0.38,0.38,-0.32,0.77,9.91,9.91,9.91
30.99,9.52,-0.36,9.52,-0.36,0.36,-0.32,0.76,9.89,9.89,9.88
31.30,9.52,-0.34,9.52,-0.34,0.34,-0.33,0.75,9.87,9.87,9.86
31.61,9.52,-0.32,9.52,-0.32,0.33,-0.34,0.74,9.85,9.85,9.84
31.93,9.52,-0.31,9.52,-0.31,0.31,-0.34,0.72,9.83,9.83,9.83
32.24,9.52,-0.29,9.52,-0.29,0.29,-0.35,0.71,9.81,9.81,9.81
32.57,9.51,-0.28,9.51,-0.28,0.27,-0.36,0.69,9.79,9.79,9.79
32.89,9.51,-0.26,9.51,-0.26,0.25,-0.37,0.67,9.76,9.76,9.77
33.22,9.51,-0.23,9.51,-0.23,0.23,-0.37,0.64,9.74,9.74,9.74
33.55,9.52,-0.20,9.52,-0.20,0.20,-0.38,0.62,9.72,9.72,9.72
33.89,9.53,-0.16,9.53,-0.17,0.17,-0.39,0.59,9.69,9.69,9.69
34.23,9.54,-0.13,9.54,-0.13,0.13,-0.40,0.56,9.67,9.67,9.67
34.57,9.56,-0.09,9.56,-0.09,0.09,-0.41,0.53,9.65,9.65,9.65
34.92,9.58,-0.05,9.58,-0.05,0.05,-0.42,0.50,9.62,9.62,9.63
35.27,9.59,-0.01,9.59,-0.01,0.01,-0.43,0.46,9.60,9.60,9.60
35.62,9.61,0.03,9.61,0.03,-0.03,-0.44,0.43,9.58,9.58,9.57
35.97,9.62,0.08,9.62,0.08,-0.07,-0.44,0.39,9.55,9.55,9.54
36.33,9.63,0.12,9.63,0.12,-0.11,-0.45,0.35,9.52,9.52,9.51
36.70,9.63,0.15,9.63,0.15,-0.15,-0.46,0.32,9.49,9.49,9.48
37.06,9.64,0.18,9.64,0.18,-0.18,-0.47,0.28,9.45,9.45,9.45
37.43,9.64,0.21,9.64,0.21,-0.22,-0.48,0.23,9.42,9.42,9.43
37.81,9.64,0.24,9.64,0.24,-0.25,-0.50,0.19,9.39,9.39,9.39
38.19,9.64,0.28,9.64,0.28,-0.28,-0.51,0.15,9.36,9.36,9.36
38.57,9.64,0.31,9.64,0.31,-0.31,-0.52,0.11,9.33,9.33,9.33
38.95,9.64,0.35,9.64,0.35,-0.34,-0.53,0.06,9.30,9.30,9.30
39.34,9.64,0.38,9.64,0.38,-0.38,-0.54,0.02,9.27,9.27,9.27
39.74,9.64,0.41,9.64,0.41,-0.41,-0.55,-0.03,9.23,9.23,9.24
40.14,9.64,0.44,9.64,0.44,-0.44,-0.56,-0.07,9.20,9.20,9.21
40.54,9.64,0.47,9.64,0.47,-0.48,-0.58,-0.12,9.17,9.17,9.17
40.94,9.64,0.51,9.64,0.51,-0.51,-0.59,-0.16,9.13,9.13,9.13
41.35,9.64,0.55,9.64,0.55,-0.54,-0.60,-0.21,9.10,9.10,9.09
41.76,9.64,0.58,9.64,0.58,-0.58,-0.62,-0.26,9.07,9.07,9.06
42.18,9.64,0.61,9.64,0.61,-0.61,-0.63,-0.30,9.03,9.03,9.03
42.60,9.64,0.64,9.64,0.64,-0.64,-0.64,-0.35,8.99,8.99,9.00
43.03,9.64,0.67,9.63,0.67,-0.68,-0.66,-0.40,8.96,8.96,8.97
43.46,9.63,0.71,9.63,0.71,-0.71,-0.67,-0.45,8.92,8.92,8.92
43.90,9.62,0.74,9.62,0.74,-0.74,-0.69,-0.50,8.88,8.88,8.88
44.33,9.62,0.78,9.62,0.78,-0.77,-0.70,-0.55,8.84,8.84,8.83
44.78,9.61,0.81,9.61,0.81,-0.81,-0.72,-0.60,8.80,8.80,8.80
45.23,9.60,0.84,9.60,0.84,-0.84,-0.74,-0.65,8.76,8.76,8.76
45.68,9.60,0.87,9.60,0.87,-0.87,-0.75,-0.70,8.72,8.72,8.73
46.13,9.59,0.90,9.59,0.90,-0.91,-0.77,-0.75,8.68,8.68,8.69
46.60,9.58,0.94,9.58,0.94,-0.94,-0.79,-0.80,8.64,8.64,8.65
47.06,9.57,0.98,9.57,0.97,-0.97,-0.81,-0.85,8.60,8.60,8.60
47.53,9.57,1.01,9.57,1.01,-1.01,-0.83,-0.90,8.56,8.56,8.55
48.01,9.56,1.05,9.56,1.05,-1.04,-0.85,-0.95,8.52,8.52,8.51
48.49,9.55,1.08,9.55,1.08,-1.08,-0.86,-1.01,8.47,8.47,8.47
48.97,9.54,1.11,9.54,1.11,-1.11,-0.89,-1.06,8.43,8.43,8.43
49.46,9.53,1.14,9.53,1.14,-1.14,-0.91,-1.11,8.39,8.39,8.39
49.96,9.52,1.17,9.52,1.17,-1.18,-0.93,-1.16,8.34,8.34,8.35
50.46,9.51,1.21,9.51,1.21,-1.21,-0.95,-1.22,8.30,8.30,8.30
50.96,9.49,1.24,9.49,1.25,-1.24,-0.97,-1.27,8.25,8.25,8.25
51.47,9.48,1.28,9.48,1.28,-1.28,-0.99,-1.32,8.21,8.21,8.20
51.99,9.47,1.32,9.47,1.31,-1.31,-1.02,-1.37,8.16,8.16,8.15
52.51,9.46,1.35,9.46,1.35,-1.34,-1.04,-1.43,8.11,8.11,8.11
53.03,9.44,1.38,9.44,1.38,-1.38,-1.07,-1.48,8.07,8.07,8.07
53.56,9.43,1.41,9.43,1.41,-1.41,-1.09,-1.53,8.02,8.02,8.02
54.10,9.41,1.44,9.41,1.44,-1.44,-1.12,-1.58,7.97,7.97,7.98
54.64,9.40,1.47,9.40,1.47,-1.48,-1.15,-1.63,7.92,7.92,7.93
55.18,9.39,1.51,9.39,1.51,-1.51,-1.17,-1.68,7.88,7.88,7.87
55.74,9.37,1.55,9.37,1.55,-1.54,-1.20,-1.72,7.83,7.83,7.82
56.29,9.36,1.58,9.36,1.58,-1.58,-1.23,-1.77,7.78,7.78,7.78
56.86,9.34,1.61,9.34,1.61,-1.61,-1.26,-1.82,7.73,7.73,7.73
57.42,9.32,1.64,9.32,1.64,-1.64,-1.29,-1.86,7.68,7.68,7.68
58.00,9.31,1.67,9.31,1.67,-1.68,-1.32,-1.90,7.63,7.63,7.64
58.58,9.29,1.70,9.29,1.70,-1.71,-1.36,-1.94,7.58,7.58,7.58
59.16,9.27,1.74,9.27,1.74,-1.74,-1.39,-1.98,7.53,7.53,7.53
59.76,9.25,1.78,9.25,1.78,-1.78,-1.43,-2.02,7.47,7.47,7.47
60.35,9.23,1.81,9.23,1.81,-1.81,-1.46,-2.05,7.42,7.42,7.42
60.96,9.21,1.85,9.21,1.85,-1.84,-1.50,-2.08,7.37,7.37,7.36
61.57,9.19,1.88,9.19,1.88,-1.88,-1.53,-2.11,7.31,7.31,7.31
62.18,9.17,1.91,9.17,1.91,-1.91,-1.57,-2.14,7.26,7.26,7.26
62.80,9.15,1.94,9.15,1.94,-1.94,-1.61,-2.17,7.20,7.20,7.21
63.43,9.13,1.98,9.13,1.98,-1.98,-1.65,-2.19,7.15,7.15,7.15
64.07,9.10,2.01,9.10,2.01,-2.01,-1.69,-2.21,7.10,7.10,7.09
64.71,9.08,2.04,9.08,2.04,-2.04,-1.74,-2.23,7.04,7.04,7.04
65.35,9.06,2.07,9.06,2.07,-2.07,-1.78,-2.25,6.99,6.99,6.98
66.01,9.04,2.10,9.04,2.10,-2.11,-1.82,-2.27,6.93,6.93,6.93
66.67,9.02,2.14,9.02,2.14,-2.14,-1.87,-2.28,6.88,6.88,6.88
67.33,8.99,2.17,8.99,2.17,-2.17,-1.91,-2.30,6.82,6.82,6.82
68.01,8.97,2.20,8.97,2.20,-2.20,-1.96,-2.31,6.77,6.77,6.77
68.69,8.95,2.23,8.95,2.23,-2.23,-2.01,-2.32,6.71,6.71,6.71
69.37,8.92,2.27,8.92,2.27,-2.27,-2.06,-2.33,6.65,6.65,6.65
70.07,8.89,2.30,8.89,2.30,-2.30,-2.11,-2.34,6.59,6.59,6.59
70.77,8.87,2.34,8.87,2.33,-2.33,-2.16,-2.35,6.53,6.53,6.53
71.48,8.84,2.37,8.84,2.37,-2.37,-2.21,-2.36,6.47,6.47,6.47
72.19,8.82,2.40,8.82,2.40,-2.40,-2.26,-2.36,6.42,6.42,6.41
72.91,8.79,2.44,8.79,2.43,-2.44,-2.32,-2.37,6.36,6.36,6.36
73.64,8.77,2.47,8.77,2.47,-2.47,-2.37,-2.38,6.30,6.30,6.30
74.38,8.75,2.50,8.75,2.50,-2.51,-2.42,-2.39,6.24,6.24,6.24
75.12,8.72,2.54,8.72,2.54,-2.54,-2.48,-2.40,6.18,6.18,6.19
75.87,8.70,2.58,8.70,2.58,-2.58,-2.53,-2.41,6.12,6.12,6.12
76.63,8.67,2.61,8.67,2.61,-2.61,-2.59,-2.42,6.06,6.06,6.06
77.40,8.64,2.65,8.64,2.65,-2.64,-2.64,-2.43,6.00,6.00,5.99
78.17,8.61,2.68,8.61,2.68,-2.67,-2.70,-2.44,5.93,5.93,5.93
78.95,8.57,2.71,8.57,2.71,-2.70,-2.75,-2.46,5.87,5.87,5.87
79.74,8.54,2.73,8.54,2.73,-2.73,-2.80,-2.48,5.81,5.81,5.81
80.54,8.51,2.75,8.51,2.75,-2.75,-2.85,-2.49,5.75,5.75,5.75
81.35,8.47,2.78,8.47,2.78,-2.78,-2.91,-2.51,5.69,5.69,5.70
82.16,8.44,2.80,8.44,2.80,-2.80,-2.96,-2.53,5.64,5.64,5.64
82.98,8.41,2.82,8.41,2.82,-2.82,-3.00,-2.56,5.58,5.58,5.58
83.81,8.37,2.85,8.37,2.85,-2.85,-3.05,-2.58,5.52,5.52,5.52
84.65,8.34,2.88,8.34,2.88,-2.88,-3.10,-2.61,5.46,5.46,5.46
85.50,8.30,2.91,8.30,2.91,-2.91,-3.14,-2.64,5.39,5.39,5.40
86.35,8.27,2.94,8.27,2.94,-2.94,-3.18,-2.67,5.33,5.33,5.33
87.22,8.24,2.97,8.24,2.97,-2.98,-3.22,-2.70,5.26,5.26,5.26
88.09,8.21,3.01,8.21,3.01,-3.01,-3.26,-2.74,5.20,5.20,5.20
88.97,8.18,3.05,8.18,3.05,-3.05,-3.29,-2.77,5.13,5.13,5.13
89.86,8.15,3.09,8.15,3.09,-3.08,-3.33,-2.81,5.06,5.06,5.06
90.76,8.11,3.12,8.11,3.12,-3.12,-3.36,-2.86,5.00,5.00,4.99
91.66,8.08,3.16,8.08,3.16,-3.15,-3.39,-2.90,4.93,4.93,4.92
92.58,8.04,3.19,8.04,3.19,-3.19,-3.41,-2.94,4.86,4.85,4.85
93.51,8.00,3.22,8.00,3.22,-3.22,-3.43,-2.99,4.78,4.78,4.78
94.44,7.96,3.25,7.96,3.25,-3.25,-3.45,-3.04,4.70,4.70,4.71
95.39,7.91,3.28,7.91,3.28,-3.29,-3.47,-3.09,4.63,4.63,4.63
96.34,7.87,3.32,7.87,3.32,-3.32,-3.49,-3.15,4.55,4.56,4.56
97.30,7.84,3.35,7.84,3.35,-3.35,-3.50,-3.20,4.49,4.49,4.48
98.28,7.80,3.39,7.80,3.39,-3.38,-3.51,-3.26,4.42,4.42,4.41
99.26,7.76,3.42,7.76,3.42,-3.41,-3.53,-3.32,4.35,4.35,4.34
100.25,7.72,3.44,7.72,3.44,-3.44,-3.53,-3.38,4.28,4.28,4.28
101.25,7.68,3.46,7.68,3.46,-3.47,-3.54,-3.44,4.21,4.22,4.22
102.27,7.64,3.49,7.64,3.49,-3.50,-3.55,-3.50,4.15,4.15,4.16
103.29,7.61,3.52,7.61,3.52,-3.53,-3.55,-3.56,4.08,4.08,4.09
104.32,7.58,3.55,7.57,3.55,-3.56,-3.56,-3.62,4.02,4.01,4.03
105.37,7.54,3.59,7.54,3.59,-3.59,-3.56,-3.69,3.94,3.94,3.95
106.42,7.50,3.63,7.50,3.63,-3.62,-3.57,-3.75,3.87,3.87,3.87
107.48,7.45,3.66,7.45,3.66,-3.65,-3.57,-3.81,3.80,3.80,3.79
108.56,7.41,3.69,7.41,3.69,-3.68,-3.58,-3.87,3.73,3.73,3.72
109.64,7.37,3.71,7.37,3.71,-3.70,-3.58,-3.93,3.67,3.67,3.65
110.74,7.32,3.73,7.32,3.73,-3.72,-3.59,-3.99,3.60,3.60,3.59
111.85,7.28,3.73,7.28,3.73,-3.74,-3.59,-4.04,3.54,3.54,3.55
112.97,7.23,3.74,7.23,3.74,-3.75,-3.60,-4.10,3.48,3.48,3.49
114.10,7.19,3.75,7.19,3.75,-3.77,-3.60,-4.15,3.42,3.42,3.43
115.24,7.14,3.77,7.14,3.77,-3.78,-3.61,-4.19,3.36,3.36,3.37
116.39,7.09,3.79,7.09,3.79,-3.80,-3.61,-4.24,3.30,3.30,3.30
117.55,7.04,3.82,7.04,3.82,-3.81,-3.62,-4.28,3.23,3.23,3.23
118.73,6.99,3.84,6.99,3.84,-3.83,-3.63,-4.31,3.16,3.16,3.16
119.92,6.94,3.85,6.94,3.85,-3.84,-3.64,-4.34,3.10,3.10,3.09
121.12,6.89,3.86,6.89,3.86,-3.86,-3.65,-4.37,3.03,3.03,3.03
122.33,6.84,3.87,6.84,3.87,-3.87,-3.66,-4.39,2.97,2.97,2.96
123.55,6.78,3.87,6.78,3.87,-3.87,-3.67,-4.41,2.91,2.91,2.91
124.79,6.73,3.87,6.73,3.88,-3.88,-3.68,-4.42,2.85,2.85,2.86
126.03,6.67,3.88,6.67,3.88,-3.89,-3.69,-4.43,2.79,2.79,2.79
127.29,6.62,3.89,6.62,3.89,-3.89,-3.71,-4.43,2.73,2.73,2.73
128.57,6.57,3.90,6.57,3.90,-3.90,-3.72,-4.42,2.67,2.67,2.67
129.85,6.52,3.91,6.52,3.91,-3.91,-3.73,-4.41,2.61,2.61,2.61
131.15,6.47,3.91,6.47,3.92,-3.91,-3.75,-4.40,2.56,2.56,2.56
132.46,6.42,3.92,6.42,3.92,-3.92,-3.76,-4.38,2.50,2.50,2.50
133.79,6.36,3.93,6.36,3.93,-3.92,-3.78,-4.36,2.44,2.44,2.43
135.12,6.30,3.93,6.30,3.93,-3.93,-3.80,-4.33,2.38,2.38,2.37
136.48,6.24,3.93,6.24,3.93,-3.93,-3.82,-4.30,2.31,2.31,2.31
137.84,6.18,3.93,6.18,3.93,-3.94,-3.83,-4.26,2.25,2.25,2.25
139.22,6.13,3.94,6.13,3.94,-3.94,-3.85,-4.23,2.19,2.19,2.19
140.61,6.07,3.94,6.07,3.94,-3.95,-3.87,-4.19,2.12,2.12,2.13
142.02,6.02,3.95,6.02,3.95,-3.96,-3.89,-4.15,2.07,2.07,2.07
143.44,5.97,3.96,5.97,3.96,-3.96,-3.91,-4.11,2.01,2.01,2.01
144.87,5.92,3.97,5.92,3.97,-3.97,-3.92,-4.06,1.95,1.95,1.95
146.32,5.87,3.98,5.87,3.98,-3.97,-3.94,-4.02,1.90,1.90,1.89
147.78,5.82,3.98,5.82,3.98,-3.98,-3.96,-3.98,1.84,1.84,1.84
149.26,5.76,3.98,5.76,3.98,-3.97,-3.98,-3.93,1.78,1.78,1.78
150.75,5.70,3.97,5.70,3.97,-3.97,-4.00,-3.89,1.73,1.73,1.72
152.26,5.63,3.96,5.63,3.96,-3.96,-4.02,-3.84,1.67,1.67,1.67
153.78,5.56,3.95,5.56,3.95,-3.94,-4.03,-3.80,1.62,1.62,1.61
155.32,5.49,3.93,5.49,3.93,-3.93,-4.05,-3.76,1.57,1.57,1.56
156.88,5.42,3.92,5.42,3.91,-3.91,-4.07,-3.72,1.51,1.51,1.51
158.44,5.36,3.90,5.35,3.90,-3.90,-4.08,-3.68,1.46,1.45,1.46
160.03,5.29,3.88,5.29,3.88,-3.89,-4.10,-3.64,1.40,1.40,1.41
161.63,5.24,3.88,5.24,3.88,-3.90,-4.11,-3.61,1.34,1.34,1.36
163.24,5.20,3.90,5.20,3.89,-3.91,-4.13,-3.57,1.29,1.29,1.30
164.88,5.17,3.92,5.17,3.92,-3.93,-4.14,-3.55,1.24,1.24,1.25
166.53,5.15,3.95,5.15,3.95,-3.96,-4.15,-3.52,1.19,1.19,1.20
168.19,5.15,3.99,5.15,4.00,-4.00,-4.16,-3.49,1.15,1.15,1.16
169.87,5.15,4.05,5.15,4.04,-4.04,-4.17,-3.47,1.11,1.11,1.11
171.57,5.15,4.09,5.15,4.09,-4.09,-4.18,-3.45,1.07,1.07,1.06
173.29,5.15,4.14,5.15,4.14,-4.13,-4.19,-3.43,1.02,1.02,1.01
175.02,5.15,4.18,5.14,4.18,-4.17,-4.19,-3.41,0.98,0.98,0.97
176.77,5.13,4.20,5.13,4.20,-4.19,-4.20,-3.40,0.93,0.93,0.92
178.54,5.10,4.22,5.10,4.22,-4.22,-4.20,-3.39,0.88,0.88,0.88
180.32,5.07,4.23,5.06,4.23,-4.23,-4.20,-3.38,0.84,0.84,0.84
182.13,5.03,4.23,5.02,4.23,-4.23,-4.20,-3.38,0.79,0.79,0.79
183.95,4.98,4.23,4.98,4.23,-4.23,-4.20,-3.38,0.75,0.75,0.75
185.79,4.93,4.21,4.93,4.22,-4.22,-4.19,-3.38,0.71,0.71,0.71
187.65,4.88,4.20,4.88,4.20,-4.20,-4.19,-3.38,0.67,0.67,0.68
189.52,4.82,4.19,4.82,4.18,-4.19,-4.18,-3.39,0.64,0.64,0.64
191.42,4.77,4.16,4.77,4.16,-4.17,-4.17,-3.40,0.60,0.60,0.60
193.33,4.71,4.14,4.71,4.14,-4.15,-4.16,-3.41,0.56,0.56,0.57
195.27,4.66,4.12,4.66,4.12,-4.12,-4.15,-3.42,0.53,0.53,0.53
197.22,4.60,4.10,4.60,4.10,-4.10,-4.14,-3.43,0.50,0.50,0.50
199.19,4.55,4.07,4.55,4.07,-4.07,-4.12,-3.45,0.47,0.47,0.47
201.18,4.49,4.05,4.49,4.05,-4.05,-4.10,-3.47,0.44,0.44,0.44
203.19,4.43,4.02,4.43,4.02,-4.02,-4.08,-3.48,0.41,0.41,0.41
205.23,4.37,3.99,4.37,3.99,-3.99,-4.06,-3.50,0.38,0.38,0.38
207.28,4.31,3.96,4.31,3.96,-3.96,-4.04,-3.52,0.35,0.35,0.35
209.35,4.25,3.93,4.25,3.93,-3.93,-4.01,-3.54,0.32,0.32,0.32
211.44,4.19,3.89,4.19,3.89,-3.89,-3.98,-3.57,0.30,0.30,0.30
213.56,4.13,3.86,4.13,3.86,-3.86,-3.95,-3.59,0.27,0.27,0.28
215.69,4.08,3.82,4.08,3.82,-3.82,-3.92,-3.61,0.25,0.25,0.25
217.85,4.02,3.79,4.02,3.79,-3.79,-3.89,-3.63,0.23,0.23,0.23
220.03,3.96,3.75,3.96,3.75,-3.75,-3.85,-3.64,0.21,0.21,0.21
222.23,3.90,3.71,3.90,3.71,-3.71,-3.82,-3.66,0.19,0.19,0.19
224.45,3.84,3.67,3.84,3.67,-3.68,-3.78,-3.68,0.17,0.17,0.17
226.70,3.79,3.63,3.79,3.64,-3.64,-3.74,-3.69,0.15,0.15,0.15
228.96,3.73,3.60,3.73,3.60,-3.59,-3.69,-3.70,0.13,0.13,0.13
231.25,3.67,3.56,3.67,3.55,-3.55,-3.65,-3.70,0.12,0.12,0.11
233.57,3.61,3.51,3.61,3.51,-3.51,-3.60,-3.70,0.10,0.10,0.10
235.90,3.56,3.46,3.55,3.46,-3.46,-3.55,-3.70,0.09,0.09,0.09
238.26,3.50,3.42,3.50,3.42,-3.42,-3.51,-3.70,0.08,0.08,0.08
240.64,3.44,3.37,3.44,3.37,-3.37,-3.45,-3.69,0.07,0.07,0.07
243.05,3.38,3.32,3.38,3.32,-3.32,-3.40,-3.67,0.06,0.06,0.06
245.48,3.33,3.27,3.33,3.27,-3.27,-3.35,-3.65,0.06,0.06,0.06
247.93,3.27,3.22,3.27,3.22,-3.22,-3.29,-3.63,0.05,0.05,0.05
250.41,3.21,3.17,3.21,3.17,-3.17,-3.24,-3.59,0.05,0.05,0.05
252.92,3.16,3.11,3.16,3.11,-3.12,-3.18,-3.56,0.04,0.04,0.05
255.45,3.10,3.06,3.10,3.06,-3.06,-3.12,-3.52,0.04,0.04,0.04
258.00,3.05,3.01,3.05,3.01,-3.01,-3.06,-3.47,0.04,0.04,0.04
260.58,2.99,2.95,2.99,2.95,-2.95,-3.00,-3.42,0.04,0.04,0.04
263.19,2.94,2.90,2.94,2.90,-2.90,-2.94,-3.36,0.04,0.04,0.04
265.82,2.88,2.84,2.88,2.84,-2.84,-2.87,-3.30,0.04,0.04,0.04
268.48,2.82,2.78,2.82,2.78,-2.78,-2.81,-3.23,0.05,0.05,0.04
271.16,2.77,2.72,2.77,2.72,-2.72,-2.74,-3.16,0.05,0.05,0.05
273.87,2.71,2.66,2.71,2.66,-2.66,-2.67,-3.09,0.05,0.05,0.05
276.61,2.65,2.59,2.65,2.59,-2.60,-2.61,-3.01,0.06,0.06,0.06
279.38,2.60,2.53,2.60,2.53,-2.53,-2.54,-2.93,0.06,0.06,0.06
282.17,2.54,2.47,2.54,2.47,-2.47,-2.47,-2.84,0.07,0.07,0.07
284.99,2.49,2.41,2.49,2.41,-2.41,-2.40,-2.75,0.08,0.08,0.08
287.84,2.43,2.34,2.43,2.35,-2.34,-2.33,-2.66,0.09,0.09,0.09
290.72,2.38,2.28,2.38,2.28,-2.28,-2.26,-2.57,0.10,0.10,0.10
293.63,2.33,2.22,2.33,2.21,-2.21,-2.19,-2.48,0.11,0.11,0.11
296.57,2.27,2.15,2.27,2.15,-2.14,-2.11,-2.38,0.13,0.13,0.13
299.53,2.22,2.07,2.22,2.07,-2.07,-2.04,-2.28,0.15,0.15,0.15
302.53,2.17,2.00,2.17,2.00,-2.01,-1.97,-2.19,0.16,0.16,0.17
305.55,2.11,1.93,2.11,1.93,-1.93,-1.89,-2.09,0.18,0.18,0.18
308.61,2.06,1.86,2.06,1.86,-1.86,-1.82,-1.99,0.20,0.20,0.20
311.69,2.01,1.79,2.01,1.79,-1.79,-1.74,-1.89,0.21,0.21,0.21
314.81,1.95,1.72,1.95,1.72,-1.72,-1.67,-1.79,0.23,0.23,0.23
317.96,1.90,1.65,1.90,1.65,-1.65,-1.59,-1.69,0.25,0.25,0.25
321.14,1.85,1.57,1.85,1.57,-1.57,-1.52,-1.59,0.27,0.27,0.27
324.35,1.79,1.49,1.79,1.50,-1.50,-1.44,-1.49,0.30,0.30,0.30
327.59,1.74,1.42,1.74,1.42,-1.42,-1.37,-1.39,0.32,0.32,0.32
330.87,1.69,1.34,1.69,1.34,-1.35,-1.29,-1.29,0.34,0.34,0.34
334.18,1.64,1.27,1.64,1.27,-1.27,-1.21,-1.19,0.37,0.37,0.37
337.52,1.58,1.19,1.58,1.19,-1.19,-1.14,-1.10,0.39,0.39,0.39
340.90,1.53,1.12,1.53,1.12,-1.12,-1.06,-1.00,0.41,0.41,0.41
344.30,1.48,1.04,1.48,1.04,-1.04,-0.98,-0.90,0.44,0.44,0.44
347.75,1.43,0.96,1.43,0.96,-0.96,-0.90,-0.80,0.46,0.46,0.46
351.23,1.37,0.89,1.37,0.89,-0.89,-0.83,-0.71,0.49,0.49,0.49
354.74,1.32,0.81,1.32,0.81,-0.81,-0.75,-0.61,0.52,0.52,0.52
358.28,1.27,0.73,1.27,0.73,-0.73,-0.67,-0.52,0.55,0.55,0.54
361.87,1.22,0.65,1.22,0.65,-0.64,-0.59,-0.42,0.58,0.58,0.57
365.49,1.17,0.56,1.17,0.56,-0.56,-0.51,-0.33,0.61,0.61,0.61
369.14,1.12,0.47,1.12,0.48,-0.48,-0.44,-0.24,0.64,0.64,0.64
372.83,1.07,0.40,1.07,0.40,-0.40,-0.36,-0.14,0.67,0.67,0.67
376.56,1.02,0.32,1.02,0.31,-0.31,-0.28,-0.05,0.71,0.70,0.70
380.33,0.97,0.23,0.97,0.23,-0.23,-0.20,0.04,0.74,0.74,0.74
384.13,0.92,0.14,0.92,0.14,-0.14,-0.12,0.13,0.77,0.77,0.78
387.97,0.87,0.06,0.87,0.06,-0.06,-0.04,0.22,0.81,0.81,0.81
391.85,0.83,-0.02,0.83,-0.02,0.02,0.04,0.31,0.85,0.85,0.84
395.77,0.79,-0.09,0.79,-0.10,0.10,0.11,0.40,0.88,0.88,0.88
399.73,0.75,-0.18,0.75,-0.18,0.17,0.19,0.49,0.92,0.92,0.93
403.72,0.71,-0.26,0.71,-0.25,0.25,0.27,0.58,0.96,0.96,0.97
407.76,0.68,-0.33,0.68,-0.33,0.32,0.35,0.67,1.00,1.00,1.01
411.84,0.64,-0.39,0.64,-0.39,0.39,0.43,0.76,1.04,1.04,1.03
415.96,0.61,-0.46,0.61,-0.46,0.46,0.51,0.84,1.07,1.07,1.07
420.12,0.57,-0.54,0.57,-0.53,0.54,0.59,0.93,1.11,1.11,1.11
424.32,0.53,-0.60,0.53,-0.61,0.61,0.66,1.01,1.15,1.14,1.14
428.56,0.49,-0.68,0.49,-0.68,0.69,0.74,1.09,1.18,1.18,1.17
432.85,0.45,-0.77,0.45,-0.76,0.76,0.82,1.17,1.22,1.22,1.22
437.18,0.41,-0.85,0.41,-0.85,0.85,0.90,1.25,1.26,1.26,1.26
441.55,0.37,-0.93,0.37,-0.93,0.93,0.98,1.33,1.30,1.30,1.30
445.96,0.33,-1.01,0.33,-1.01,1.02,1.06,1.41,1.34,1.34,1.34
450.42,0.28,-1.10,0.28,-1.10,1.10,1.13,1.48,1.39,1.39,1.38
454.93,0.24,-1.19,0.24,-1.19,1.19,1.21,1.56,1.43,1.43,1.43
459.48,0.20,-1.28,0.20,-1.28,1.28,1.29,1.63,1.48,1.48,1.48
464.07,0.16,-1.37,0.16,-1.37,1.37,1.37,1.70,1.52,1.52,1.52
468.71,0.12,-1.46,0.12,-1.46,1.45,1.45,1.76,1.57,1.57,1.58
473.40,0.08,-1.54,0.08,-1.54,1.54,1.52,1.82,1.62,1.62,1.62
478.13,0.04,-1.62,0.04,-1.62,1.62,1.60,1.88,1.66,1.66,1.66
482.91,-0.00,-1.70,-0.00,-1.70,1.70,1.68,1.94,1.70,1.70,1.70
487.74,-0.04,-1.78,-0.04,-1.78,1.78,1.75,2.00,1.74,1.74,1.74
492.62,-0.08,-1.87,-0.08,-1.86,1.86,1.83,2.05,1.79,1.79,1.79
497.55,-0.11,-1.94,-0.11,-1.94,1.94,1.91,2.10,1.83,1.83,1.82
502.52,-0.15,-2.01,-0.15,-2.02,2.02,1.98,2.15,1.87,1.87,1.86
507.55,-0.19,-2.09,-0.19,-2.09,2.09,2.06,2.19,1.91,1.91,1.91
512.62,-0.22,-2.17,-0.22,-2.17,2.17,2.13,2.23,1.94,1.94,1.95
517.75,-0.26,-2.25,-0.26,-2.25,2.24,2.21,2.27,1.98,1.98,1.99
522.93,-0.29,-2.32,-0.29,-2.32,2.31,2.28,2.31,2.02,2.02,2.03
528.16,-0.33,-2.39,-0.33,-2.39,2.38,2.36,2.34,2.06,2.06,2.06
533.44,-0.36,-2.45,-0.36,-2.45,2.46,2.43,2.37,2.10,2.10,2.09
538.77,-0.39,-2.52,-0.39,-2.52,2.53,2.51,2.40,2.13,2.13,2.13
