frequency,raw,error,smoothed,error_smoothed,equalization,parametric_eq,fixed_band_eq,equalized_raw,equalized_smoothed,target
20.00,7.42,-4.71,7.42,-4.70,4.68,4.50,1.93,12.11,12.11,12.13
20.20,7.44,-4.69,7.44,-4.69,4.69,4.51,1.98,12.13,12.13,12.13
20.40,7.46,-4.67,7.46,-4.68,4.70,4.51,2.04,12.16,12.16,12.13
20.61,7.48,-4.66,7.48,-4.68,4.70,4.51,2.10,12.18,12.18,12.13
20.81,7.49,-4.71,7.49,-4.70,4.70,4.51,2.16,12.19,12.19,12.20
21.02,7.51,-4.72,7.51,-4.71,4.70,4.52,2.22,12.21,12.21,12.23
21.23,7.52,-4.71,7.52,-4.72,4.70,4.52,2.29,12.22,12.22,12.23
21.44,7.53,-4.70,7.53,-4.70,4.69,4.52,2.35,12.22,12.22,12.23
21.66,7.55,-4.68,7.55,-4.68,4.68,4.52,2.42,12.23,12.23,12.23
21.87,7.56,-4.67,7.56,-4.67,4.67,4.52,2.49,12.23,12.23,12.23
22.09,7.57,-4.66,7.57,-4.66,4.65,4.52,2.56,12.23,12.23,12.23
22.31,7.59,-4.64,7.59,-4.64,4.64,4.52,2.64,12.23,12.23,12.23
22.54,7.60,-4.63,7.60,-4.63,4.63,4.53,2.71,12.23,12.23,12.23
22.76,7.62,-4.61,7.62,-4.61,4.62,4.53,2.79,12.24,12.24,12.23
22.99,7.63,-4.60,7.63,-4.61,4.62,4.53,2.87,12.25,12.25,12.23
23.22,7.64,-4.60,7.64,-4.62,4.63,4.53,2.95,12.27,12.27,12.24
23.45,7.65,-4.67,7.65,-4.65,4.64,4.53,3.03,12.28,12.28,12.31
23.69,7.66,-4.67,7.66,-4.66,4.65,4.53,3.12,12.31,12.31,12.33
23.92,7.66,-4.67,7.66,-4.67,4.67,4.53,3.21,12.33,12.33,12.33
24.16,7.67,-4.66,7.67,-4.69,4.69,4.53,3.30,12.36,12.36,12.33
24.40,7.68,-4.72,7.68,-4.70,4.72,4.53,3.38,12.40,12.40,12.40
24.65,7.68,-4.75,7.68,-4.73,4.74,4.53,3.48,12.43,12.43,12.43
24.89,7.69,-4.74,7.69,-4.77,4.76,4.53,3.57,12.45,12.45,12.43
25.14,7.70,-4.79,7.70,-4.79,4.78,4.53,3.66,12.48,12.48,12.49
25.39,7.71,-4.82,7.71,-4.80,4.80,4.53,3.75,12.51,12.51,12.53
25.65,7.72,-4.81,7.72,-4.81,4.81,4.53,3.85,12.53,12.53,12.53
25.91,7.73,-4.80,7.73,-4.80,4.81,4.52,3.94,12.54,12.54,12.53
26.16,7.74,-4.79,7.74,-4.79,4.80,4.52,4.04,12.54,12.54,12.53
26.43,7.75,-4.78,7.75,-4.79,4.78,4.52,4.13,12.52,12.52,12.53
26.69,7.76,-4.77,7.76,-4.76,4.74,4.52,4.22,12.49,12.49,12.53
26.96,7.77,-4.72,7.77,-4.72,4.69,4.52,4.32,12.45,12.45,12.49
27.23,7.78,-4.65,7.78,-4.64,4.63,4.52,4.40,12.40,12.40,12.42
27.50,7.78,-4.55,7.78,-4.56,4.56,4.52,4.49,12.35,12.35,12.33
27.77,7.79,-4.48,7.79,-4.48,4.50,4.51,4.58,12.29,12.29,12.28
28.05,7.80,-4.42,7.80,-4.41,4.43,4.51,4.66,12.23,12.23,12.22
28.33,7.81,-4.34,7.81,-4.36,4.37,4.51,4.74,12.18,12.18,12.15
28.62,7.82,-4.31,7.82,-4.31,4.32,4.51,4.81,12.13,12.13,12.13
28.90,7.82,-4.28,7.82,-4.26,4.27,4.51,4.88,12.09,12.09,12.11
29.19,7.82,-4.21,7.82,-4.23,4.24,4.50,4.95,12.06,12.06,12.03
29.48,7.82,-4.21,7.82,-4.21,4.21,4.50,5.01,12.03,12.03,12.03
29.78,7.82,-4.21,7.82,-4.20,4.19,4.50,5.06,12.01,12.01,12.03
30.08,7.82,-4.20,7.82,-4.18,4.17,4.50,5.11,11.98,11.98,12.02
30.38,7.81,-4.14,7.81,-4.15,4.15,4.49,5.16,11.97,11.97,11.96
30.68,7.81,-4.12,7.81,-4.13,4.14,4.49,5.19,11.95,11.95,11.93
30.99,7.80,-4.13,7.81,-4.12,4.13,4.49,5.22,11.94,11.94,11.93
31.30,7.80,-4.13,7.80,-4.13,4.13,4.48,5.24,11.93,11.93,11.93
31.61,7.80,-4.13,7.80,-4.13,4.12,4.48,5.26,11.92,11.92,11.93
31.93,7.80,-4.13,7.80,-4.13,4.12,4.48,5.26,11.92,11.92,11.93
32.24,7.79,-4.14,7.79,-4.14,4.13,4.47,5.27,11.93,11.93,11.93
32.57,7.79,-4.14,7.79,-4.13,4.14,4.47,5.26,11.93,11.93,11.93
32.89,7.79,-4.14,7.79,-4.14,4.16,4.47,5.25,11.95,11.95,11.93
33.22,7.79,-4.15,7.79,-4.17,4.18,4.46,5.23,11.96,11.96,11.93
33.55,7.79,-4.22,7.79,-4.20,4.20,4.46,5.21,11.98,11.98,12.00
33.89,7.78,-4.25,7.78,-4.23,4.22,4.45,5.18,12.01,12.01,12.03
34.23,7.78,-4.25,7.78,-4.25,4.25,4.45,5.15,12.03,12.03,12.03
34.57,7.78,-4.25,7.78,-4.27,4.27,4.45,5.12,12.06,12.06,12.03
34.92,7.78,-4.30,7.78,-4.30,4.30,4.44,5.08,12.08,12.08,12.07
35.27,7.77,-4.36,7.77,-4.34,4.32,4.44,5.04,12.10,12.10,12.13
35.62,7.77,-4.36,7.77,-4.36,4.35,4.43,4.99,12.12,12.12,12.13
35.97,7.76,-4.37,7.76,-4.37,4.38,4.43,4.95,12.14,12.14,12.13
36.33,7.75,-4.38,7.75,-4.38,4.41,4.42,4.90,12.17,12.17,12.13
36.70,7.75,-4.39,7.75,-4.41,4.44,4.42,4.85,12.18,12.18,12.13
37.06,7.74,-4.45,7.74,-4.45,4.45,4.41,4.80,12.19,12.19,12.18
37.43,7.73,-4.50,7.73,-4.49,4.46,4.41,4.75,12.19,12.19,12.23
37.81,7.72,-4.51,7.72,-4.50,4.45,4.40,4.71,12.17,12.17,12.23
38.19,7.71,-4.47,7.71,-4.47,4.43,4.40,4.66,12.14,12.14,12.17
38.57,7.70,-4.40,7.70,-4.41,4.40,4.39,4.61,12.10,12.10,12.10
38.95,7.69,-4.35,7.69,-4.35,4.35,4.39,4.57,12.04,12.04,12.04
39.34,7.68,-4.28,7.68,-4.28,4.29,4.38,4.52,11.97,11.97,11.96
39.74,7.67,-4.22,7.67,-4.22,4.22,4.38,4.48,11.89,11.89,11.89
40.14,7.66,-4.17,7.66,-4.16,4.16,4.37,4.44,11.81,11.81,11.82
40.54,7.65,-4.11,7.65,-4.10,4.11,4.36,4.41,11.76,11.76,11.76
40.94,7.63,-4.06,7.63,-4.05,4.08,4.36,4.37,11.72,11.72,11.69
41.35,7.62,-4.01,7.62,-4.02,4.08,4.35,4.34,11.70,11.70,11.63
41.76,7.60,-4.03,7.60,-4.04,4.09,4.35,4.31,11.70,11.70,11.63
42.18,7.59,-4.09,7.59,-4.10,4.12,4.34,4.29,11.71,11.71,11.68
42.60,7.57,-4.18,7.57,-4.18,4.16,4.34,4.26,11.73,11.73,11.75
43.03,7.56,-4.26,7.56,-4.24,4.20,4.33,4.24,11.76,11.76,11.82
43.46,7.54,-4.29,7.54,-4.29,4.24,4.32,4.23,11.78,11.78,11.83
43.90,7.53,-4.30,7.53,-4.31,4.27,4.32,4.22,11.80,11.80,11.83
44.33,7.52,-4.31,7.52,-4.32,4.29,4.31,4.21,11.81,11.81,11.83
44.78,7.51,-4.32,7.51,-4.31,4.30,4.30,4.20,11.81,11.81,11.83
45.23,7.50,-4.30,7.50,-4.29,4.29,4.30,4.20,11.79,11.79,11.80
45.68,7.49,-4.24,7.49,-4.26,4.28,4.29,4.20,11.77,11.77,11.73
46.13,7.48,-4.25,7.48,-4.25,4.27,4.29,4.20,11.75,11.75,11.73
46.60,7.47,-4.26,7.47,-4.25,4.27,4.28,4.20,11.74,11.74,11.73
47.06,7.46,-4.27,7.46,-4.27,4.28,4.27,4.21,11.74,11.74,11.73
47.53,7.44,-4.29,7.44,-4.28,4.30,4.27,4.23,11.74,11.74,11.73
48.01,7.42,-4.31,7.42,-4.32,4.33,4.26,4.24,11.75,11.75,11.73
48.49,7.40,-4.35,7.40,-4.36,4.37,4.25,4.26,11.77,11.77,11.74
48.97,7.38,-4.43,7.38,-4.42,4.41,4.25,4.28,11.79,11.79,11.81
49.46,7.36,-4.47,7.36,-4.46,4.45,4.24,4.30,11.81,11.81,11.83
49.96,7.35,-4.48,7.35,-4.49,4.48,4.23,4.33,11.83,11.83,11.83
50.46,7.33,-4.50,7.33,-4.51,4.50,4.23,4.35,11.83,11.83,11.83
50.96,7.31,-4.52,7.31,-4.52,4.51,4.22,4.38,11.82,11.82,11.83
51.47,7.29,-4.52,7.29,-4.51,4.49,4.21,4.41,11.78,11.78,11.81
51.99,7.26,-4.47,7.26,-4.48,4.46,4.21,4.44,11.72,11.72,11.73
52.51,7.24,-4.43,7.24,-4.44,4.41,4.20,4.47,11.65,11.65,11.67
53.03,7.22,-4.38,7.22,-4.38,4.35,4.19,4.51,11.56,11.56,11.60
53.56,7.19,-4.32,7.19,-4.30,4.29,4.19,4.54,11.48,11.48,11.52
54.10,7.17,-4.21,7.17,-4.22,4.24,4.18,4.57,11.41,11.41,11.38
54.64,7.15,-4.14,7.15,-4.15,4.20,4.17,4.61,11.35,11.35,11.29
55.18,7.12,-4.11,7.12,-4.11,4.18,4.17,4.64,11.30,11.30,11.23
55.74,7.10,-4.13,7.10,-4.12,4.17,4.16,4.67,11.28,11.28,11.23
56.29,7.08,-4.15,7.08,-4.15,4.18,4.16,4.70,11.27,11.27,11.23
56.86,7.06,-4.19,7.06,-4.21,4.20,4.15,4.73,11.27,11.26,11.25
57.42,7.04,-4.28,7.04,-4.27,4.23,4.14,4.75,11.27,11.27,11.32
58.00,7.02,-4.31,7.02,-4.30,4.24,4.14,4.77,11.26,11.26,11.33
58.58,6.99,-4.31,6.99,-4.31,4.25,4.13,4.79,11.25,11.25,11.31
59.16,6.97,-4.26,6.97,-4.27,4.24,4.13,4.80,11.22,11.22,11.23
59.76,6.95,-4.22,6.95,-4.23,4.23,4.12,4.82,11.17,11.17,11.17
60.35,6.92,-4.18,6.92,-4.17,4.20,4.12,4.82,11.12,11.12,11.10
60.96,6.90,-4.14,6.90,-4.13,4.16,4.11,4.82,11.06,11.06,11.04
61.57,6.87,-4.09,6.87,-4.10,4.13,4.11,4.82,11.00,11.00,10.96
62.18,6.85,-4.08,6.85,-4.08,4.09,4.10,4.82,10.94,10.94,10.93
62.80,6.82,-4.10,6.82,-4.07,4.07,4.10,4.80,10.90,10.90,10.92
63.43,6.80,-4.06,6.80,-4.07,4.06,4.09,4.79,10.86,10.86,10.86
64.07,6.77,-4.06,6.77,-4.06,4.05,4.09,4.77,10.82,10.82,10.83
64.71,6.75,-4.07,6.75,-4.05,4.05,4.09,4.74,10.79,10.79,10.82
65.35,6.72,-4.03,6.72,-4.05,4.06,4.08,4.71,10.77,10.77,10.75
66.01,6.69,-4.04,6.69,-4.05,4.07,4.08,4.68,10.76,10.76,10.73
66.67,6.65,-4.08,6.65,-4.07,4.09,4.08,4.64,10.75,10.75,10.73
67.33,6.62,-4.11,6.62,-4.11,4.12,4.08,4.60,10.74,10.74,10.73
68.01,6.59,-4.14,6.59,-4.14,4.14,4.08,4.55,10.74,10.74,10.73
68.69,6.56,-4.17,6.56,-4.17,4.17,4.08,4.50,10.73,10.73,10.73
69.37,6.53,-4.20,6.53,-4.21,4.19,4.08,4.45,10.71,10.71,10.73
70.07,6.50,-4.23,6.50,-4.22,4.19,4.09,4.40,10.69,10.69,10.73
70.77,6.47,-4.23,6.47,-4.22,4.19,4.09,4.34,10.66,10.66,10.70
71.48,6.44,-4.19,6.44,-4.19,4.17,4.09,4.29,10.61,10.61,10.63
72.19,6.41,-4.15,6.41,-4.15,4.15,4.10,4.23,10.56,10.56,10.56
72.91,6.38,-4.11,6.38,-4.11,4.13,4.10,4.17,10.51,10.51,10.49
73.64,6.35,-4.07,6.35,-4.07,4.10,4.11,4.11,10.45,10.45,10.42
74.38,6.31,-4.04,6.31,-4.06,4.08,4.11,4.05,10.39,10.39,10.35
75.12,6.28,-4.05,6.28,-4.05,4.07,4.11,3.99,10.34,10.34,10.33
75.87,6.24,-4.07,6.24,-4.05,4.06,4.11,3.93,10.30,10.30,10.31
76.63,6.21,-4.04,6.21,-4.06,4.05,4.10,3.87,10.26,10.26,10.25
77.40,6.17,-4.06,6.18,-4.06,4.04,4.08,3.82,10.22,10.22,10.23
78.17,6.14,-4.07,6.14,-4.05,4.03,4.05,3.76,10.18,10.18,10.21
78.95,6.11,-4.04,6.11,-4.04,4.02,4.01,3.71,10.13,10.13,10.14
79.74,6.07,-4.00,6.07,-4.01,4.00,3.97,3.65,10.07,10.07,10.07
80.54,6.03,-3.97,6.03,-3.97,3.98,3.93,3.60,10.01,10.01,10.00
81.35,5.99,-3.95,5.99,-3.94,3.95,3.90,3.55,9.94,9.94,9.93
82.16,5.95,-3.92,5.95,-3.92,3.92,3.87,3.51,9.87,9.87,9.87
82.98,5.91,-3.89,5.91,-3.89,3.88,3.85,3.46,9.79,9.79,9.80
83.81,5.87,-3.86,5.87,-3.86,3.85,3.84,3.42,9.72,9.72,9.73
84.65,5.83,-3.83,5.83,-3.83,3.82,3.84,3.38,9.65,9.65,9.66
85.50,5.80,-3.79,5.80,-3.79,3.79,3.84,3.34,9.59,9.59,9.59
86.35,5.77,-3.75,5.77,-3.75,3.77,3.83,3.30,9.53,9.53,9.52
87.22,5.73,-3.72,5.73,-3.74,3.76,3.83,3.27,9.49,9.49,9.45
88.09,5.69,-3.74,5.69,-3.73,3.75,3.83,3.24,9.45,9.44,9.43
88.97,5.65,-3.76,5.65,-3.74,3.76,3.82,3.21,9.41,9.41,9.41
89.86,5.60,-3.74,5.60,-3.76,3.77,3.82,3.18,9.37,9.37,9.34
90.76,5.55,-3.78,5.55,-3.79,3.78,3.81,3.16,9.33,9.33,9.33
91.66,5.51,-3.82,5.51,-3.82,3.79,3.80,3.14,9.31,9.31,9.33
92.58,5.47,-3.86,5.47,-3.84,3.81,3.79,3.12,9.28,9.28,9.33
93.51,5.43,-3.84,5.43,-3.83,3.82,3.78,3.10,9.25,9.25,9.27
94.44,5.39,-3.81,5.39,-3.82,3.83,3.77,3.09,9.22,9.22,9.20
95.39,5.35,-3.78,5.35,-3.81,3.83,3.76,3.08,9.18,9.18,9.13
96.34,5.30,-3.83,5.30,-3.82,3.83,3.74,3.07,9.13,9.13,9.13
97.30,5.26,-3.84,5.26,-3.82,3.81,3.73,3.06,9.07,9.07,9.09
98.28,5.21,-3.82,5.21,-3.82,3.80,3.72,3.05,9.01,9.01,9.03
99.26,5.16,-3.79,5.16,-3.80,3.78,3.71,3.05,8.94,8.94,8.95
100.25,5.12,-3.77,5.12,-3.77,3.77,3.70,3.05,8.89,8.89,8.88
101.25,5.07,-3.75,5.07,-3.75,3.76,3.69,3.05,8.83,8.83,8.82
102.27,5.03,-3.74,5.03,-3.73,3.74,3.67,3.05,8.77,8.77,8.77
103.29,4.99,-3.71,4.99,-3.71,3.73,3.66,3.05,8.72,8.72,8.70
104.32,4.95,-3.68,4.95,-3.71,3.71,3.65,3.05,8.67,8.67,8.63
105.37,4.91,-3.72,4.91,-3.70,3.70,3.64,3.06,8.61,8.61,8.63
106.42,4.87,-3.72,4.87,-3.71,3.69,3.63,3.06,8.56,8.56,8.59
107.48,4.83,-3.68,4.82,-3.70,3.68,3.61,3.07,8.50,8.50,8.51
108.56,4.78,-3.68,4.78,-3.67,3.66,3.60,3.07,8.44,8.44,8.45
109.64,4.72,-3.64,4.72,-3.65,3.65,3.59,3.08,8.37,8.37,8.37
110.74,4.67,-3.62,4.67,-3.63,3.63,3.58,3.08,8.30,8.30,8.29
111.85,4.62,-3.62,4.62,-3.60,3.60,3.56,3.09,8.22,8.22,8.24
112.97,4.56,-3.57,4.56,-3.58,3.58,3.55,3.09,8.15,8.15,8.13
114.10,4.51,-3.56,4.51,-3.57,3.56,3.54,3.09,8.07,8.07,8.08
115.24,4.46,-3.56,4.46,-3.55,3.55,3.52,3.10,8.01,8.01,8.02
116.39,4.41,-3.55,4.41,-3.54,3.56,3.51,3.10,7.96,7.96,7.96
117.55,4.36,-3.52,4.36,-3.53,3.56,3.50,3.10,7.92,7.92,7.88
118.73,4.31,-3.52,4.31,-3.54,3.57,3.48,3.10,7.88,7.88,7.83
119.92,4.26,-3.57,4.26,-3.57,3.58,3.47,3.09,7.84,7.83,7.83
121.12,4.21,-3.62,4.21,-3.61,3.58,3.45,3.09,7.80,7.80,7.83
122.33,4.17,-3.64,4.17,-3.62,3.59,3.44,3.08,7.76,7.76,7.81
123.55,4.14,-3.61,4.14,-3.60,3.59,3.42,3.07,7.73,7.73,7.75
124.79,4.11,-3.54,4.12,-3.57,3.57,3.41,3.06,7.69,7.69,7.65
126.03,4.10,-3.53,4.10,-3.53,3.55,3.39,3.04,7.65,7.65,7.63
127.29,4.09,-3.52,4.09,-3.50,3.50,3.38,3.02,7.60,7.59,7.62
128.57,4.08,-3.47,4.08,-3.48,3.45,3.36,3.01,7.53,7.53,7.55
129.85,4.08,-3.41,4.08,-3.41,3.39,3.34,2.98,7.46,7.46,7.49
131.15,4.07,-3.35,4.07,-3.33,3.32,3.33,2.96,7.39,7.39,7.42
132.46,4.05,-3.23,4.05,-3.25,3.27,3.31,2.94,7.32,7.32,7.28
133.79,4.03,-3.16,4.03,-3.17,3.21,3.29,2.91,7.24,7.24,7.19
135.12,4.00,-3.12,4.00,-3.12,3.15,3.28,2.88,7.15,7.15,7.12
136.48,3.97,-3.09,3.97,-3.09,3.10,3.26,2.85,7.06,7.06,7.06
137.84,3.93,-3.06,3.93,-3.06,3.04,3.24,2.82,6.97,6.97,6.99
139.22,3.89,-3.03,3.89,-3.03,2.99,3.22,2.79,6.88,6.88,6.92
140.61,3.85,-3.00,3.85,-2.98,2.95,3.20,2.75,6.80,6.80,6.85
142.02,3.80,-2.92,3.81,-2.92,2.92,3.19,2.72,6.72,6.72,6.73
143.44,3.76,-2.85,3.76,-2.86,2.89,3.17,2.68,6.65,6.65,6.61
144.87,3.71,-2.82,3.71,-2.82,2.86,3.15,2.65,6.57,6.57,6.54
146.32,3.66,-2.80,3.66,-2.81,2.83,3.13,2.61,6.50,6.50,6.46
147.78,3.61,-2.82,3.61,-2.82,2.82,3.11,2.58,6.43,6.43,6.43
149.26,3.56,-2.85,3.56,-2.83,2.81,3.09,2.54,6.38,6.38,6.42
150.75,3.51,-2.83,3.51,-2.83,2.83,3.07,2.51,6.34,6.34,6.34
152.26,3.46,-2.83,3.46,-2.83,2.85,3.05,2.47,6.31,6.31,6.29
153.78,3.41,-2.83,3.41,-2.84,2.87,3.03,2.44,6.28,6.28,6.24
155.32,3.36,-2.87,3.36,-2.88,2.89,3.00,2.40,6.25,6.25,6.23
156.88,3.31,-2.92,3.31,-2.91,2.90,2.98,2.37,6.21,6.21,6.23
158.44,3.26,-2.95,3.26,-2.94,2.90,2.96,2.34,6.16,6.16,6.21
160.03,3.21,-2.92,3.21,-2.94,2.90,2.94,2.31,6.10,6.10,6.13
161.63,3.16,-2.92,3.16,-2.91,2.88,2.92,2.28,6.04,6.04,6.08
163.24,3.11,-2.90,3.11,-2.87,2.86,2.89,2.25,5.97,5.97,6.01
164.88,3.06,-2.79,3.06,-2.82,2.83,2.87,2.23,5.89,5.89,5.84
166.53,3.00,-2.78,3.00,-2.78,2.80,2.85,2.20,5.81,5.81,5.78
168.19,2.95,-2.77,2.95,-2.74,2.78,2.83,2.18,5.73,5.73,5.72
169.87,2.90,-2.73,2.90,-2.73,2.76,2.80,2.16,5.66,5.66,5.64
171.57,2.85,-2.70,2.85,-2.73,2.75,2.78,2.14,5.60,5.60,5.55
173.29,2.80,-2.73,2.80,-2.73,2.74,2.75,2.12,5.54,5.54,5.53
175.02,2.75,-2.78,2.75,-2.74,2.73,2.73,2.10,5.49,5.49,5.53
176.77,2.70,-2.74,2.70,-2.75,2.72,2.71,2.09,5.43,5.43,5.44
178.54,2.66,-2.72,2.66,-2.74,2.71,2.68,2.07,5.36,5.36,5.38
180.32,2.61,-2.71,2.61,-2.71,2.68,2.66,2.06,5.29,5.29,5.32
182.13,2.57,-2.69,2.57,-2.67,2.65,2.63,2.05,5.22,5.22,5.26
183.95,2.52,-2.61,2.52,-2.61,2.61,2.61,2.04,5.14,5.14,5.14
185.79,2.48,-2.52,2.48,-2.55,2.57,2.58,2.03,5.06,5.06,5.00
187.65,2.44,-2.50,2.44,-2.50,2.53,2.56,2.03,4.97,4.97,4.94
189.52,2.40,-2.48,2.40,-2.48,2.49,2.53,2.02,4.88,4.88,4.88
191.42,2.36,-2.46,2.36,-2.46,2.45,2.51,2.02,4.80,4.80,4.82
193.33,2.31,-2.44,2.31,-2.43,2.41,2.48,2.02,4.73,4.73,4.75
195.27,2.27,-2.39,2.27,-2.40,2.39,2.46,2.02,4.66,4.66,4.67
197.22,2.23,-2.36,2.23,-2.36,2.38,2.43,2.02,4.61,4.61,4.59
199.19,2.19,-2.34,2.19,-2.33,2.37,2.40,2.02,4.55,4.55,4.52
201.18,2.14,-2.32,2.14,-2.33,2.36,2.38,2.02,4.50,4.50,4.46
203.19,2.09,-2.34,2.09,-2.34,2.34,2.35,2.02,4.44,4.44,4.43
205.23,2.05,-2.37,2.05,-2.35,2.33,2.33,2.03,4.38,4.38,4.42
207.28,2.00,-2.35,2.00,-2.36,2.31,2.30,2.03,4.31,4.31,4.35
209.35,1.95,-2.33,1.95,-2.33,2.30,2.27,2.04,4.25,4.25,4.29
211.44,1.90,-2.30,1.90,-2.28,2.28,2.25,2.04,4.19,4.19,4.20
213.56,1.85,-2.21,1.85,-2.25,2.27,2.22,2.05,4.12,4.12,4.06
215.69,1.81,-2.22,1.81,-2.23,2.25,2.19,2.06,4.06,4.06,4.03
217.85,1.76,-2.24,1.76,-2.22,2.24,2.17,2.06,4.00,4.00,4.00
220.03,1.71,-2.22,1.71,-2.22,2.23,2.14,2.07,3.94,3.94,3.93
222.23,1.67,-2.21,1.67,-2.22,2.22,2.11,2.07,3.89,3.89,3.87
224.45,1.63,-2.20,1.63,-2.22,2.22,2.09,2.08,3.85,3.85,3.83
226.70,1.58,-2.25,1.58,-2.22,2.21,2.06,2.08,3.80,3.80,3.83
228.96,1.54,-2.22,1.54,-2.22,2.20,2.04,2.08,3.74,3.74,3.76
231.25,1.50,-2.20,1.50,-2.21,2.18,2.01,2.09,3.68,3.68,3.70
233.57,1.46,-2.18,1.46,-2.17,2.15,1.98,2.09,3.62,3.62,3.64
235.90,1.43,-2.14,1.42,-2.12,2.13,1.96,2.09,3.55,3.55,3.57
238.26,1.38,-2.06,1.38,-2.07,2.10,1.93,2.08,3.48,3.48,3.45
240.64,1.34,-1.99,1.34,-2.03,2.07,1.90,2.08,3.41,3.41,3.33
243.05,1.30,-2.03,1.30,-2.01,2.03,1.88,2.07,3.34,3.34,3.33
245.48,1.26,-2.02,1.26,-2.01,2.00,1.85,2.07,3.26,3.26,3.28
247.93,1.22,-1.99,1.22,-2.00,1.96,1.83,2.06,3.17,3.17,3.21
250.41,1.17,-1.97,1.17,-1.96,1.92,1.80,2.05,3.09,3.09,3.15
252.92,1.13,-1.90,1.13,-1.90,1.88,1.77,2.03,3.01,3.01,3.03
255.45,1.09,-1.83,1.09,-1.84,1.85,1.75,2.02,2.94,2.94,2.92
258.00,1.05,-1.78,1.05,-1.79,1.82,1.72,2.00,2.86,2.86,2.83
260.58,1.01,-1.76,1.01,-1.75,1.79,1.70,1.98,2.79,2.79,2.77
263.19,0.97,-1.73,0.97,-1.73,1.76,1.67,1.96,2.73,2.73,2.70
265.82,0.93,-1.71,0.93,-1.73,1.74,1.65,1.94,2.67,2.67,2.64
268.48,0.88,-1.75,0.88,-1.74,1.73,1.62,1.91,2.62,2.62,2.63
271.16,0.84,-1.76,0.84,-1.74,1.73,1.60,1.89,2.57,2.57,2.60
273.87,0.80,-1.73,0.80,-1.74,1.71,1.57,1.86,2.52,2.52,2.53
276.61,0.76,-1.70,0.76,-1.71,1.70,1.55,1.83,2.46,2.46,2.47
279.38,0.72,-1.67,0.72,-1.68,1.67,1.52,1.81,2.39,2.39,2.40
282.17,0.68,-1.64,0.68,-1.65,1.63,1.50,1.77,2.31,2.31,2.33
284.99,0.64,-1.61,0.64,-1.59,1.58,1.47,1.74,2.23,2.23,2.26
287.84,0.61,-1.53,0.61,-1.53,1.53,1.45,1.71,2.14,2.14,2.14
290.72,0.57,-1.45,0.57,-1.46,1.48,1.42,1.68,2.05,2.05,2.01
293.63,0.53,-1.41,0.53,-1.41,1.43,1.40,1.65,1.96,1.96,1.94
296.57,0.49,-1.37,0.49,-1.37,1.38,1.38,1.62,1.88,1.88,1.87
299.53,0.45,-1.35,0.45,-1.35,1.34,1.35,1.58,1.80,1.80,1.80
302.53,0.42,-1.32,0.42,-1.32,1.31,1.33,1.55,1.73,1.73,1.74
305.55,0.38,-1.29,0.38,-1.28,1.29,1.30,1.52,1.67,1.67,1.67
308.61,0.34,-1.25,0.34,-1.26,1.27,1.28,1.48,1.62,1.62,1.60
311.69,0.31,-1.23,0.31,-1.25,1.26,1.26,1.45,1.57,1.57,1.54
314.81,0.27,-1.26,0.27,-1.25,1.24,1.23,1.42,1.52,1.52,1.53
317.96,0.24,-1.25,0.24,-1.24,1.22,1.21,1.39,1.46,1.46,1.49
321.14,0.20,-1.23,0.20,-1.22,1.20,1.19,1.36,1.40,1.40,1.43
324.35,0.17,-1.18,0.17,-1.19,1.18,1.17,1.33,1.34,1.34,1.35
327.59,0.13,-1.15,0.13,-1.15,1.15,1.14,1.30,1.28,1.28,1.28
330.87,0.09,-1.12,0.09,-1.12,1.12,1.12,1.27,1.21,1.21,1.21
334.18,0.06,-1.09,0.06,-1.09,1.09,1.10,1.25,1.15,1.15,1.15
337.52,0.03,-1.05,0.03,-1.05,1.07,1.08,1.22,1.09,1.09,1.08
340.90,-0.01,-1.02,-0.01,-1.02,1.04,1.05,1.19,1.03,1.03,1.01
344.30,-0.04,-0.98,-0.04,-1.00,1.01,1.03,1.17,0.97,0.97,0.94
347.75,-0.07,-1.00,-0.07,-1.00,0.99,1.01,1.14,0.91,0.91,0.93
351.23,-0.11,-1.01,-0.11,-0.99,0.97,0.99,1.12,0.86,0.86,0.91
354.74,-0.14,-0.97,-0.14,-0.98,0.95,0.97,1.10,0.81,0.81,0.84
358.28,-0.17,-0.94,-0.17,-0.93,0.94,0.94,1.08,0.77,0.77,0.76
361.87,-0.20,-0.90,-0.20,-0.90,0.93,0.92,1.06,0.73,0.73,0.69
365.49,-0.24,-0.87,-0.24,-0.88,0.93,0.90,1.04,0.69,0.69,0.63
369.14,-0.27,-0.90,-0.27,-0.90,0.92,0.88,1.02,0.65,0.65,0.63
372.83,-0.30,-0.93,-0.30,-0.92,0.91,0.86,1.00,0.61,0.61,0.63
376.56,-0.33,-0.95,-0.33,-0.93,0.89,0.84,0.98,0.56,0.56,0.62
380.33,-0.36,-0.92,-0.36,-0.92,0.88,0.82,0.96,0.52,0.52,0.56
384.13,-0.39,-0.88,-0.39,-0.88,0.86,0.80,0.95,0.47,0.47,0.49
387.97,-0.42,-0.83,-0.42,-0.83,0.84,0.78,0.93,0.42,0.42,0.41
391.85,-0.45,-0.80,-0.45,-0.79,0.81,0.76,0.92,0.37,0.37,0.35
395.77,-0.47,-0.75,-0.47,-0.76,0.79,0.73,0.90,0.32,0.32,0.28
399.73,-0.50,-0.73,-0.50,-0.75,0.77,0.71,0.89,0.27,0.27,0.23
403.72,-0.53,-0.76,-0.53,-0.73,0.75,0.69,0.88,0.22,0.22,0.23
407.76,-0.56,-0.72,-0.56,-0.73,0.73,0.67,0.86,0.17,0.17,0.17
411.84,-0.58,-0.71,-0.58,-0.73,0.71,0.65,0.85,0.13,0.13,0.13
415.96,-0.61,-0.74,-0.61,-0.72,0.69,0.63,0.84,0.08,0.08,0.13
420.12,-0.64,-0.70,-0.64,-0.70,0.68,0.61,0.83,0.04,0.04,0.06
424.32,-0.66,-0.65,-0.66,-0.65,0.66,0.59,0.81,-0.00,-0.00,-0.01
428.56,-0.69,-0.61,-0.69,-0.60,0.63,0.57,0.80,-0.05,-0.05,-0.08
432.85,-0.71,-0.56,-0.71,-0.58,0.61,0.55,0.79,-0.10,-0.10,-0.15
437.18,-0.74,-0.57,-0.74,-0.57,0.58,0.53,0.78,-0.16,-0.16,-0.17
441.55,-0.76,-0.58,-0.76,-0.56,0.55,0.51,0.76,-0.21,-0.21,-0.18
445.96,-0.78,-0.53,-0.78,-0.54,0.51,0.49,0.75,-0.27,-0.27,-0.25
450.42,-0.81,-0.49,-0.81,-0.49,0.47,0.47,0.74,-0.33,-0.33,-0.32
454.93,-0.83,-0.45,-0.83,-0.44,0.44,0.45,0.72,-0.39,-0.39,-0.38
459.48,-0.85,-0.39,-0.85,-0.40,0.40,0.43,0.70,-0.46,-0.46,-0.46
464.07,-0.88,-0.35,-0.88,-0.35,0.36,0.41,0.69,-0.52,-0.52,-0.53
468.71,-0.90,-0.30,-0.90,-0.30,0.32,0.39,0.67,-0.58,-0.58,-0.59
473.40,-0.92,-0.26,-0.92,-0.25,0.28,0.37,0.65,-0.64,-0.64,-0.66
478.13,-0.94,-0.21,-0.94,-0.23,0.24,0.35,0.63,-0.70,-0.70,-0.73
482.91,-0.96,-0.20,-0.96,-0.21,0.21,0.33,0.61,-0.75,-0.75,-0.77
487.74,-0.99,-0.22,-0.99,-0.19,0.18,0.30,0.59,-0.81,-0.81,-0.77
492.62,-1.01,-0.17,-1.01,-0.17,0.14,0.28,0.57,-0.87,-0.87,-0.84
497.55,-1.02,-0.12,-1.02,-0.12,0.10,0.26,0.54,-0.93,-0.93,-0.91
502.52,-1.04,-0.07,-1.04,-0.07,0.06,0.24,0.52,-0.99,-0.99,-0.98
507.55,-1.06,-0.01,-1.06,-0.02,0.01,0.22,0.49,-1.05,-1.05,-1.05
512.62,-1.08,0.03,-1.08,0.04,-0.03,0.19,0.46,-1.11,-1.11,-1.11
517.75,-1.10,0.08,-1.10,0.09,-0.06,0.17,0.43,-1.16,-1.16,-1.18
522.93,-1.11,0.14,-1.11,0.12,-0.09,0.15,0.40,-1.21,-1.21,-1.25
