frequency,raw,error,smoothed,error_smoothed,equalization,parametric_eq,fixed_band_eq,equalized_raw,equalized_smoothed,target
20.00,5.79,1.34,5.79,1.34,-1.31,-1.54,-0.85,4.49,4.49,4.45
20.20,5.83,1.37,5.83,1.38,-1.38,-1.58,-0.87,4.45,4.45,4.45
20.40,5.86,1.42,5.86,1.42,-1.44,-1.61,-0.90,4.42,4.42,4.44
20.61,5.89,1.48,5.89,1.48,-1.50,-1.64,-0.93,4.39,4.39,4.41
20.81,5.92,1.54,5.92,1.54,-1.56,-1.67,-0.95,4.36,4.36,4.38
21.02,5.95,1.60,5.95,1.60,-1.61,-1.71,-0.98,4.34,4.34,4.34
21.23,5.98,1.66,5.98,1.66,-1.66,-1.74,-1.01,4.32,4.32,4.31
21.44,6.01,1.71,6.01,1.71,-1.70,-1.77,-1.04,4.31,4.31,4.30
21.66,6.03,1.75,6.03,1.75,-1.74,-1.80,-1.07,4.29,4.29,4.29
21.87,6.06,1.78,6.06,1.78,-1.77,-1.83,-1.10,4.28,4.28,4.28
22.09,6.08,1.80,6.08,1.80,-1.80,-1.86,-1.13,4.28,4.28,4.28
22.31,6.11,1.82,6.11,1.82,-1.82,-1.89,-1.16,4.28,4.28,4.29
22.54,6.13,1.83,6.13,1.83,-1.84,-1.92,-1.20,4.29,4.29,4.30
22.76,6.15,1.84,6.15,1.84,-1.84,-1.94,-1.23,4.31,4.31,4.31
22.99,6.18,1.85,6.18,1.85,-1.84,-1.97,-1.27,4.34,4.34,4.33
23.22,6.20,1.84,6.20,1.84,-1.83,-1.99,-1.31,4.37,4.37,4.36
23.45,6.22,1.83,6.22,1.83,-1.82,-2.01,-1.34,4.40,4.40,4.39
23.69,6.24,1.81,6.24,1.81,-1.80,-2.03,-1.38,4.45,4.45,4.43
23.92,6.26,1.78,6.26,1.78,-1.77,-2.05,-1.42,4.49,4.49,4.48
24.16,6.28,1.75,6.28,1.74,-1.74,-2.06,-1.46,4.54,4.54,4.54
24.40,6.30,1.71,6.30,1.71,-1.71,-2.08,-1.50,4.59,4.59,4.59
24.65,6.32,1.68,6.32,1.68,-1.69,-2.09,-1.54,4.63,4.63,4.64
24.89,6.34,1.66,6.34,1.66,-1.68,-2.11,-1.58,4.66,4.66,4.68
25.14,6.36,1.66,6.36,1.66,-1.68,-2.12,-1.62,4.68,4.68,4.70
25.39,6.38,1.67,6.38,1.68,-1.70,-2.12,-1.66,4.69,4.69,4.71
25.65,6.40,1.71,6.40,1.71,-1.73,-2.13,-1.70,4.68,4.68,4.70
25.91,6.42,1.75,6.42,1.75,-1.77,-2.14,-1.74,4.66,4.66,4.67
26.16,6.44,1.81,6.44,1.81,-1.81,-2.14,-1.79,4.64,4.63,4.64
26.43,6.46,1.86,6.46,1.86,-1.85,-2.14,-1.83,4.61,4.61,4.60
26.69,6.48,1.91,6.48,1.91,-1.89,-2.14,-1.87,4.59,4.59,4.57
26.96,6.50,1.95,6.50,1.95,-1.92,-2.14,-1.91,4.58,4.58,4.55
27.23,6.52,1.96,6.52,1.96,-1.93,-2.14,-1.95,4.59,4.59,4.56
27.50,6.54,1.96,6.54,1.96,-1.94,-2.14,-1.99,4.60,4.60,4.58
27.77,6.56,1.94,6.56,1.94,-1.93,-2.14,-2.02,4.62,4.62,4.62
28.05,6.57,1.91,6.57,1.91,-1.92,-2.13,-2.06,4.66,4.65,4.66
28.33,6.59,1.89,6.59,1.89,-1.90,-2.13,-2.09,4.69,4.69,4.70
28.62,6.61,1.87,6.61,1.87,-1.89,-2.12,-2.13,4.71,4.71,4.73
28.90,6.62,1.87,6.62,1.87,-1.89,-2.12,-2.16,4.74,4.74,4.76
29.19,6.64,1.87,6.64,1.87,-1.89,-2.11,-2.19,4.75,4.75,4.76
29.48,6.65,1.89,6.65,1.89,-1.90,-2.11,-2.21,4.75,4.75,4.76
29.78,6.66,1.92,6.66,1.92,-1.92,-2.10,-2.24,4.74,4.74,4.75
30.08,6.68,1.95,6.68,1.95,-1.95,-2.10,-2.26,4.73,4.73,4.73
30.38,6.69,1.99,6.69,1.99,-1.98,-2.09,-2.28,4.71,4.71,4.70
30.68,6.70,2.02,6.70,2.01,-2.00,-2.08,-2.29,4.70,4.70,4.69
30.99,6.71,2.03,6.71,2.03,-2.02,-2.08,-2.31,4.70,4.70,4.68
31.30,6.72,2.05,6.72,2.04,-2.03,-2.07,-2.32,4.69,4.69,4.68
31.61,6.74,2.05,6.73,2.05,-2.04,-2.07,-2.33,4.69,4.69,4.69
31.93,6.74,2.05,6.74,2.05,-2.05,-2.07,-2.33,4.69,4.69,4.70
32.24,6.75,2.04,6.75,2.05,-2.05,-2.06,-2.33,4.70,4.70,4.71
32.57,6.76,2.05,6.76,2.05,-2.06,-2.06,-2.33,4.71,4.71,4.72
32.89,6.77,2.05,6.77,2.06,-2.06,-2.06,-2.33,4.71,4.71,4.72
33.22,6.78,2.07,6.78,2.07,-2.07,-2.06,-2.32,4.72,4.72,4.71
33.55,6.79,2.08,6.79,2.08,-2.07,-2.06,-2.32,4.72,4.72,4.71
33.89,6.80,2.08,6.80,2.08,-2.08,-2.06,-2.31,4.72,4.72,4.71
34.23,6.80,2.09,6.80,2.09,-2.09,-2.06,-2.30,4.72,4.72,4.71
34.57,6.81,2.09,6.81,2.09,-2.10,-2.06,-2.28,4.71,4.71,4.72
34.92,6.82,2.10,6.82,2.10,-2.11,-2.06,-2.27,4.71,4.71,4.72
35.27,6.83,2.11,6.83,2.11,-2.12,-2.07,-2.25,4.71,4.71,4.71
35.62,6.83,2.12,6.83,2.12,-2.13,-2.07,-2.24,4.70,4.70,4.71
35.97,6.84,2.14,6.84,2.14,-2.14,-2.07,-2.22,4.70,4.70,4.70
36.33,6.84,2.16,6.84,2.15,-2.14,-2.08,-2.20,4.70,4.70,4.69
36.70,6.85,2.16,6.85,2.16,-2.15,-2.09,-2.18,4.70,4.70,4.68
37.06,6.85,2.17,6.85,2.17,-2.16,-2.09,-2.17,4.70,4.70,4.68
37.43,6.86,2.16,6.86,2.16,-2.16,-2.10,-2.15,4.69,4.69,4.70
37.81,6.86,2.16,6.86,2.16,-2.17,-2.11,-2.13,4.69,4.69,4.70
38.19,6.86,2.15,6.86,2.16,-2.18,-2.12,-2.11,4.69,4.69,4.71
38.57,6.87,2.17,6.87,2.17,-2.18,-2.12,-2.09,4.69,4.69,4.70
38.95,6.87,2.19,6.87,2.19,-2.18,-2.13,-2.08,4.68,4.68,4.68
39.34,6.87,2.21,6.87,2.21,-2.19,-2.14,-2.06,4.68,4.68,4.66
39.74,6.87,2.22,6.87,2.21,-2.19,-2.15,-2.04,4.68,4.68,4.65
40.14,6.87,2.21,6.87,2.21,-2.19,-2.16,-2.03,4.68,4.68,4.66
40.54,6.87,2.19,6.87,2.19,-2.19,-2.17,-2.02,4.68,4.68,4.68
40.94,6.87,2.18,6.87,2.18,-2.20,-2.18,-2.00,4.67,4.67,4.69
41.35,6.87,2.17,6.87,2.18,-2.20,-2.19,-1.99,4.67,4.67,4.69
41.76,6.87,2.19,6.87,2.19,-2.20,-2.20,-1.98,4.66,4.66,4.68
42.18,6.86,2.21,6.86,2.20,-2.21,-2.21,-1.97,4.66,4.66,4.66
42.60,6.86,2.22,6.86,2.22,-2.21,-2.22,-1.97,4.65,4.65,4.64
43.03,6.86,2.23,6.86,2.23,-2.21,-2.23,-1.96,4.64,4.64,4.62
43.46,6.85,2.24,6.85,2.23,-2.22,-2.24,-1.96,4.63,4.63,4.62
43.90,6.85,2.23,6.85,2.23,-2.22,-2.25,-1.96,4.62,4.62,4.62
44.33,6.84,2.22,6.84,2.22,-2.23,-2.26,-1.95,4.61,4.61,4.62
44.78,6.84,2.21,6.84,2.22,-2.23,-2.27,-1.95,4.60,4.60,4.62
45.23,6.83,2.22,6.83,2.22,-2.23,-2.27,-1.96,4.59,4.59,4.61
45.68,6.82,2.23,6.82,2.24,-2.24,-2.28,-1.96,4.59,4.59,4.59
46.13,6.81,2.26,6.82,2.25,-2.24,-2.29,-1.97,4.57,4.57,4.56
46.60,6.81,2.26,6.81,2.26,-2.25,-2.29,-1.97,4.56,4.56,4.54
47.06,6.80,2.26,6.80,2.26,-2.25,-2.30,-1.98,4.54,4.54,4.54
47.53,6.79,2.25,6.79,2.26,-2.26,-2.30,-1.99,4.53,4.53,4.54
48.01,6.78,2.26,6.78,2.26,-2.27,-2.30,-2.00,4.51,4.51,4.52
48.49,6.77,2.27,6.77,2.27,-2.28,-2.31,-2.01,4.50,4.50,4.50
48.97,6.76,2.27,6.76,2.27,-2.28,-2.31,-2.02,4.48,4.48,4.49
49.46,6.75,2.27,6.75,2.28,-2.28,-2.31,-2.04,4.47,4.47,4.48
49.96,6.74,2.29,6.74,2.29,-2.27,-2.31,-2.05,4.47,4.47,4.45
50.46,6.73,2.29,6.73,2.29,-2.27,-2.31,-2.07,4.46,4.46,4.43
50.96,6.72,2.28,6.72,2.27,-2.27,-2.31,-2.09,4.45,4.45,4.43
51.47,6.70,2.24,6.70,2.25,-2.26,-2.31,-2.10,4.44,4.44,4.46
51.99,6.69,2.23,6.69,2.24,-2.26,-2.31,-2.12,4.44,4.44,4.46
52.51,6.68,2.24,6.68,2.24,-2.25,-2.30,-2.14,4.43,4.43,4.44
53.03,6.67,2.27,6.67,2.25,-2.24,-2.30,-2.16,4.42,4.42,4.40
53.56,6.65,2.24,6.65,2.24,-2.24,-2.30,-2.18,4.41,4.41,4.41
54.10,6.64,2.23,6.64,2.24,-2.25,-2.30,-2.20,4.39,4.39,4.41
54.64,6.62,2.23,6.62,2.24,-2.26,-2.29,-2.22,4.37,4.37,4.39
55.18,6.61,2.27,6.61,2.24,-2.26,-2.29,-2.24,4.35,4.35,4.34
55.74,6.59,2.23,6.59,2.24,-2.26,-2.28,-2.26,4.34,4.34,4.36
56.29,6.58,2.23,6.58,2.25,-2.23,-2.28,-2.27,4.35,4.35,4.35
56.86,6.56,2.26,6.56,2.27,-2.20,-2.28,-2.29,4.36,4.36,4.30
57.42,6.55,2.27,6.55,2.27,-2.18,-2.27,-2.31,4.37,4.37,4.27
58.00,6.53,2.27,6.53,2.18,-2.16,-2.27,-2.32,4.37,4.37,4.26
58.58,6.51,2.05,6.51,2.08,-2.15,-2.26,-2.34,4.36,4.36,4.46
59.16,6.50,1.93,6.50,2.02,-2.15,-2.26,-2.35,4.35,4.35,4.57
59.76,6.48,2.07,6.48,2.06,-2.15,-2.26,-2.36,4.33,4.33,4.41
60.35,6.46,2.21,6.46,2.16,-2.16,-2.25,-2.37,4.30,4.30,4.25
60.96,6.44,2.28,6.44,2.24,-2.17,-2.25,-2.38,4.27,4.27,4.16
61.57,6.42,2.22,6.42,2.25,-2.19,-2.25,-2.38,4.23,4.23,4.20
62.18,6.40,2.22,6.40,2.25,-2.21,-2.24,-2.39,4.19,4.19,4.18
62.80,6.38,2.25,6.38,2.23,-2.24,-2.24,-2.39,4.15,4.15,4.13
63.43,6.36,2.24,6.36,2.23,-2.25,-2.24,-2.39,4.12,4.12,4.12
64.07,6.34,2.21,6.34,2.22,-2.24,-2.24,-2.39,4.10,4.10,4.13
64.71,6.32,2.21,6.32,2.21,-2.22,-2.23,-2.39,4.10,4.10,4.11
65.35,6.30,2.21,6.30,2.21,-2.21,-2.23,-2.38,4.09,4.09,4.09
66.01,6.27,2.21,6.27,2.21,-2.20,-2.23,-2.37,4.08,4.08,4.06
66.67,6.25,2.20,6.25,2.20,-2.20,-2.23,-2.37,4.05,4.05,4.05
67.33,6.23,2.19,6.23,2.19,-2.20,-2.23,-2.36,4.03,4.03,4.04
68.01,6.20,2.17,6.20,2.18,-2.20,-2.23,-2.35,4.00,4.00,4.03
68.69,6.18,2.19,6.18,2.19,-2.20,-2.23,-2.33,3.98,3.98,3.99
69.37,6.15,2.21,6.15,2.21,-2.21,-2.23,-2.32,3.95,3.95,3.95
70.07,6.13,2.23,6.13,2.22,-2.21,-2.24,-2.31,3.92,3.92,3.90
70.77,6.10,2.23,6.10,2.23,-2.21,-2.24,-2.29,3.89,3.89,3.87
71.48,6.07,2.22,6.07,2.23,-2.22,-2.24,-2.28,3.85,3.85,3.85
72.19,6.04,2.21,6.04,2.22,-2.22,-2.24,-2.27,3.82,3.82,3.83
72.91,6.01,2.22,6.01,2.22,-2.23,-2.25,-2.25,3.78,3.78,3.79
73.64,5.98,2.23,5.98,2.22,-2.23,-2.25,-2.24,3.75,3.75,3.76
74.38,5.95,2.23,5.95,2.23,-2.24,-2.25,-2.22,3.71,3.71,3.72
75.12,5.92,2.23,5.92,2.24,-2.24,-2.26,-2.21,3.68,3.68,3.69
75.87,5.88,2.25,5.88,2.25,-2.24,-2.26,-2.19,3.65,3.65,3.64
76.63,5.85,2.26,5.85,2.25,-2.24,-2.27,-2.18,3.61,3.61,3.59
77.40,5.81,2.26,5.81,2.25,-2.23,-2.27,-2.17,3.58,3.58,3.56
78.17,5.78,2.24,5.78,2.24,-2.24,-2.28,-2.16,3.54,3.54,3.53
78.95,5.74,2.23,5.74,2.23,-2.25,-2.28,-2.15,3.49,3.49,3.51
79.74,5.70,2.22,5.70,2.24,-2.27,-2.29,-2.14,3.43,3.43,3.48
80.54,5.66,2.25,5.66,2.24,-2.29,-2.29,-2.13,3.37,3.37,3.41
81.35,5.62,2.29,5.62,2.25,-2.30,-2.30,-2.13,3.32,3.32,3.33
82.16,5.58,2.25,5.58,2.33,-2.30,-2.31,-2.12,3.28,3.28,3.33
82.98,5.54,2.35,5.54,2.38,-2.30,-2.31,-2.12,3.24,3.24,3.19
83.81,5.50,2.53,5.50,2.36,-2.28,-2.32,-2.12,3.21,3.21,2.97
84.65,5.45,2.25,5.45,2.32,-2.26,-2.33,-2.12,3.20,3.20,3.21
85.50,5.41,2.16,5.41,2.22,-2.23,-2.33,-2.12,3.18,3.18,3.26
86.35,5.37,2.18,5.37,2.12,-2.19,-2.34,-2.12,3.18,3.18,3.19
87.22,5.33,2.09,5.33,2.11,-2.16,-2.35,-2.13,3.17,3.17,3.24
88.09,5.29,2.08,5.29,2.10,-2.13,-2.36,-2.13,3.16,3.16,3.21
88.97,5.25,2.10,5.25,2.10,-2.11,-2.36,-2.14,3.14,3.14,3.15
89.86,5.21,2.12,5.21,2.12,-2.11,-2.37,-2.15,3.10,3.10,3.09
90.76,5.18,2.15,5.18,2.14,-2.12,-2.38,-2.16,3.06,3.06,3.03
91.66,5.14,2.15,5.14,2.15,-2.14,-2.39,-2.17,3.00,3.00,2.99
92.58,5.11,2.15,5.11,2.18,-2.16,-2.39,-2.19,2.95,2.95,2.96
93.51,5.08,2.21,5.08,2.19,-2.18,-2.40,-2.20,2.90,2.90,2.87
94.44,5.05,2.21,5.05,2.20,-2.19,-2.41,-2.22,2.86,2.86,2.84
95.39,5.02,2.19,5.02,2.21,-2.21,-2.42,-2.24,2.81,2.81,2.83
96.34,4.99,2.21,4.99,2.21,-2.22,-2.43,-2.26,2.78,2.78,2.79
97.30,4.97,2.24,4.97,2.23,-2.23,-2.43,-2.28,2.74,2.74,2.73
98.28,4.94,2.24,4.94,2.25,-2.25,-2.44,-2.30,2.69,2.69,2.70
99.26,4.92,2.26,4.92,2.26,-2.27,-2.45,-2.33,2.65,2.65,2.66
100.25,4.89,2.28,4.89,2.28,-2.29,-2.46,-2.35,2.60,2.60,2.61
101.25,4.86,2.30,4.86,2.31,-2.31,-2.47,-2.38,2.56,2.56,2.56
102.27,4.84,2.33,4.84,2.33,-2.33,-2.47,-2.40,2.51,2.51,2.50
103.29,4.81,2.36,4.81,2.35,-2.35,-2.48,-2.43,2.46,2.46,2.45
104.32,4.78,2.37,4.78,2.38,-2.37,-2.49,-2.46,2.41,2.41,2.41
105.37,4.75,2.40,4.75,2.39,-2.39,-2.50,-2.49,2.36,2.36,2.36
106.42,4.72,2.41,4.72,2.40,-2.41,-2.51,-2.51,2.31,2.31,2.31
107.48,4.69,2.41,4.69,2.42,-2.43,-2.51,-2.54,2.26,2.26,2.28
108.56,4.66,2.43,4.66,2.44,-2.45,-2.52,-2.57,2.21,2.21,2.23
109.64,4.63,2.46,4.63,2.46,-2.46,-2.53,-2.60,2.16,2.16,2.16
110.74,4.59,2.50,4.59,2.49,-2.48,-2.53,-2.62,2.11,2.11,2.10
111.85,4.56,2.49,4.56,2.50,-2.50,-2.54,-2.65,2.06,2.06,2.07
112.97,4.52,2.51,4.52,2.51,-2.51,-2.55,-2.67,2.02,2.02,2.01
114.10,4.49,2.53,4.49,2.52,-2.52,-2.55,-2.69,1.97,1.97,1.96
115.24,4.45,2.53,4.45,2.53,-2.53,-2.56,-2.71,1.92,1.92,1.92
116.39,4.41,2.54,4.41,2.54,-2.53,-2.57,-2.73,1.88,1.88,1.88
117.55,4.37,2.54,4.37,2.53,-2.53,-2.57,-2.75,1.84,1.84,1.83
118.73,4.33,2.53,4.33,2.53,-2.54,-2.58,-2.76,1.79,1.79,1.80
119.92,4.29,2.52,4.29,2.53,-2.54,-2.59,-2.77,1.75,1.75,1.77
121.12,4.25,2.54,4.25,2.54,-2.55,-2.59,-2.78,1.70,1.70,1.72
122.33,4.21,2.57,4.21,2.56,-2.56,-2.60,-2.79,1.65,1.65,1.64
123.55,4.17,2.57,4.17,2.57,-2.57,-2.60,-2.79,1.60,1.60,1.60
124.79,4.13,2.57,4.13,2.58,-2.58,-2.61,-2.79,1.55,1.55,1.55
126.03,4.09,2.59,4.09,2.59,-2.58,-2.61,-2.79,1.50,1.50,1.49
127.29,4.04,2.60,4.04,2.60,-2.59,-2.62,-2.79,1.46,1.46,1.44
128.57,4.00,2.60,4.00,2.60,-2.59,-2.62,-2.78,1.41,1.41,1.40
129.85,3.96,2.60,3.96,2.60,-2.60,-2.63,-2.77,1.36,1.36,1.36
131.15,3.92,2.60,3.92,2.59,-2.60,-2.63,-2.76,1.32,1.32,1.32
132.46,3.87,2.58,3.87,2.59,-2.60,-2.63,-2.74,1.27,1.27,1.29
133.79,3.83,2.58,3.83,2.60,-2.61,-2.64,-2.72,1.22,1.22,1.25
135.12,3.79,2.63,3.79,2.62,-2.62,-2.64,-2.70,1.17,1.17,1.17
136.48,3.75,2.65,3.75,2.63,-2.62,-2.64,-2.68,1.13,1.13,1.10
137.84,3.71,2.63,3.71,2.65,-2.63,-2.65,-2.65,1.08,1.08,1.08
139.22,3.67,2.64,3.67,2.65,-2.64,-2.65,-2.63,1.03,1.03,1.02
140.61,3.62,2.65,3.62,2.64,-2.64,-2.65,-2.60,0.98,0.98,0.98
142.02,3.58,2.64,3.58,2.64,-2.65,-2.66,-2.57,0.94,0.94,0.94
143.44,3.54,2.64,3.54,2.64,-2.65,-2.66,-2.54,0.89,0.89,0.91
144.87,3.50,2.63,3.50,2.64,-2.65,-2.66,-2.51,0.85,0.85,0.87
146.32,3.46,2.65,3.46,2.65,-2.65,-2.66,-2.48,0.81,0.81,0.82
147.78,3.42,2.66,3.42,2.66,-2.65,-2.66,-2.45,0.77,0.77,0.76
149.26,3.38,2.67,3.38,2.67,-2.65,-2.67,-2.42,0.73,0.73,0.71
150.75,3.34,2.67,3.34,2.67,-2.65,-2.67,-2.39,0.69,0.69,0.67
152.26,3.30,2.66,3.30,2.66,-2.65,-2.67,-2.36,0.65,0.65,0.64
153.78,3.26,2.65,3.26,2.65,-2.66,-2.67,-2.33,0.60,0.60,0.61
155.32,3.22,2.64,3.22,2.64,-2.66,-2.67,-2.31,0.56,0.56,0.58
156.88,3.18,2.64,3.18,2.64,-2.66,-2.67,-2.28,0.52,0.52,0.54
158.44,3.14,2.65,3.14,2.65,-2.66,-2.67,-2.25,0.48,0.48,0.49
160.03,3.10,2.67,3.10,2.67,-2.66,-2.67,-2.23,0.44,0.44,0.43
161.63,3.06,2.69,3.06,2.68,-2.66,-2.67,-2.20,0.40,0.40,0.37
163.24,3.02,2.68,3.02,2.67,-2.65,-2.67,-2.18,0.37,0.37,0.34
164.88,2.98,2.64,2.98,2.65,-2.65,-2.67,-2.16,0.33,0.33,0.34
166.53,2.94,2.63,2.94,2.63,-2.64,-2.66,-2.14,0.30,0.30,0.31
168.19,2.90,2.62,2.90,2.62,-2.63,-2.66,-2.12,0.27,0.27,0.28
169.87,2.86,2.61,2.86,2.62,-2.63,-2.66,-2.10,0.23,0.23,0.25
171.57,2.82,2.61,2.82,2.61,-2.62,-2.65,-2.08,0.20,0.20,0.21
173.29,2.78,2.61,2.78,2.61,-2.61,-2.65,-2.07,0.17,0.17,0.17
175.02,2.74,2.61,2.74,2.61,-2.60,-2.64,-2.06,0.13,0.13,0.13
176.77,2.70,2.60,2.70,2.60,-2.60,-2.63,-2.04,0.10,0.10,0.10
178.54,2.66,2.59,2.66,2.60,-2.59,-2.62,-2.04,0.07,0.07,0.06
180.32,2.62,2.59,2.62,2.59,-2.58,-2.61,-2.03,0.04,0.04,0.03
182.13,2.58,2.58,2.58,2.57,-2.57,-2.60,-2.02,0.01,0.01,0.00
183.95,2.53,2.56,2.53,2.56,-2.56,-2.59,-2.02,-0.02,-0.02,-0.02
185.79,2.49,2.54,2.49,2.54,-2.54,-2.57,-2.01,-0.05,-0.05,-0.05
187.65,2.45,2.52,2.45,2.52,-2.53,-2.56,-2.01,-0.08,-0.08,-0.07
189.52,2.41,2.51,2.41,2.51,-2.51,-2.54,-2.01,-0.10,-0.10,-0.10
191.42,2.37,2.49,2.37,2.49,-2.49,-2.52,-2.01,-0.13,-0.13,-0.13
193.33,2.32,2.48,2.32,2.48,-2.47,-2.50,-2.01,-0.15,-0.15,-0.16
195.27,2.28,2.46,2.28,2.46,-2.45,-2.48,-2.02,-0.17,-0.17,-0.18
197.22,2.24,2.43,2.24,2.43,-2.43,-2.46,-2.02,-0.19,-0.19,-0.19
199.19,2.19,2.40,2.19,2.41,-2.41,-2.44,-2.03,-0.22,-0.22,-0.21
201.18,2.15,2.38,2.15,2.38,-2.39,-2.41,-2.03,-0.24,-0.24,-0.23
203.19,2.11,2.36,2.11,2.36,-2.36,-2.39,-2.04,-0.26,-0.26,-0.25
205.23,2.07,2.34,2.07,2.34,-2.34,-2.36,-2.05,-0.27,-0.27,-0.28
207.28,2.02,2.32,2.02,2.32,-2.32,-2.34,-2.06,-0.29,-0.29,-0.30
209.35,1.98,2.29,1.98,2.29,-2.29,-2.31,-2.06,-0.31,-0.31,-0.31
211.44,1.94,2.26,1.94,2.26,-2.26,-2.28,-2.07,-0.33,-0.33,-0.33
213.56,1.89,2.24,1.89,2.24,-2.24,-2.26,-2.08,-0.34,-0.34,-0.34
215.69,1.85,2.21,1.85,2.21,-2.21,-2.23,-2.09,-0.36,-0.36,-0.36
217.85,1.80,2.18,1.80,2.18,-2.18,-2.20,-2.10,-0.37,-0.37,-0.37
220.03,1.76,2.15,1.76,2.15,-2.15,-2.17,-2.11,-0.39,-0.39,-0.39
222.23,1.72,2.12,1.72,2.11,-2.12,-2.14,-2.11,-0.40,-0.40,-0.40
224.45,1.68,2.08,1.68,2.08,-2.08,-2.11,-2.12,-0.41,-0.41,-0.41
226.70,1.63,2.05,1.63,2.05,-2.05,-2.08,-2.12,-0.42,-0.42,-0.41
228.96,1.59,2.02,1.59,2.02,-2.02,-2.06,-2.13,-0.43,-0.43,-0.43
231.25,1.55,1.99,1.55,1.99,-1.98,-2.03,-2.13,-0.43,-0.43,-0.44
233.57,1.51,1.95,1.51,1.95,-1.95,-2.00,-2.13,-0.44,-0.44,-0.45
235.90,1.46,1.91,1.46,1.91,-1.91,-1.97,-2.13,-0.45,-0.45,-0.45
238.26,1.42,1.86,1.42,1.87,-1.88,-1.94,-2.12,-0.45,-0.45,-0.44
240.64,1.38,1.82,1.38,1.83,-1.84,-1.91,-2.11,-0.46,-0.46,-0.44
243.05,1.34,1.82,1.34,1.81,-1.81,-1.88,-2.11,-0.47,-0.47,-0.47
245.48,1.30,1.78,1.30,1.78,-1.78,-1.84,-2.09,-0.47,-0.47,-0.48
247.93,1.27,1.75,1.26,1.75,-1.75,-1.81,-2.08,-0.48,-0.48,-0.49
250.41,1.23,1.72,1.23,1.72,-1.72,-1.78,-2.06,-0.49,-0.49,-0.49
252.92,1.19,1.68,1.19,1.68,-1.69,-1.75,-2.04,-0.50,-0.50,-0.49
255.45,1.15,1.65,1.15,1.65,-1.65,-1.72,-2.02,-0.50,-0.50,-0.50
258.00,1.11,1.62,1.11,1.62,-1.62,-1.69,-2.00,-0.51,-0.50,-0.51
260.58,1.08,1.59,1.08,1.59,-1.58,-1.66,-1.97,-0.51,-0.51,-0.51
263.19,1.04,1.55,1.04,1.55,-1.55,-1.63,-1.94,-0.51,-0.51,-0.51
265.82,1.00,1.52,1.00,1.51,-1.51,-1.59,-1.90,-0.51,-0.51,-0.51
268.48,0.97,1.47,0.97,1.47,-1.48,-1.56,-1.87,-0.51,-0.51,-0.50
271.16,0.93,1.44,0.93,1.43,-1.44,-1.53,-1.83,-0.51,-0.51,-0.50
273.87,0.90,1.40,0.90,1.40,-1.40,-1.50,-1.79,-0.51,-0.51,-0.50
276.61,0.86,1.36,0.86,1.37,-1.36,-1.46,-1.75,-0.50,-0.50,-0.50
279.38,0.82,1.33,0.82,1.33,-1.33,-1.43,-1.71,-0.50,-0.50,-0.51
282.17,0.79,1.30,0.79,1.29,-1.29,-1.40,-1.66,-0.50,-0.50,-0.51
284.99,0.75,1.25,0.75,1.26,-1.25,-1.37,-1.62,-0.50,-0.50,-0.50
287.84,0.72,1.21,0.72,1.21,-1.22,-1.33,-1.57,-0.50,-0.50,-0.50
290.72,0.68,1.18,0.68,1.18,-1.18,-1.30,-1.52,-0.50,-0.50,-0.50
293.63,0.65,1.14,0.65,1.14,-1.14,-1.26,-1.47,-0.50,-0.50,-0.49
296.57,0.61,1.11,0.61,1.11,-1.11,-1.23,-1.42,-0.50,-0.50,-0.50
299.53,0.58,1.08,0.58,1.07,-1.07,-1.20,-1.37,-0.49,-0.49,-0.50
302.53,0.54,1.04,0.54,1.04,-1.03,-1.16,-1.32,-0.49,-0.49,-0.50
305.55,0.51,0.99,0.51,1.00,-1.00,-1.13,-1.27,-0.49,-0.49,-0.49
308.61,0.48,0.96,0.48,0.96,-0.96,-1.09,-1.22,-0.48,-0.48,-0.48
311.69,0.44,0.92,0.44,0.92,-0.92,-1.06,-1.16,-0.48,-0.48,-0.48
314.81,0.41,0.88,0.41,0.88,-0.88,-1.02,-1.11,-0.47,-0.47,-0.47
317.96,0.38,0.85,0.38,0.85,-0.85,-0.99,-1.06,-0.47,-0.47,-0.47
321.14,0.35,0.81,0.35,0.81,-0.81,-0.95,-1.01,-0.47,-0.47,-0.47
324.35,0.31,0.78,0.31,0.78,-0.78,-0.92,-0.96,-0.46,-0.46,-0.46
327.59,0.28,0.74,0.28,0.74,-0.74,-0.88,-0.90,-0.46,-0.46,-0.46
330.87,0.25,0.71,0.25,0.71,-0.71,-0.85,-0.85,-0.46,-0.46,-0.45
334.18,0.22,0.67,0.22,0.67,-0.67,-0.81,-0.80,-0.45,-0.45,-0.45
337.52,0.19,0.64,0.19,0.64,-0.64,-0.78,-0.75,-0.45,-0.45,-0.45
340.90,0.16,0.60,0.16,0.60,-0.60,-0.74,-0.70,-0.44,-0.44,-0.44
344.30,0.13,0.57,0.13,0.56,-0.56,-0.71,-0.65,-0.43,-0.43,-0.44
347.75,0.10,0.53,0.10,0.53,-0.53,-0.67,-0.60,-0.43,-0.43,-0.43
351.23,0.07,0.49,0.07,0.49,-0.49,-0.63,-0.55,-0.42,-0.42,-0.42
354.74,0.04,0.46,0.04,0.45,-0.45,-0.60,-0.50,-0.41,-0.41,-0.42
358.28,0.01,0.40,0.01,0.41,-0.42,-0.56,-0.45,-0.41,-0.41,-0.39
361.87,-0.02,0.37,-0.02,0.38,-0.38,-0.53,-0.41,-0.40,-0.40,-0.39
365.49,-0.05,0.36,-0.05,0.35,-0.35,-0.49,-0.36,-0.40,-0.40,-0.40
369.14,-0.08,0.32,-0.08,0.32,-0.32,-0.46,-0.31,-0.39,-0.39,-0.39
372.83,-0.11,0.29,-0.11,0.29,-0.29,-0.42,-0.26,-0.39,-0.39,-0.39
376.56,-0.13,0.26,-0.13,0.25,-0.25,-0.39,-0.22,-0.39,-0.39,-0.39
380.33,-0.16,0.22,-0.16,0.23,-0.22,-0.35,-0.17,-0.39,-0.39,-0.39
384.13,-0.19,0.19,-0.19,0.19,-0.19,-0.31,-0.12,-0.38,-0.38,-0.38
387.97,-0.22,0.17,-0.22,0.16,-0.16,-0.28,-0.08,-0.38,-0.38,-0.38
391.85,-0.24,0.13,-0.24,0.13,-0.13,-0.24,-0.03,-0.37,-0.37,-0.37
395.77,-0.27,0.09,-0.27,0.10,-0.10,-0.21,0.01,-0.37,-0.37,-0.36
399.73,-0.30,0.07,-0.30,0.06,-0.07,-0.18,0.05,-0.36,-0.36,-0.36
403.72,-0.32,0.03,-0.32,0.03,-0.03,-0.14,0.10,-0.36,-0.36,-0.36
407.76,-0.35,0.00,-0.35,0.00,-0.00,-0.11,0.14,-0.35,-0.35,-0.35
411.84,-0.37,-0.03,-0.37,-0.03,0.03,-0.07,0.18,-0.35,-0.35,-0.35
415.96,-0.40,-0.06,-0.40,-0.06,0.06,-0.04,0.22,-0.34,-0.34,-0.34
420.12,-0.42,-0.09,-0.42,-0.08,0.08,-0.01,0.26,-0.34,-0.34,-0.34
424.32,-0.45,-0.11,-0.45,-0.11,0.11,0.03,0.30,-0.33,-0.33,-0.33
428.56,-0.47,-0.14,-0.47,-0.14,0.14,0.06,0.34,-0.33,-0.33,-0.33
432.85,-0.49,-0.16,-0.49,-0.16,0.16,0.09,0.38,-0.33,-0.33,-0.33
437.18,-0.52,-0.19,-0.52,-0.19,0.19,0.13,0.42,-0.33,-0.33,-0.32
441.55,-0.54,-0.22,-0.54,-0.22,0.22,0.16,0.45,-0.32,-0.32,-0.32
445.96,-0.56,-0.24,-0.56,-0.24,0.24,0.19,0.49,-0.32,-0.32,-0.32
450.42,-0.58,-0.27,-0.58,-0.27,0.27,0.22,0.52,-0.32,-0.32,-0.32
454.93,-0.60,-0.29,-0.60,-0.29,0.29,0.25,0.55,-0.31,-0.31,-0.31
459.48,-0.63,-0.31,-0.63,-0.31,0.32,0.28,0.58,-0.31,-0.31,-0.31
464.07,-0.65,-0.34,-0.65,-0.34,0.34,0.31,0.61,-0.31,-0.31,-0.31
468.71,-0.67,-0.37,-0.67,-0.36,0.37,0.34,0.64,-0.30,-0.30,-0.30
473.40,-0.69,-0.39,-0.69,-0.39,0.39,0.37,0.67,-0.30,-0.30,-0.30
478.13,-0.71,-0.42,-0.71,-0.42,0.41,0.40,0.69,-0.29,-0.29,-0.29
482.91,-0.73,-0.44,-0.73,-0.44,0.44,0.43,0.71,-0.29,-0.29,-0.29
487.74,-0.75,-0.46,-0.75,-0.46,0.46,0.45,0.73,-0.28,-0.28,-0.29
492.62,-0.77,-0.48,-0.77,-0.49,0.49,0.48,0.75,-0.28,-0.28,-0.28
497.55,-0.79,-0.52,-0.79,-0.51,0.51,0.51,0.77,-0.27,-0.27,-0.27
502.52,-0.80,-0.54,-0.80,-0.54,0.54,0.53,0.78,-0.26,-0.26,-0.26
507.55,-0.82,-0.55,-0.82,-0.56,0.56,0.56,0.79,-0.26,-0.26,-0.27
512.62,-0.84,-0.58,-0.84,-0.58,0.58,0.58,0.81,-0.25,-0.25,-0.25
