frequency,raw,error,smoothed,error_smoothed,equalization,parametric_eq,fixed_band_eq,equalized_raw,equalized_smoothed,target
20.00,7.67,0.94,7.67,0.92,-0.91,-0.20,-0.44,6.76,6.76,6.74
20.20,7.69,0.90,7.68,0.91,-0.91,-0.20,-0.45,6.78,6.77,6.79
20.40,7.70,0.87,7.70,0.90,-0.91,-0.21,-0.46,6.80,6.79,6.84
20.61,7.72,0.88,7.72,0.89,-0.90,-0.21,-0.48,6.82,6.82,6.84
20.81,7.76,0.92,7.76,0.91,-0.90,-0.22,-0.49,6.86,6.86,6.84
21.02,7.80,0.92,7.80,0.91,-0.90,-0.22,-0.51,6.90,6.90,6.88
21.23,7.84,0.90,7.84,0.90,-0.90,-0.23,-0.52,6.94,6.94,6.94
21.44,7.88,0.89,7.88,0.90,-0.90,-0.24,-0.54,6.98,6.98,7.00
21.66,7.93,0.89,7.93,0.90,-0.91,-0.24,-0.55,7.02,7.02,7.04
21.87,7.97,0.93,7.97,0.91,-0.91,-0.25,-0.57,7.06,7.06,7.04
22.09,8.01,0.91,8.01,0.92,-0.91,-0.26,-0.58,7.09,7.09,7.10
22.31,8.05,0.91,8.05,0.92,-0.92,-0.26,-0.60,7.13,7.13,7.14
22.54,8.08,0.94,8.08,0.91,-0.92,-0.27,-0.62,7.16,7.16,7.15
22.76,8.12,0.90,8.12,0.92,-0.92,-0.28,-0.63,7.20,7.20,7.22
22.99,8.16,0.93,8.16,0.93,-0.92,-0.29,-0.65,7.24,7.24,7.24
23.22,8.20,0.96,8.20,0.93,-0.93,-0.30,-0.67,7.28,7.28,7.24
23.45,8.24,0.92,8.24,0.92,-0.92,-0.30,-0.69,7.32,7.32,7.32
23.69,8.28,0.89,8.28,0.91,-0.92,-0.31,-0.71,7.36,7.36,7.40
23.92,8.32,0.89,8.32,0.90,-0.91,-0.32,-0.73,7.41,7.41,7.44
24.16,8.36,0.93,8.36,0.90,-0.90,-0.34,-0.75,7.46,7.46,7.44
24.40,8.40,0.90,8.40,0.90,-0.88,-0.35,-0.77,7.52,7.52,7.50
24.65,8.44,0.86,8.44,0.87,-0.85,-0.36,-0.79,7.58,7.58,7.57
24.89,8.47,0.84,8.47,0.84,-0.82,-0.37,-0.81,7.64,7.64,7.63
25.14,8.50,0.81,8.50,0.80,-0.80,-0.39,-0.83,7.70,7.71,7.70
25.39,8.53,0.77,8.54,0.76,-0.77,-0.40,-0.85,7.77,7.77,7.77
25.65,8.57,0.72,8.57,0.72,-0.74,-0.42,-0.87,7.83,7.83,7.85
25.91,8.60,0.69,8.60,0.71,-0.72,-0.43,-0.90,7.88,7.88,7.91
26.16,8.63,0.70,8.64,0.70,-0.70,-0.45,-0.92,7.93,7.93,7.94
26.43,8.67,0.73,8.67,0.70,-0.70,-0.47,-0.94,7.97,7.97,7.94
26.69,8.70,0.69,8.70,0.71,-0.70,-0.49,-0.96,8.00,8.00,8.01
26.96,8.73,0.70,8.73,0.71,-0.72,-0.52,-0.98,8.02,8.02,8.04
27.23,8.77,0.73,8.77,0.73,-0.74,-0.54,-1.00,8.03,8.03,8.04
27.50,8.80,0.76,8.80,0.76,-0.76,-0.57,-1.02,8.04,8.04,8.04
27.77,8.83,0.79,8.83,0.79,-0.79,-0.60,-1.04,8.04,8.04,8.04
28.05,8.86,0.82,8.86,0.82,-0.82,-0.64,-1.06,8.04,8.04,8.04
28.33,8.89,0.85,8.89,0.85,-0.85,-0.68,-1.08,8.04,8.04,8.04
28.62,8.92,0.88,8.92,0.88,-0.88,-0.72,-1.09,8.04,8.04,8.04
28.90,8.95,0.91,8.95,0.91,-0.91,-0.76,-1.11,8.04,8.04,8.04
29.19,8.98,0.94,8.98,0.94,-0.94,-0.81,-1.13,8.04,8.04,8.04
29.48,9.00,0.97,9.00,0.97,-0.96,-0.87,-1.14,8.04,8.04,8.04
29.78,9.03,0.99,9.03,0.99,-0.99,-0.93,-1.15,8.04,8.04,8.04
30.08,9.05,1.01,9.05,1.01,-1.01,-0.99,-1.17,8.04,8.04,8.04
30.38,9.07,1.03,9.07,1.03,-1.03,-1.06,-1.18,8.04,8.04,8.04
30.68,9.09,1.05,9.09,1.05,-1.05,-1.13,-1.19,8.04,8.04,8.04
30.99,9.11,1.07,9.11,1.07,-1.07,-1.20,-1.20,8.04,8.04,8.04
31.30,9.13,1.09,9.13,1.09,-1.09,-1.27,-1.20,8.03,8.03,8.04
31.61,9.15,1.11,9.15,1.11,-1.13,-1.34,-1.21,8.02,8.02,8.04
31.93,9.17,1.14,9.17,1.13,-1.16,-1.39,-1.21,8.01,8.01,8.04
32.24,9.19,1.16,9.19,1.18,-1.20,-1.43,-1.22,8.00,8.00,8.04
32.57,9.22,1.24,9.22,1.23,-1.24,-1.45,-1.22,7.98,7.98,7.98
32.89,9.24,1.30,9.24,1.28,-1.27,-1.46,-1.22,7.96,7.96,7.94
33.22,9.26,1.32,9.26,1.33,-1.30,-1.45,-1.22,7.95,7.95,7.94
33.55,9.28,1.34,9.28,1.35,-1.33,-1.42,-1.22,7.95,7.95,7.94
33.89,9.29,1.36,9.29,1.35,-1.34,-1.38,-1.22,7.95,7.95,7.94
34.23,9.31,1.37,9.31,1.35,-1.34,-1.33,-1.22,7.97,7.97,7.94
34.57,9.32,1.31,9.32,1.33,-1.33,-1.28,-1.21,7.99,7.99,8.01
34.92,9.34,1.30,9.34,1.31,-1.31,-1.23,-1.21,8.02,8.02,8.04
35.27,9.35,1.30,9.35,1.28,-1.29,-1.18,-1.20,8.06,8.06,8.05
35.62,9.36,1.24,9.36,1.26,-1.27,-1.13,-1.20,8.09,8.09,8.12
35.97,9.37,1.24,9.37,1.24,-1.25,-1.09,-1.19,8.13,8.13,8.14
36.33,9.39,1.23,9.39,1.21,-1.22,-1.05,-1.19,8.17,8.17,8.16
36.70,9.40,1.18,9.40,1.20,-1.19,-1.02,-1.18,8.21,8.21,8.22
37.06,9.41,1.18,9.41,1.18,-1.16,-0.99,-1.18,8.25,8.25,8.24
37.43,9.42,1.16,9.42,1.15,-1.12,-0.97,-1.17,8.30,8.30,8.26
37.81,9.43,1.11,9.43,1.10,-1.09,-0.95,-1.17,8.34,8.34,8.32
38.19,9.44,1.05,9.44,1.06,-1.06,-0.93,-1.16,8.38,8.38,8.39
38.57,9.45,1.01,9.45,1.02,-1.04,-0.92,-1.16,8.41,8.41,8.44
38.95,9.46,1.02,9.46,1.02,-1.03,-0.92,-1.15,8.43,8.43,8.44
39.34,9.47,1.03,9.47,1.02,-1.04,-0.91,-1.15,8.42,8.42,8.44
39.74,9.48,1.04,9.48,1.03,-1.08,-0.91,-1.15,8.39,8.39,8.44
40.14,9.49,1.06,9.49,1.07,-1.14,-0.92,-1.14,8.35,8.35,8.43
40.54,9.50,1.14,9.50,1.16,-1.20,-0.92,-1.14,8.30,8.30,8.36
40.94,9.52,1.26,9.52,1.26,-1.26,-0.93,-1.14,8.26,8.26,8.25
41.35,9.53,1.40,9.53,1.36,-1.31,-0.94,-1.14,8.23,8.23,8.14
41.76,9.55,1.42,9.55,1.43,-1.33,-0.95,-1.14,8.22,8.22,8.14
42.18,9.57,1.43,9.57,1.44,-1.35,-0.97,-1.14,8.22,8.22,8.14
42.60,9.59,1.42,9.59,1.38,-1.34,-0.99,-1.15,8.25,8.25,8.17
43.03,9.60,1.29,9.60,1.31,-1.32,-1.01,-1.15,8.28,8.28,8.31
43.46,9.61,1.22,9.61,1.24,-1.29,-1.04,-1.15,8.32,8.32,8.40
43.90,9.62,1.19,9.62,1.19,-1.26,-1.07,-1.16,8.36,8.36,8.44
44.33,9.63,1.20,9.63,1.18,-1.24,-1.10,-1.16,8.39,8.39,8.44
44.78,9.63,1.20,9.63,1.21,-1.22,-1.14,-1.17,8.41,8.41,8.44
45.23,9.63,1.23,9.63,1.24,-1.22,-1.19,-1.18,8.41,8.41,8.40
45.68,9.63,1.29,9.63,1.27,-1.24,-1.24,-1.18,8.40,8.39,8.34
46.13,9.63,1.29,9.63,1.29,-1.26,-1.29,-1.19,8.37,8.37,8.34
46.60,9.63,1.29,9.63,1.30,-1.28,-1.35,-1.20,8.35,8.35,8.34
47.06,9.63,1.30,9.63,1.30,-1.31,-1.42,-1.21,8.33,8.33,8.34
47.53,9.64,1.30,9.64,1.30,-1.33,-1.50,-1.22,8.31,8.31,8.34
48.01,9.65,1.31,9.65,1.32,-1.35,-1.58,-1.24,8.30,8.30,8.34
48.49,9.66,1.34,9.66,1.36,-1.36,-1.67,-1.25,8.30,8.30,8.32
48.97,9.67,1.41,9.67,1.40,-1.38,-1.77,-1.26,8.29,8.29,8.25
49.46,9.67,1.44,9.67,1.43,-1.39,-1.86,-1.28,8.28,8.28,8.24
49.96,9.68,1.44,9.68,1.45,-1.42,-1.94,-1.29,8.26,8.26,8.24
50.46,9.68,1.44,9.68,1.44,-1.45,-2.01,-1.31,8.23,8.23,8.24
50.96,9.68,1.45,9.68,1.45,-1.48,-2.07,-1.32,8.20,8.20,8.24
51.47,9.68,1.47,9.68,1.48,-1.52,-2.09,-1.34,8.16,8.16,8.21
51.99,9.68,1.54,9.68,1.53,-1.57,-2.10,-1.36,8.11,8.11,8.14
52.51,9.68,1.60,9.68,1.60,-1.62,-2.07,-1.37,8.05,8.05,8.07
53.03,9.67,1.67,9.67,1.67,-1.68,-2.04,-1.39,7.99,7.99,8.00
53.56,9.67,1.74,9.67,1.74,-1.73,-1.99,-1.41,7.93,7.93,7.93
54.10,9.66,1.80,9.66,1.81,-1.77,-1.93,-1.43,7.89,7.88,7.86
54.64,9.65,1.86,9.65,1.86,-1.80,-1.88,-1.44,7.85,7.85,7.79
55.18,9.65,1.90,9.65,1.87,-1.81,-1.83,-1.46,7.84,7.84,7.75
55.74,9.64,1.83,9.64,1.83,-1.81,-1.79,-1.48,7.83,7.83,7.81
56.29,9.64,1.75,9.64,1.77,-1.79,-1.75,-1.49,7.84,7.84,7.88
56.86,9.63,1.69,9.63,1.71,-1.77,-1.72,-1.51,7.86,7.86,7.94
57.42,9.62,1.69,9.62,1.68,-1.73,-1.70,-1.52,7.89,7.89,7.94
58.00,9.61,1.68,9.61,1.68,-1.68,-1.68,-1.54,7.93,7.93,7.94
58.58,9.61,1.67,9.61,1.67,-1.63,-1.67,-1.55,7.97,7.97,7.94
59.16,9.60,1.66,9.60,1.64,-1.59,-1.66,-1.56,8.01,8.01,7.94
59.76,9.59,1.59,9.59,1.59,-1.55,-1.66,-1.58,8.04,8.04,8.00
60.35,9.58,1.52,9.58,1.52,-1.52,-1.67,-1.59,8.06,8.06,8.06
60.96,9.57,1.44,9.57,1.46,-1.51,-1.67,-1.60,8.07,8.07,8.13
61.57,9.57,1.43,9.57,1.44,-1.50,-1.68,-1.60,8.06,8.06,8.14
62.18,9.56,1.47,9.56,1.46,-1.51,-1.69,-1.61,8.05,8.05,8.09
62.80,9.55,1.52,9.55,1.51,-1.53,-1.70,-1.62,8.01,8.01,8.02
63.43,9.53,1.57,9.54,1.57,-1.57,-1.72,-1.62,7.97,7.97,7.96
64.07,9.52,1.63,9.52,1.63,-1.61,-1.73,-1.62,7.91,7.91,7.89
64.71,9.51,1.68,9.51,1.69,-1.65,-1.75,-1.63,7.86,7.86,7.82
65.35,9.49,1.74,9.49,1.72,-1.68,-1.77,-1.63,7.81,7.81,7.75
66.01,9.47,1.74,9.47,1.74,-1.70,-1.78,-1.63,7.77,7.77,7.74
66.67,9.46,1.72,9.46,1.73,-1.72,-1.80,-1.63,7.74,7.74,7.74
67.33,9.44,1.70,9.44,1.70,-1.73,-1.81,-1.62,7.71,7.71,7.74
68.01,9.42,1.69,9.42,1.69,-1.74,-1.83,-1.62,7.68,7.68,7.74
68.69,9.40,1.70,9.40,1.71,-1.74,-1.84,-1.62,7.66,7.66,7.71
69.37,9.38,1.74,9.38,1.74,-1.75,-1.86,-1.62,7.64,7.64,7.64
70.07,9.36,1.79,9.36,1.78,-1.75,-1.87,-1.61,7.61,7.61,7.57
70.77,9.34,1.80,9.34,1.79,-1.75,-1.88,-1.61,7.58,7.58,7.54
71.48,9.31,1.78,9.31,1.78,-1.76,-1.89,-1.60,7.55,7.55,7.54
72.19,9.29,1.75,9.29,1.75,-1.76,-1.90,-1.60,7.53,7.53,7.54
72.91,9.26,1.73,9.26,1.73,-1.76,-1.91,-1.59,7.50,7.50,7.54
73.64,9.24,1.72,9.24,1.73,-1.75,-1.92,-1.59,7.49,7.49,7.52
74.38,9.21,1.76,9.21,1.74,-1.74,-1.93,-1.58,7.48,7.48,7.46
75.12,9.19,1.75,9.19,1.74,-1.73,-1.93,-1.58,7.46,7.46,7.44
75.87,9.16,1.72,9.16,1.73,-1.72,-1.94,-1.58,7.44,7.44,7.44
76.63,9.13,1.70,9.13,1.72,-1.72,-1.95,-1.57,7.42,7.42,7.44
77.40,9.10,1.72,9.10,1.71,-1.72,-1.95,-1.57,7.39,7.38,7.38
78.17,9.07,1.74,9.07,1.72,-1.73,-1.95,-1.57,7.35,7.35,7.34
78.95,9.04,1.71,9.04,1.73,-1.74,-1.96,-1.57,7.31,7.30,7.34
79.74,9.01,1.73,9.01,1.74,-1.75,-1.96,-1.57,7.26,7.26,7.28
80.54,8.97,1.76,8.97,1.76,-1.77,-1.97,-1.57,7.20,7.20,7.21
81.35,8.93,1.80,8.94,1.79,-1.79,-1.97,-1.57,7.15,7.15,7.14
82.16,8.90,1.83,8.90,1.83,-1.81,-1.97,-1.58,7.09,7.09,7.07
82.98,8.86,1.86,8.86,1.86,-1.83,-1.98,-1.58,7.03,7.03,7.00
83.81,8.83,1.89,8.83,1.87,-1.86,-1.98,-1.59,6.97,6.97,6.94
84.65,8.80,1.86,8.80,1.88,-1.89,-1.99,-1.59,6.91,6.91,6.94
85.50,8.77,1.88,8.77,1.89,-1.92,-1.99,-1.60,6.85,6.85,6.89
86.35,8.76,1.93,8.76,1.93,-1.96,-2.00,-1.61,6.79,6.79,6.82
87.22,8.75,1.99,8.75,2.00,-2.00,-2.00,-1.62,6.74,6.74,6.76
88.09,8.75,2.06,8.75,2.06,-2.05,-2.01,-1.63,6.70,6.70,6.69
88.97,8.76,2.13,8.76,2.11,-2.10,-2.02,-1.65,6.66,6.66,6.64
89.86,8.78,2.14,8.78,2.17,-2.15,-2.02,-1.66,6.62,6.62,6.64
90.76,8.79,2.22,8.79,2.22,-2.20,-2.03,-1.68,6.59,6.59,6.58
91.66,8.81,2.28,8.81,2.26,-2.25,-2.04,-1.69,6.56,6.56,6.54
92.58,8.82,2.29,8.82,2.29,-2.29,-2.05,-1.71,6.54,6.54,6.54
93.51,8.83,2.29,8.83,2.31,-2.31,-2.06,-1.73,6.51,6.51,6.54
94.44,8.83,2.33,8.83,2.34,-2.34,-2.07,-1.75,6.49,6.49,6.50
95.39,8.82,2.39,8.82,2.36,-2.36,-2.08,-1.77,6.47,6.47,6.44
96.34,8.81,2.38,8.81,2.37,-2.37,-2.09,-1.79,6.45,6.45,6.44
97.30,8.80,2.36,8.80,2.37,-2.38,-2.10,-1.82,6.42,6.42,6.44
98.28,8.78,2.35,8.78,2.37,-2.38,-2.11,-1.84,6.40,6.40,6.43
99.26,8.76,2.40,8.76,2.38,-2.39,-2.12,-1.87,6.37,6.37,6.36
100.25,8.74,2.40,8.74,2.39,-2.38,-2.13,-1.89,6.35,6.35,6.34
101.25,8.71,2.37,8.71,2.38,-2.37,-2.14,-1.92,6.34,6.34,6.34
102.27,8.68,2.35,8.68,2.37,-2.35,-2.15,-1.95,6.33,6.33,6.34
103.29,8.65,2.35,8.65,2.36,-2.33,-2.16,-1.97,6.32,6.32,6.31
104.32,8.62,2.37,8.62,2.33,-2.31,-2.17,-2.00,6.32,6.32,6.25
105.37,8.59,2.29,8.59,2.29,-2.29,-2.18,-2.03,6.30,6.31,6.30
106.42,8.56,2.22,8.56,2.24,-2.27,-2.20,-2.06,6.29,6.29,6.34
107.48,8.52,2.21,8.52,2.22,-2.26,-2.21,-2.09,6.26,6.26,6.31
108.56,8.49,2.23,8.49,2.24,-2.27,-2.22,-2.11,6.22,6.22,6.26
109.64,8.45,2.28,8.45,2.27,-2.28,-2.23,-2.14,6.17,6.17,6.17
110.74,8.41,2.31,8.41,2.31,-2.30,-2.24,-2.17,6.11,6.11,6.10
111.85,8.37,2.33,8.37,2.35,-2.33,-2.25,-2.19,6.04,6.04,6.04
112.97,8.33,2.39,8.33,2.38,-2.36,-2.27,-2.22,5.97,5.97,5.94
114.10,8.29,2.41,8.29,2.41,-2.39,-2.28,-2.24,5.89,5.89,5.88
115.24,8.24,2.42,8.24,2.42,-2.41,-2.29,-2.26,5.83,5.83,5.82
116.39,8.20,2.43,8.20,2.42,-2.42,-2.30,-2.28,5.78,5.78,5.77
117.55,8.15,2.42,8.15,2.42,-2.42,-2.31,-2.30,5.73,5.73,5.74
118.73,8.11,2.41,8.11,2.42,-2.41,-2.32,-2.32,5.70,5.70,5.70
119.92,8.06,2.42,8.06,2.40,-2.39,-2.34,-2.33,5.66,5.66,5.64
121.12,8.01,2.38,8.01,2.37,-2.37,-2.35,-2.35,5.64,5.64,5.64
122.33,7.96,2.33,7.96,2.33,-2.35,-2.36,-2.35,5.61,5.61,5.64
123.55,7.91,2.28,7.91,2.31,-2.32,-2.37,-2.36,5.60,5.60,5.64
124.79,7.86,2.31,7.86,2.29,-2.28,-2.38,-2.37,5.58,5.58,5.56
126.03,7.82,2.28,7.82,2.27,-2.25,-2.39,-2.37,5.57,5.57,5.54
127.29,7.77,2.24,7.77,2.24,-2.22,-2.40,-2.37,5.55,5.55,5.54
128.57,7.73,2.19,7.73,2.19,-2.19,-2.41,-2.37,5.54,5.54,5.54
129.85,7.69,2.16,7.69,2.15,-2.18,-2.42,-2.37,5.51,5.51,5.54
131.15,7.65,2.12,7.65,2.14,-2.17,-2.43,-2.36,5.48,5.48,5.53
132.46,7.62,2.16,7.62,2.16,-2.17,-2.43,-2.35,5.45,5.45,5.46
133.79,7.59,2.20,7.59,2.18,-2.19,-2.44,-2.34,5.40,5.40,5.40
135.12,7.57,2.23,7.57,2.21,-2.22,-2.45,-2.33,5.35,5.35,5.34
136.48,7.55,2.22,7.55,2.25,-2.26,-2.46,-2.32,5.29,5.29,5.34
137.84,7.53,2.28,7.53,2.30,-2.31,-2.46,-2.30,5.23,5.23,5.25
139.22,7.52,2.39,7.52,2.37,-2.36,-2.47,-2.29,5.16,5.16,5.12
140.61,7.50,2.45,7.50,2.43,-2.40,-2.48,-2.27,5.10,5.10,5.05
142.02,7.49,2.45,7.49,2.46,-2.43,-2.48,-2.25,5.05,5.05,5.04
143.44,7.47,2.45,7.47,2.47,-2.46,-2.49,-2.24,5.00,5.00,5.01
144.87,7.45,2.50,7.45,2.48,-2.48,-2.49,-2.22,4.96,4.96,4.94
146.32,7.42,2.48,7.42,2.50,-2.49,-2.50,-2.20,4.93,4.93,4.94
147.78,7.39,2.50,7.39,2.51,-2.50,-2.50,-2.18,4.89,4.89,4.90
149.26,7.36,2.53,7.36,2.50,-2.50,-2.51,-2.16,4.86,4.86,4.84
150.75,7.33,2.50,7.33,2.51,-2.51,-2.51,-2.14,4.82,4.82,4.84
152.26,7.30,2.50,7.30,2.51,-2.52,-2.51,-2.13,4.77,4.77,4.79
153.78,7.26,2.52,7.26,2.52,-2.54,-2.52,-2.11,4.72,4.72,4.74
155.32,7.22,2.55,7.22,2.55,-2.57,-2.52,-2.09,4.65,4.65,4.67
156.88,7.18,2.59,7.18,2.59,-2.60,-2.52,-2.08,4.58,4.58,4.59
158.44,7.14,2.63,7.14,2.63,-2.63,-2.52,-2.06,4.51,4.51,4.51
160.03,7.10,2.66,7.10,2.66,-2.67,-2.52,-2.05,4.43,4.43,4.43
161.63,7.06,2.68,7.06,2.69,-2.68,-2.52,-2.03,4.37,4.37,4.38
163.24,7.02,2.69,7.02,2.71,-2.68,-2.52,-2.02,4.34,4.34,4.32
164.88,6.97,2.73,6.97,2.72,-2.65,-2.52,-2.01,4.32,4.32,4.24
166.53,6.93,2.70,6.93,2.70,-2.62,-2.51,-2.00,4.32,4.32,4.24
168.19,6.89,2.64,6.89,2.62,-2.58,-2.51,-2.00,4.31,4.31,4.24
169.87,6.84,2.51,6.84,2.51,-2.54,-2.51,-1.99,4.30,4.30,4.33
171.57,6.80,2.38,6.80,2.41,-2.51,-2.50,-1.99,4.29,4.29,4.41
173.29,6.75,2.36,6.75,2.37,-2.48,-2.50,-1.98,4.27,4.27,4.39
175.02,6.70,2.37,6.70,2.40,-2.45,-2.49,-1.98,4.25,4.25,4.33
176.77,6.65,2.49,6.65,2.46,-2.44,-2.49,-1.98,4.21,4.21,4.16
178.54,6.60,2.51,6.60,2.50,-2.43,-2.48,-1.99,4.16,4.17,4.08
180.32,6.55,2.51,6.55,2.51,-2.44,-2.48,-1.99,4.11,4.11,4.04
182.13,6.49,2.46,6.49,2.46,-2.44,-2.47,-1.99,4.06,4.06,4.04
183.95,6.44,2.40,6.44,2.42,-2.43,-2.46,-2.00,4.01,4.01,4.04
185.79,6.39,2.38,6.39,2.39,-2.40,-2.45,-2.01,3.99,3.99,4.01
187.65,6.33,2.39,6.33,2.37,-2.36,-2.44,-2.02,3.97,3.97,3.95
189.52,6.28,2.34,6.28,2.33,-2.33,-2.43,-2.03,3.95,3.95,3.94
191.42,6.22,2.29,6.22,2.29,-2.30,-2.42,-2.04,3.92,3.92,3.94
193.33,6.17,2.23,6.17,2.25,-2.28,-2.41,-2.06,3.89,3.89,3.94
195.27,6.11,2.24,6.11,2.24,-2.27,-2.40,-2.07,3.84,3.84,3.87
197.22,6.06,2.26,6.06,2.25,-2.27,-2.39,-2.09,3.79,3.79,3.79
199.19,6.00,2.27,6.00,2.27,-2.27,-2.38,-2.10,3.73,3.73,3.73
201.18,5.94,2.28,5.94,2.29,-2.26,-2.36,-2.12,3.68,3.68,3.66
203.19,5.89,2.29,5.89,2.29,-2.26,-2.35,-2.14,3.63,3.63,3.60
205.23,5.83,2.30,5.83,2.28,-2.26,-2.34,-2.16,3.58,3.58,3.54
207.28,5.78,2.24,5.78,2.26,-2.25,-2.32,-2.18,3.53,3.53,3.54
209.35,5.72,2.23,5.72,2.24,-2.24,-2.31,-2.20,3.49,3.49,3.49
211.44,5.67,2.23,5.67,2.21,-2.22,-2.29,-2.21,3.44,3.44,3.44
213.56,5.61,2.18,5.61,2.19,-2.21,-2.28,-2.23,3.40,3.40,3.44
215.69,5.55,2.18,5.55,2.18,-2.20,-2.26,-2.25,3.35,3.35,3.38
217.85,5.50,2.19,5.50,2.19,-2.20,-2.24,-2.27,3.30,3.30,3.31
220.03,5.44,2.21,5.44,2.20,-2.21,-2.22,-2.29,3.24,3.24,3.23
222.23,5.39,2.21,5.39,2.21,-2.21,-2.21,-2.30,3.17,3.17,3.18
224.45,5.33,2.21,5.33,2.22,-2.21,-2.19,-2.32,3.12,3.12,3.12
226.70,5.27,2.23,5.27,2.23,-2.21,-2.17,-2.33,3.07,3.07,3.05
228.96,5.22,2.25,5.22,2.23,-2.20,-2.15,-2.34,3.02,3.02,2.97
231.25,5.16,2.22,5.16,2.21,-2.19,-2.13,-2.35,2.97,2.97,2.94
233.57,5.10,2.17,5.10,2.17,-2.17,-2.11,-2.36,2.93,2.93,2.94
235.90,5.04,2.11,5.05,2.12,-2.16,-2.09,-2.36,2.89,2.89,2.94
238.26,4.99,2.09,4.99,2.10,-2.14,-2.07,-2.37,2.85,2.85,2.89
240.64,4.93,2.11,4.93,2.10,-2.12,-2.04,-2.36,2.81,2.81,2.82
243.05,4.87,2.11,4.87,2.12,-2.11,-2.02,-2.36,2.76,2.76,2.76
245.48,4.82,2.13,4.82,2.12,-2.10,-2.00,-2.35,2.72,2.72,2.69
247.93,4.76,2.12,4.76,2.10,-2.09,-1.98,-2.34,2.67,2.67,2.64
250.41,4.70,2.07,4.70,2.08,-2.09,-1.95,-2.33,2.61,2.61,2.64
252.92,4.64,2.06,4.64,2.07,-2.08,-1.93,-2.31,2.56,2.56,2.59
255.45,4.59,2.07,4.59,2.07,-2.08,-1.90,-2.29,2.51,2.51,2.52
258.00,4.53,2.09,4.53,2.06,-2.07,-1.88,-2.27,2.46,2.46,2.44
260.58,4.47,2.04,4.47,2.05,-2.05,-1.85,-2.24,2.42,2.42,2.44
263.19,4.41,2.01,4.41,2.03,-2.03,-1.83,-2.21,2.39,2.39,2.41
265.82,4.36,2.02,4.36,2.02,-2.00,-1.80,-2.18,2.36,2.36,2.34
268.48,4.30,2.03,4.30,2.00,-1.97,-1.78,-2.14,2.33,2.33,2.27
271.16,4.24,1.98,4.24,1.95,-1.94,-1.75,-2.11,2.30,2.30,2.26
273.87,4.18,1.85,4.18,1.87,-1.90,-1.72,-2.07,2.29,2.29,2.33
276.61,4.12,1.79,4.12,1.81,-1.85,-1.70,-2.02,2.28,2.28,2.34
279.38,4.07,1.77,4.07,1.77,-1.79,-1.67,-1.98,2.28,2.28,2.30
282.17,4.01,1.77,4.01,1.75,-1.72,-1.64,-1.93,2.29,2.29,2.24
284.99,3.95,1.72,3.95,1.70,-1.65,-1.61,-1.88,2.30,2.30,2.24
287.84,3.89,1.61,3.89,1.61,-1.59,-1.59,-1.83,2.30,2.30,2.28
290.72,3.83,1.50,3.83,1.52,-1.53,-1.56,-1.78,2.31,2.31,2.34
293.63,3.78,1.44,3.78,1.44,-1.47,-1.53,-1.73,2.30,2.30,2.34
296.57,3.72,1.38,3.72,1.39,-1.42,-1.50,-1.68,2.30,2.30,2.34
299.53,3.66,1.36,3.66,1.36,-1.38,-1.47,-1.62,2.28,2.28,2.30
302.53,3.60,1.36,3.60,1.34,-1.34,-1.44,-1.57,2.26,2.26,2.24
305.55,3.54,1.31,3.54,1.31,-1.32,-1.41,-1.52,2.22,2.22,2.24
308.61,3.49,1.28,3.49,1.30,-1.30,-1.38,-1.46,2.18,2.18,2.20
311.69,3.43,1.29,3.43,1.29,-1.28,-1.35,-1.41,2.15,2.15,2.14
314.81,3.37,1.31,3.37,1.29,-1.26,-1.32,-1.35,2.11,2.11,2.06
317.96,3.31,1.28,3.31,1.27,-1.23,-1.29,-1.30,2.09,2.09,2.04
321.14,3.26,1.22,3.26,1.23,-1.20,-1.26,-1.24,2.06,2.06,2.04
324.35,3.20,1.16,3.20,1.16,-1.17,-1.23,-1.19,2.03,2.03,2.04
327.59,3.14,1.11,3.14,1.11,-1.15,-1.19,-1.13,1.99,1.99,2.04
330.87,3.08,1.07,3.08,1.08,-1.13,-1.16,-1.08,1.95,1.95,2.02
334.18,3.03,1.08,3.03,1.07,-1.11,-1.13,-1.03,1.92,1.92,1.95
337.52,2.97,1.08,2.97,1.08,-1.08,-1.10,-0.98,1.89,1.89,1.88
340.90,2.91,1.09,2.91,1.10,-1.05,-1.07,-0.92,1.86,1.86,1.82
344.30,2.85,1.10,2.85,1.10,-1.03,-1.03,-0.87,1.82,1.82,1.75
347.75,2.80,1.06,2.80,1.04,-1.01,-1.00,-0.82,1.79,1.79,1.74
351.23,2.74,0.98,2.74,0.97,-0.98,-0.97,-0.77,1.76,1.76,1.76
354.74,2.68,0.85,2.68,0.90,-0.95,-0.93,-0.72,1.74,1.74,1.83
358.28,2.63,0.86,2.63,0.86,-0.91,-0.90,-0.67,1.72,1.72,1.77
361.87,2.57,0.87,2.57,0.86,-0.87,-0.87,-0.63,1.70,1.70,1.70
365.49,2.51,0.88,2.51,0.86,-0.83,-0.83,-0.58,1.68,1.68,1.64
369.14,2.46,0.82,2.46,0.82,-0.80,-0.80,-0.53,1.66,1.66,1.64
372.83,2.40,0.76,2.40,0.77,-0.77,-0.77,-0.49,1.63,1.63,1.64
376.56,2.34,0.72,2.34,0.74,-0.74,-0.73,-0.44,1.60,1.60,1.63
380.33,2.29,0.73,2.29,0.71,-0.72,-0.70,-0.39,1.57,1.57,1.56
384.13,2.23,0.70,2.23,0.68,-0.69,-0.66,-0.35,1.55,1.55,1.54
387.97,2.18,0.64,2.18,0.65,-0.66,-0.63,-0.30,1.52,1.52,1.54
391.85,2.12,0.59,2.12,0.61,-0.62,-0.60,-0.26,1.50,1.50,1.54
395.77,2.07,0.59,2.07,0.58,-0.59,-0.56,-0.22,1.48,1.48,1.48
399.73,2.01,0.58,2.01,0.56,-0.55,-0.53,-0.17,1.46,1.46,1.44
403.72,1.96,0.52,1.96,0.52,-0.50,-0.49,-0.13,1.46,1.46,1.44
407.76,1.90,0.47,1.90,0.48,-0.45,-0.46,-0.09,1.45,1.45,1.44
411.84,1.85,0.41,1.85,0.41,-0.40,-0.42,-0.05,1.45,1.45,1.44
415.96,1.79,0.36,1.79,0.33,-0.34,-0.38,-0.01,1.45,1.45,1.44
420.12,1.74,0.24,1.74,0.26,-0.29,-0.35,0.03,1.45,1.45,1.50
424.32,1.69,0.19,1.69,0.21,-0.23,-0.31,0.07,1.46,1.46,1.50
428.56,1.63,0.20,1.63,0.17,-0.17,-0.28,0.11,1.46,1.46,1.44
432.85,1.58,0.14,1.58,0.14,-0.12,-0.24,0.15,1.46,1.46,1.44
437.18,1.52,0.09,1.52,0.09,-0.08,-0.20,0.18,1.45,1.45,1.44
441.55,1.47,0.04,1.47,0.03,-0.04,-0.17,0.22,1.43,1.43,1.44
445.96,1.42,-0.02,1.42,0.00,-0.01,-0.13,0.26,1.41,1.41,1.44
450.42,1.36,-0.02,1.36,-0.03,0.02,-0.10,0.29,1.38,1.38,1.39
454.93,1.31,-0.02,1.31,-0.05,0.03,-0.06,0.32,1.34,1.34,1.34
459.48,1.26,-0.07,1.26,-0.06,0.04,-0.02,0.36,1.30,1.30,1.34
464.07,1.21,-0.07,1.21,-0.06,0.04,0.02,0.39,1.25,1.25,1.28
468.71,1.16,-0.05,1.16,-0.06,0.04,0.05,0.42,1.20,1.20,1.21
473.40,1.11,-0.04,1.11,-0.03,0.05,0.09,0.45,1.15,1.15,1.14
478.13,1.06,-0.02,1.06,-0.02,0.05,0.13,0.48,1.11,1.11,1.08
482.91,1.01,-0.03,1.01,-0.04,0.07,0.16,0.51,1.08,1.08,1.04
487.74,0.96,-0.08,0.96,-0.07,0.09,0.20,0.54,1.05,1.05,1.04
492.62,0.91,-0.13,0.91,-0.12,0.13,0.24,0.56,1.03,1.03,1.04
497.55,0.86,-0.18,0.86,-0.18,0.17,0.28,0.59,1.02,1.02,1.04
502.52,0.81,-0.23,0.81,-0.23,0.21,0.32,0.61,1.02,1.02,1.04
507.55,0.76,-0.27,0.76,-0.27,0.27,0.35,0.64,1.03,1.03,1.04
512.62,0.71,-0.32,0.71,-0.32,0.32,0.39,0.66,1.03,1.03,1.04
517.75,0.66,-0.37,0.66,-0.37,0.37,0.43,0.68,1.03,1.03,1.04
522.93,0.62,-0.42,0.62,-0.42,0.42,0.47,0.70,1.04,1.04,1.04
528.16,0.57,-0.46,0.57,-0.46,0.46,0.51,0.72,1.04,1.04,1.04
533.44,0.52,-0.51,0.52,-0.51,0.51,0.54,0.74,1.04,1.04,1.04
538.77,0.48,-0.56,0.48,-0.56,0.56,0.58,0.76,1.04,1.04,1.04
544.16,0.43,-0.60,0.43,-0.60,0.60,0.62,0.78,1.03,1.04,1.04
549.60,0.39,-0.65,0.39,-0.65,0.65,0.66,0.79,1.04,1.04,1.04
