frequency,raw,error,smoothed,error_smoothed,equalization,parametric_eq,fixed_band_eq,equalized_raw,equalized_smoothed,target
20.00,11.58,2.88,11.58,2.88,-2.84,-2.84,-1.36,8.73,8.73,8.70
20.20,11.57,2.86,11.57,2.86,-2.86,-2.86,-1.40,8.71,8.71,8.70
20.40,11.56,2.85,11.56,2.86,-2.87,-2.87,-1.44,8.69,8.69,8.70
20.61,11.55,2.85,11.55,2.86,-2.88,-2.88,-1.48,8.67,8.67,8.70
20.81,11.55,2.87,11.55,2.87,-2.89,-2.89,-1.53,8.65,8.65,8.68
21.02,11.55,2.88,11.55,2.88,-2.91,-2.90,-1.57,8.64,8.64,8.66
21.23,11.54,2.91,11.54,2.91,-2.92,-2.91,-1.62,8.63,8.63,8.64
21.44,11.54,2.93,11.54,2.93,-2.92,-2.92,-1.67,8.61,8.61,8.61
21.66,11.53,2.95,11.53,2.95,-2.94,-2.93,-1.71,8.58,8.58,8.58
21.87,11.51,2.96,11.51,2.96,-2.95,-2.93,-1.77,8.56,8.56,8.55
22.09,11.50,2.97,11.50,2.97,-2.96,-2.94,-1.82,8.53,8.53,8.52
22.31,11.47,2.97,11.47,2.97,-2.96,-2.94,-1.87,8.51,8.51,8.50
22.54,11.45,2.97,11.45,2.96,-2.96,-2.95,-1.92,8.50,8.50,8.49
22.76,11.43,2.95,11.42,2.95,-2.94,-2.95,-1.98,8.48,8.48,8.47
22.99,11.40,2.93,11.40,2.93,-2.93,-2.96,-2.04,8.47,8.47,8.47
23.22,11.37,2.91,11.37,2.91,-2.92,-2.96,-2.09,8.45,8.45,8.46
23.45,11.34,2.90,11.34,2.90,-2.91,-2.96,-2.15,8.44,8.44,8.45
23.69,11.32,2.89,11.32,2.89,-2.90,-2.97,-2.21,8.42,8.42,8.43
23.92,11.31,2.89,11.31,2.89,-2.90,-2.97,-2.28,8.40,8.40,8.42
24.16,11.29,2.90,11.30,2.90,-2.92,-2.97,-2.34,8.38,8.38,8.39
24.40,11.29,2.92,11.29,2.92,-2.93,-2.97,-2.40,8.36,8.36,8.37
24.65,11.29,2.95,11.29,2.95,-2.96,-2.97,-2.47,8.33,8.33,8.34
24.89,11.29,2.99,11.29,2.99,-2.98,-2.97,-2.53,8.31,8.31,8.31
25.14,11.29,3.01,11.29,3.01,-3.00,-2.97,-2.60,8.29,8.29,8.28
25.39,11.29,3.04,11.29,3.04,-3.02,-2.97,-2.67,8.27,8.27,8.25
25.65,11.27,3.05,11.27,3.05,-3.03,-2.97,-2.73,8.24,8.24,8.22
25.91,11.24,3.04,11.24,3.04,-3.03,-2.97,-2.80,8.21,8.21,8.19
26.16,11.20,3.03,11.19,3.03,-3.02,-2.97,-2.87,8.18,8.18,8.17
26.43,11.14,3.00,11.14,3.00,-3.00,-2.97,-2.93,8.14,8.14,8.14
26.69,11.09,2.97,11.09,2.97,-2.98,-2.97,-3.00,8.11,8.11,8.11
26.96,11.04,2.94,11.04,2.94,-2.95,-2.97,-3.06,8.09,8.09,8.10
27.23,11.00,2.92,11.00,2.92,-2.93,-2.97,-3.13,8.07,8.07,8.08
27.50,10.97,2.90,10.97,2.90,-2.91,-2.97,-3.19,8.06,8.06,8.07
27.77,10.96,2.89,10.96,2.89,-2.90,-2.97,-3.25,8.05,8.06,8.07
28.05,10.95,2.89,10.95,2.89,-2.90,-2.96,-3.31,8.05,8.05,8.06
28.33,10.95,2.90,10.95,2.90,-2.90,-2.96,-3.36,8.05,8.05,8.05
28.62,10.94,2.90,10.94,2.90,-2.90,-2.96,-3.41,8.04,8.04,8.04
28.90,10.94,2.91,10.93,2.91,-2.90,-2.96,-3.46,8.03,8.03,8.02
29.19,10.92,2.92,10.92,2.92,-2.91,-2.96,-3.51,8.01,8.01,8.01
29.48,10.91,2.92,10.91,2.92,-2.92,-2.96,-3.55,7.99,7.99,7.98
29.78,10.89,2.92,10.89,2.92,-2.92,-2.96,-3.59,7.96,7.96,7.96
30.08,10.87,2.93,10.87,2.93,-2.93,-2.96,-3.62,7.94,7.94,7.94
30.38,10.85,2.94,10.85,2.94,-2.94,-2.96,-3.65,7.91,7.91,7.92
30.68,10.84,2.95,10.84,2.95,-2.95,-2.96,-3.67,7.89,7.89,7.89
30.99,10.82,2.96,10.82,2.96,-2.96,-2.96,-3.69,7.86,7.86,7.86
31.30,10.80,2.97,10.80,2.97,-2.97,-2.96,-3.71,7.84,7.84,7.84
31.61,10.79,2.98,10.79,2.98,-2.98,-2.96,-3.72,7.81,7.81,7.81
31.93,10.77,2.99,10.77,2.99,-2.99,-2.96,-3.72,7.78,7.78,7.78
32.24,10.74,3.00,10.74,3.00,-3.00,-2.97,-3.73,7.75,7.75,7.75
32.57,10.72,3.00,10.72,3.00,-3.00,-2.97,-3.72,7.72,7.72,7.72
32.89,10.69,3.01,10.69,3.01,-3.01,-2.97,-3.71,7.68,7.68,7.68
33.22,10.66,3.01,10.66,3.01,-3.01,-2.97,-3.70,7.65,7.65,7.65
33.55,10.63,3.02,10.63,3.01,-3.01,-2.97,-3.69,7.62,7.62,7.62
33.89,10.59,3.02,10.59,3.02,-3.01,-2.98,-3.67,7.58,7.58,7.58
34.23,10.55,3.01,10.55,3.01,-3.01,-2.98,-3.64,7.54,7.54,7.54
34.57,10.51,3.01,10.51,3.01,-3.01,-2.98,-3.62,7.50,7.50,7.50
34.92,10.47,3.01,10.47,3.01,-3.01,-2.99,-3.59,7.46,7.46,7.46
35.27,10.43,3.01,10.43,3.01,-3.01,-2.99,-3.56,7.42,7.42,7.43
35.62,10.40,3.01,10.40,3.01,-3.01,-3.00,-3.53,7.38,7.38,7.39
35.97,10.36,3.01,10.36,3.01,-3.01,-3.00,-3.50,7.35,7.35,7.35
36.33,10.33,3.02,10.33,3.02,-3.02,-3.01,-3.46,7.31,7.31,7.31
36.70,10.30,3.02,10.29,3.02,-3.02,-3.01,-3.43,7.27,7.27,7.27
37.06,10.26,3.03,10.26,3.03,-3.03,-3.02,-3.39,7.23,7.23,7.23
37.43,10.22,3.04,10.22,3.04,-3.04,-3.03,-3.36,7.19,7.19,7.19
37.81,10.19,3.04,10.19,3.04,-3.04,-3.03,-3.32,7.14,7.14,7.15
38.19,10.15,3.05,10.15,3.05,-3.05,-3.04,-3.29,7.10,7.10,7.10
38.57,10.12,3.06,10.12,3.06,-3.06,-3.04,-3.25,7.06,7.06,7.06
38.95,10.09,3.06,10.09,3.06,-3.06,-3.05,-3.22,7.03,7.03,7.03
39.34,10.06,3.07,10.06,3.07,-3.07,-3.06,-3.19,6.99,6.99,6.99
39.74,10.03,3.07,10.03,3.07,-3.07,-3.06,-3.16,6.96,6.96,6.96
40.14,10.00,3.07,10.00,3.07,-3.07,-3.07,-3.13,6.93,6.93,6.92
40.54,9.97,3.07,9.97,3.07,-3.07,-3.08,-3.10,6.89,6.89,6.89
40.94,9.93,3.07,9.93,3.07,-3.07,-3.09,-3.07,6.86,6.86,6.86
41.35,9.90,3.07,9.90,3.07,-3.07,-3.09,-3.05,6.83,6.83,6.83
41.76,9.87,3.07,9.87,3.07,-3.07,-3.10,-3.03,6.80,6.80,6.80
42.18,9.84,3.07,9.84,3.07,-3.07,-3.11,-3.01,6.76,6.76,6.76
42.60,9.80,3.07,9.80,3.07,-3.07,-3.11,-2.99,6.72,6.72,6.72
43.03,9.76,3.08,9.76,3.08,-3.08,-3.12,-2.98,6.68,6.68,6.68
43.46,9.72,3.08,9.72,3.08,-3.08,-3.13,-2.96,6.63,6.63,6.64
43.90,9.68,3.09,9.68,3.09,-3.09,-3.14,-2.95,6.59,6.59,6.59
44.33,9.64,3.09,9.64,3.09,-3.09,-3.14,-2.94,6.54,6.54,6.54
44.78,9.60,3.10,9.60,3.10,-3.10,-3.15,-2.94,6.50,6.50,6.49
45.23,9.56,3.11,9.56,3.11,-3.11,-3.16,-2.93,6.46,6.46,6.45
45.68,9.53,3.12,9.53,3.12,-3.11,-3.16,-2.93,6.41,6.41,6.41
46.13,9.49,3.12,9.49,3.12,-3.12,-3.17,-2.93,6.37,6.37,6.37
46.60,9.46,3.13,9.46,3.13,-3.13,-3.17,-2.93,6.33,6.33,6.33
47.06,9.42,3.13,9.42,3.13,-3.14,-3.18,-2.93,6.28,6.28,6.29
47.53,9.38,3.14,9.38,3.14,-3.15,-3.18,-2.94,6.23,6.23,6.24
48.01,9.35,3.16,9.35,3.16,-3.16,-3.19,-2.95,6.19,6.19,6.19
48.49,9.31,3.17,9.31,3.17,-3.17,-3.19,-2.96,6.14,6.14,6.14
48.97,9.28,3.19,9.28,3.19,-3.19,-3.20,-2.97,6.09,6.09,6.09
49.46,9.25,3.21,9.24,3.20,-3.20,-3.20,-2.99,6.05,6.05,6.04
49.96,9.21,3.22,9.20,3.21,-3.21,-3.20,-3.00,6.00,6.00,5.99
50.46,9.16,3.22,9.16,3.22,-3.21,-3.20,-3.02,5.95,5.95,5.94
50.96,9.11,3.22,9.11,3.22,-3.22,-3.21,-3.04,5.90,5.90,5.90
51.47,9.06,3.22,9.06,3.22,-3.22,-3.21,-3.06,5.85,5.85,5.85
51.99,9.01,3.22,9.01,3.22,-3.22,-3.21,-3.08,5.80,5.80,5.80
52.51,8.97,3.21,8.97,3.21,-3.21,-3.21,-3.10,5.75,5.75,5.75
53.03,8.92,3.21,8.92,3.21,-3.21,-3.21,-3.12,5.71,5.71,5.71
53.56,8.87,3.21,8.87,3.21,-3.21,-3.21,-3.14,5.66,5.66,5.66
54.10,8.83,3.21,8.83,3.21,-3.21,-3.21,-3.16,5.62,5.62,5.62
54.64,8.79,3.21,8.79,3.21,-3.22,-3.21,-3.18,5.57,5.57,5.58
55.18,8.75,3.22,8.75,3.22,-3.22,-3.21,-3.21,5.53,5.52,5.53
55.74,8.70,3.22,8.70,3.22,-3.22,-3.20,-3.23,5.48,5.48,5.48
56.29,8.66,3.23,8.66,3.23,-3.23,-3.20,-3.25,5.43,5.43,5.42
56.86,8.61,3.24,8.61,3.24,-3.23,-3.20,-3.27,5.38,5.38,5.37
57.42,8.57,3.24,8.57,3.24,-3.24,-3.19,-3.28,5.33,5.33,5.32
58.00,8.52,3.24,8.52,3.24,-3.24,-3.19,-3.30,5.28,5.28,5.28
58.58,8.47,3.24,8.47,3.24,-3.24,-3.18,-3.31,5.23,5.23,5.24
59.16,8.43,3.24,8.43,3.24,-3.24,-3.18,-3.32,5.19,5.19,5.19
59.76,8.38,3.24,8.38,3.24,-3.24,-3.17,-3.33,5.14,5.14,5.14
60.35,8.33,3.24,8.33,3.24,-3.23,-3.17,-3.34,5.11,5.11,5.10
60.96,8.29,3.23,8.29,3.22,-3.22,-3.16,-3.35,5.07,5.07,5.06
61.57,8.24,3.20,8.24,3.20,-3.20,-3.15,-3.35,5.04,5.04,5.04
62.18,8.20,3.18,8.20,3.18,-3.18,-3.15,-3.35,5.02,5.02,5.02
62.80,8.15,3.15,8.15,3.15,-3.15,-3.14,-3.34,5.00,5.00,5.00
63.43,8.10,3.13,8.10,3.13,-3.12,-3.13,-3.34,4.98,4.98,4.98
64.07,8.06,3.09,8.06,3.09,-3.09,-3.12,-3.33,4.96,4.96,4.96
64.71,8.01,3.06,8.01,3.07,-3.07,-3.12,-3.32,4.94,4.94,4.95
65.35,7.96,3.04,7.96,3.04,-3.05,-3.11,-3.30,4.92,4.92,4.92
66.01,7.91,3.02,7.91,3.02,-3.03,-3.10,-3.28,4.88,4.88,4.89
66.67,7.86,3.01,7.86,3.01,-3.02,-3.09,-3.27,4.85,4.85,4.86
67.33,7.82,3.00,7.82,3.00,-3.01,-3.08,-3.24,4.80,4.80,4.81
68.01,7.77,3.01,7.77,3.01,-3.01,-3.07,-3.22,4.76,4.76,4.76
68.69,7.72,3.01,7.72,3.01,-3.01,-3.06,-3.20,4.71,4.71,4.71
69.37,7.67,3.02,7.67,3.02,-3.01,-3.05,-3.17,4.67,4.67,4.66
70.07,7.63,3.01,7.63,3.01,-3.00,-3.05,-3.14,4.62,4.62,4.61
70.77,7.58,3.01,7.58,3.01,-3.00,-3.04,-3.11,4.58,4.58,4.57
71.48,7.53,3.00,7.53,3.00,-3.00,-3.03,-3.08,4.53,4.53,4.53
72.19,7.48,2.99,7.48,2.99,-2.99,-3.02,-3.05,4.49,4.49,4.49
72.91,7.43,2.98,7.43,2.98,-2.98,-3.01,-3.02,4.45,4.45,4.45
73.64,7.38,2.97,7.38,2.97,-2.97,-3.00,-2.99,4.41,4.41,4.41
74.38,7.33,2.96,7.33,2.96,-2.96,-2.99,-2.96,4.37,4.37,4.37
75.12,7.28,2.96,7.28,2.96,-2.96,-2.98,-2.93,4.32,4.32,4.32
75.87,7.23,2.95,7.23,2.95,-2.95,-2.98,-2.90,4.28,4.28,4.28
76.63,7.18,2.95,7.18,2.95,-2.95,-2.97,-2.88,4.23,4.23,4.23
77.40,7.13,2.94,7.13,2.95,-2.95,-2.96,-2.85,4.18,4.18,4.18
78.17,7.08,2.95,7.08,2.95,-2.95,-2.95,-2.82,4.12,4.12,4.13
78.95,7.03,2.95,7.03,2.95,-2.96,-2.95,-2.80,4.07,4.07,4.07
79.74,6.98,2.96,6.98,2.96,-2.96,-2.94,-2.77,4.02,4.02,4.02
80.54,6.93,2.97,6.93,2.97,-2.97,-2.93,-2.75,3.96,3.96,3.96
81.35,6.88,2.98,6.88,2.98,-2.97,-2.93,-2.73,3.91,3.91,3.90
82.16,6.83,2.98,6.83,2.98,-2.97,-2.92,-2.71,3.86,3.86,3.85
82.98,6.78,2.97,6.78,2.98,-2.97,-2.92,-2.69,3.81,3.81,3.80
83.81,6.73,2.97,6.73,2.97,-2.97,-2.91,-2.68,3.75,3.75,3.76
84.65,6.67,2.96,6.67,2.96,-2.97,-2.91,-2.66,3.70,3.70,3.71
85.50,6.62,2.96,6.62,2.96,-2.97,-2.90,-2.65,3.65,3.65,3.66
86.35,6.56,2.95,6.56,2.95,-2.96,-2.90,-2.64,3.61,3.61,3.61
87.22,6.51,2.95,6.51,2.95,-2.94,-2.89,-2.63,3.56,3.56,3.56
88.09,6.45,2.95,6.45,2.95,-2.93,-2.89,-2.63,3.52,3.52,3.50
88.97,6.40,2.94,6.40,2.94,-2.92,-2.89,-2.62,3.48,3.49,3.46
89.86,6.35,2.91,6.35,2.91,-2.91,-2.89,-2.62,3.44,3.44,3.44
90.76,6.30,2.87,6.30,2.88,-2.90,-2.89,-2.62,3.40,3.40,3.44
91.66,6.25,2.85,6.25,2.86,-2.90,-2.88,-2.62,3.35,3.35,3.40
92.58,6.20,2.87,6.20,2.87,-2.89,-2.88,-2.63,3.31,3.31,3.33
93.51,6.14,2.89,6.14,2.89,-2.88,-2.88,-2.63,3.26,3.26,3.24
94.44,6.07,2.90,6.07,2.89,-2.86,-2.88,-2.64,3.21,3.21,3.17
95.39,6.00,2.88,6.00,2.88,-2.84,-2.88,-2.65,3.16,3.16,3.12
96.34,5.92,2.85,5.92,2.85,-2.82,-2.89,-2.66,3.11,3.11,3.07
97.30,5.84,2.80,5.84,2.80,-2.79,-2.89,-2.67,3.05,3.05,3.04
98.28,5.75,2.75,5.75,2.75,-2.77,-2.89,-2.69,2.99,2.99,3.00
99.26,5.67,2.71,5.67,2.71,-2.75,-2.89,-2.70,2.92,2.92,2.96
100.25,5.60,2.69,5.61,2.69,-2.74,-2.89,-2.72,2.87,2.87,2.91
101.25,5.56,2.70,5.56,2.70,-2.74,-2.90,-2.74,2.82,2.83,2.86
102.27,5.55,2.74,5.54,2.74,-2.75,-2.90,-2.76,2.80,2.80,2.81
103.29,5.54,2.78,5.54,2.78,-2.77,-2.90,-2.78,2.77,2.76,2.76
104.32,5.53,2.83,5.53,2.82,-2.80,-2.91,-2.80,2.73,2.73,2.71
105.37,5.52,2.86,5.52,2.86,-2.84,-2.91,-2.82,2.68,2.68,2.66
106.42,5.50,2.89,5.50,2.89,-2.88,-2.91,-2.84,2.63,2.63,2.61
107.48,5.48,2.91,5.48,2.91,-2.91,-2.92,-2.86,2.57,2.57,2.56
108.56,5.45,2.93,5.45,2.93,-2.93,-2.92,-2.88,2.52,2.52,2.52
109.64,5.42,2.95,5.42,2.95,-2.95,-2.92,-2.91,2.47,2.47,2.48
110.74,5.40,2.96,5.40,2.97,-2.97,-2.93,-2.93,2.43,2.43,2.43
111.85,5.37,2.98,5.37,2.98,-2.98,-2.93,-2.95,2.39,2.39,2.39
112.97,5.34,3.00,5.34,3.00,-2.99,-2.94,-2.97,2.35,2.35,2.34
114.10,5.31,3.01,5.30,3.01,-3.00,-2.94,-2.98,2.30,2.30,2.30
115.24,5.26,3.01,5.26,3.01,-3.01,-2.94,-3.00,2.26,2.26,2.25
116.39,5.22,3.01,5.22,3.01,-3.01,-2.95,-3.01,2.21,2.21,2.21
117.55,5.17,3.01,5.17,3.01,-3.01,-2.95,-3.03,2.16,2.16,2.16
118.73,5.12,3.01,5.12,3.01,-3.01,-2.95,-3.04,2.11,2.11,2.11
119.92,5.07,3.01,5.07,3.01,-3.01,-2.95,-3.04,2.06,2.06,2.06
121.12,5.02,3.00,5.02,3.00,-3.01,-2.95,-3.05,2.01,2.01,2.02
122.33,4.97,3.00,4.97,3.00,-3.00,-2.95,-3.05,1.96,1.96,1.97
123.55,4.91,3.00,4.91,3.00,-3.00,-2.95,-3.06,1.92,1.92,1.92
124.79,4.86,3.00,4.86,3.00,-2.99,-2.95,-3.05,1.87,1.87,1.87
126.03,4.81,2.99,4.81,2.99,-2.98,-2.95,-3.05,1.83,1.83,1.82
127.29,4.76,2.97,4.76,2.97,-2.97,-2.95,-3.04,1.79,1.80,1.79
128.57,4.71,2.96,4.71,2.96,-2.95,-2.95,-3.03,1.76,1.76,1.75
129.85,4.66,2.94,4.66,2.94,-2.94,-2.94,-3.02,1.72,1.72,1.72
131.15,4.61,2.92,4.61,2.92,-2.93,-2.93,-3.01,1.68,1.68,1.69
132.46,4.56,2.90,4.56,2.91,-2.93,-2.93,-2.99,1.64,1.64,1.66
133.79,4.51,2.90,4.51,2.90,-2.92,-2.92,-2.97,1.60,1.60,1.61
135.12,4.46,2.90,4.46,2.91,-2.90,-2.91,-2.95,1.56,1.56,1.56
136.48,4.41,2.91,4.41,2.91,-2.89,-2.89,-2.92,1.53,1.53,1.51
137.84,4.36,2.90,4.36,2.89,-2.86,-2.88,-2.90,1.50,1.50,1.47
139.22,4.32,2.87,4.32,2.86,-2.84,-2.86,-2.87,1.48,1.48,1.45
140.61,4.27,2.81,4.27,2.81,-2.80,-2.85,-2.84,1.46,1.46,1.45
142.02,4.22,2.75,4.22,2.76,-2.77,-2.83,-2.82,1.45,1.45,1.47
143.44,4.17,2.71,4.17,2.71,-2.73,-2.81,-2.79,1.44,1.44,1.47
144.87,4.13,2.67,4.13,2.67,-2.69,-2.78,-2.76,1.43,1.43,1.46
146.32,4.08,2.65,4.08,2.65,-2.66,-2.76,-2.73,1.42,1.42,1.43
147.78,4.03,2.63,4.03,2.63,-2.63,-2.73,-2.70,1.40,1.40,1.40
149.26,3.98,2.61,3.98,2.61,-2.61,-2.70,-2.67,1.37,1.37,1.37
150.75,3.94,2.60,3.94,2.60,-2.60,-2.68,-2.64,1.34,1.34,1.34
152.26,3.89,2.59,3.89,2.59,-2.58,-2.65,-2.61,1.30,1.30,1.30
153.78,3.84,2.58,3.84,2.58,-2.57,-2.62,-2.58,1.27,1.27,1.27
155.32,3.80,2.56,3.80,2.56,-2.56,-2.58,-2.55,1.23,1.23,1.23
156.88,3.76,2.55,3.76,2.55,-2.55,-2.55,-2.53,1.21,1.21,1.21
158.44,3.72,2.54,3.72,2.54,-2.54,-2.52,-2.50,1.18,1.18,1.18
160.03,3.68,2.52,3.68,2.52,-2.52,-2.49,-2.48,1.16,1.16,1.16
161.63,3.65,2.50,3.65,2.50,-2.50,-2.47,-2.45,1.15,1.15,1.14
163.24,3.61,2.48,3.61,2.48,-2.47,-2.44,-2.43,1.14,1.14,1.13
164.88,3.58,2.46,3.58,2.46,-2.45,-2.42,-2.41,1.12,1.12,1.12
166.53,3.54,2.43,3.54,2.43,-2.43,-2.39,-2.39,1.11,1.11,1.11
168.19,3.50,2.41,3.50,2.41,-2.41,-2.38,-2.37,1.09,1.09,1.09
169.87,3.46,2.39,3.46,2.39,-2.40,-2.36,-2.36,1.06,1.06,1.07
171.57,3.42,2.38,3.42,2.38,-2.40,-2.35,-2.35,1.02,1.02,1.04
173.29,3.38,2.39,3.38,2.39,-2.41,-2.35,-2.33,0.97,0.97,0.99
175.02,3.34,2.41,3.34,2.41,-2.42,-2.35,-2.32,0.92,0.92,0.93
176.77,3.29,2.44,3.29,2.44,-2.44,-2.35,-2.31,0.85,0.85,0.86
178.54,3.25,2.47,3.25,2.47,-2.46,-2.36,-2.31,0.79,0.79,0.78
180.32,3.21,2.50,3.21,2.50,-2.48,-2.37,-2.30,0.72,0.72,0.71
182.13,3.16,2.52,3.16,2.52,-2.51,-2.38,-2.30,0.66,0.66,0.64
183.95,3.12,2.53,3.12,2.53,-2.52,-2.39,-2.30,0.60,0.60,0.59
185.79,3.08,2.54,3.08,2.54,-2.54,-2.41,-2.30,0.54,0.54,0.54
187.65,3.04,2.54,3.04,2.54,-2.54,-2.43,-2.30,0.49,0.49,0.49
189.52,3.00,2.55,3.00,2.55,-2.55,-2.45,-2.30,0.45,0.45,0.45
191.42,2.95,2.55,2.95,2.55,-2.55,-2.47,-2.31,0.41,0.41,0.41
193.33,2.91,2.54,2.91,2.54,-2.54,-2.50,-2.31,0.36,0.36,0.37
195.27,2.86,2.54,2.86,2.54,-2.54,-2.52,-2.32,0.32,0.32,0.32
197.22,2.82,2.53,2.82,2.54,-2.54,-2.54,-2.33,0.28,0.28,0.28
199.19,2.77,2.53,2.77,2.53,-2.54,-2.56,-2.34,0.23,0.24,0.24
201.18,2.73,2.53,2.73,2.53,-2.53,-2.58,-2.35,0.20,0.20,0.20
203.19,2.69,2.53,2.69,2.53,-2.53,-2.60,-2.36,0.16,0.16,0.16
205.23,2.65,2.53,2.65,2.53,-2.53,-2.61,-2.38,0.13,0.13,0.12
207.28,2.62,2.53,2.62,2.53,-2.52,-2.63,-2.39,0.09,0.09,0.09
209.35,2.58,2.52,2.58,2.52,-2.52,-2.64,-2.41,0.06,0.06,0.06
211.44,2.54,2.52,2.54,2.52,-2.51,-2.66,-2.42,0.03,0.03,0.02
213.56,2.50,2.51,2.50,2.51,-2.51,-2.67,-2.44,-0.01,-0.01,-0.01
215.69,2.46,2.51,2.46,2.51,-2.51,-2.68,-2.46,-0.04,-0.04,-0.04
217.85,2.43,2.50,2.43,2.50,-2.51,-2.69,-2.47,-0.08,-0.08,-0.07
220.03,2.40,2.51,2.40,2.51,-2.52,-2.70,-2.49,-0.12,-0.12,-0.11
222.23,2.38,2.52,2.38,2.52,-2.53,-2.70,-2.50,-0.15,-0.15,-0.14
224.45,2.37,2.54,2.37,2.54,-2.55,-2.71,-2.52,-0.19,-0.18,-0.18
226.70,2.36,2.57,2.36,2.57,-2.57,-2.71,-2.54,-0.22,-0.22,-0.21
228.96,2.36,2.60,2.36,2.60,-2.60,-2.72,-2.55,-0.24,-0.24,-0.24
231.25,2.36,2.63,2.36,2.63,-2.63,-2.72,-2.56,-0.27,-0.27,-0.28
233.57,2.36,2.66,2.36,2.66,-2.66,-2.72,-2.58,-0.30,-0.30,-0.31
235.90,2.36,2.69,2.35,2.69,-2.68,-2.72,-2.59,-0.33,-0.33,-0.33
238.26,2.34,2.71,2.35,2.71,-2.70,-2.72,-2.60,-0.36,-0.36,-0.36
240.64,2.33,2.72,2.33,2.72,-2.72,-2.72,-2.61,-0.39,-0.39,-0.39
243.05,2.31,2.73,2.31,2.73,-2.73,-2.72,-2.61,-0.42,-0.42,-0.42
245.48,2.28,2.74,2.28,2.74,-2.74,-2.72,-2.62,-0.45,-0.45,-0.46
247.93,2.25,2.74,2.25,2.74,-2.74,-2.72,-2.62,-0.49,-0.49,-0.49
250.41,2.22,2.74,2.22,2.74,-2.74,-2.72,-2.62,-0.52,-0.52,-0.52
252.92,2.19,2.74,2.19,2.74,-2.74,-2.71,-2.62,-0.55,-0.55,-0.55
255.45,2.16,2.73,2.16,2.73,-2.73,-2.71,-2.62,-0.58,-0.58,-0.57
258.00,2.12,2.73,2.12,2.73,-2.73,-2.71,-2.62,-0.61,-0.61,-0.60
260.58,2.09,2.72,2.09,2.72,-2.73,-2.70,-2.61,-0.64,-0.64,-0.63
263.19,2.06,2.72,2.06,2.72,-2.72,-2.70,-2.61,-0.67,-0.67,-0.67
265.82,2.02,2.72,2.02,2.72,-2.72,-2.70,-2.60,-0.70,-0.70,-0.70
268.48,1.99,2.72,1.99,2.72,-2.72,-2.69,-2.59,-0.73,-0.73,-0.73
271.16,1.95,2.72,1.95,2.72,-2.72,-2.69,-2.58,-0.76,-0.76,-0.76
273.87,1.92,2.72,1.92,2.72,-2.72,-2.69,-2.57,-0.79,-0.79,-0.80
276.61,1.89,2.72,1.89,2.71,-2.72,-2.68,-2.56,-0.83,-0.83,-0.83
279.38,1.86,2.71,1.86,2.71,-2.71,-2.68,-2.54,-0.86,-0.86,-0.85
282.17,1.83,2.71,1.83,2.71,-2.71,-2.68,-2.53,-0.88,-0.88,-0.88
284.99,1.80,2.71,1.80,2.71,-2.72,-2.67,-2.52,-0.91,-0.91,-0.91
287.84,1.78,2.72,1.78,2.72,-2.72,-2.67,-2.50,-0.94,-0.94,-0.94
290.72,1.75,2.72,1.75,2.72,-2.72,-2.67,-2.49,-0.97,-0.97,-0.97
293.63,1.72,2.72,1.72,2.72,-2.72,-2.67,-2.48,-1.00,-1.00,-1.00
296.57,1.70,2.72,1.70,2.72,-2.72,-2.66,-2.46,-1.02,-1.02,-1.02
299.53,1.67,2.72,1.67,2.72,-2.72,-2.66,-2.45,-1.05,-1.05,-1.05
302.53,1.64,2.72,1.64,2.72,-2.72,-2.66,-2.44,-1.08,-1.08,-1.08
305.55,1.62,2.72,1.62,2.72,-2.72,-2.65,-2.43,-1.10,-1.10,-1.10
308.61,1.59,2.72,1.59,2.72,-2.72,-2.65,-2.42,-1.12,-1.12,-1.12
311.69,1.57,2.71,1.57,2.71,-2.71,-2.65,-2.41,-1.14,-1.14,-1.15
314.81,1.54,2.71,1.54,2.71,-2.71,-2.65,-2.40,-1.17,-1.17,-1.17
317.96,1.52,2.70,1.52,2.70,-2.71,-2.65,-2.40,-1.19,-1.19,-1.19
321.14,1.49,2.70,1.49,2.70,-2.70,-2.64,-2.39,-1.21,-1.21,-1.21
324.35,1.47,2.70,1.47,2.70,-2.70,-2.64,-2.39,-1.23,-1.23,-1.23
327.59,1.45,2.69,1.45,2.69,-2.69,-2.64,-2.39,-1.24,-1.24,-1.24
330.87,1.42,2.69,1.42,2.69,-2.69,-2.64,-2.39,-1.26,-1.26,-1.26
334.18,1.40,2.68,1.40,2.68,-2.68,-2.64,-2.39,-1.28,-1.28,-1.28
337.52,1.38,2.68,1.38,2.68,-2.68,-2.64,-2.40,-1.30,-1.30,-1.30
340.90,1.35,2.67,1.35,2.67,-2.67,-2.64,-2.40,-1.32,-1.32,-1.32
344.30,1.32,2.67,1.33,2.67,-2.67,-2.63,-2.41,-1.34,-1.34,-1.34
347.75,1.30,2.66,1.30,2.66,-2.66,-2.63,-2.42,-1.36,-1.36,-1.36
351.23,1.28,2.66,1.28,2.66,-2.66,-2.63,-2.43,-1.38,-1.38,-1.38
354.74,1.25,2.65,1.25,2.65,-2.65,-2.63,-2.44,-1.40,-1.40,-1.40
358.28,1.23,2.65,1.23,2.65,-2.65,-2.63,-2.46,-1.42,-1.42,-1.42
361.87,1.21,2.64,1.21,2.64,-2.64,-2.63,-2.48,-1.43,-1.43,-1.43
365.49,1.19,2.64,1.19,2.64,-2.64,-2.63,-2.50,-1.45,-1.45,-1.45
369.14,1.17,2.63,1.17,2.63,-2.63,-2.63,-2.52,-1.47,-1.47,-1.47
372.83,1.15,2.63,1.15,2.63,-2.63,-2.62,-2.54,-1.48,-1.48,-1.48
376.56,1.13,2.63,1.13,2.63,-2.63,-2.62,-2.56,-1.50,-1.50,-1.50
380.33,1.11,2.62,1.11,2.62,-2.62,-2.62,-2.59,-1.52,-1.52,-1.52
384.13,1.08,2.62,1.08,2.62,-2.62,-2.62,-2.62,-1.54,-1.54,-1.53
387.97,1.06,2.62,1.06,2.62,-2.62,-2.62,-2.64,-1.55,-1.55,-1.55
391.85,1.04,2.61,1.04,2.61,-2.61,-2.62,-2.67,-1.57,-1.57,-1.57
395.77,1.02,2.61,1.02,2.61,-2.61,-2.61,-2.71,-1.59,-1.59,-1.59
399.73,1.00,2.61,1.00,2.61,-2.61,-2.61,-2.74,-1.61,-1.61,-1.61
403.72,0.98,2.61,0.98,2.60,-2.60,-2.61,-2.77,-1.62,-1.62,-1.62
407.76,0.96,2.60,0.96,2.60,-2.60,-2.60,-2.81,-1.64,-1.64,-1.64
411.84,0.95,2.60,0.95,2.60,-2.60,-2.60,-2.84,-1.65,-1.65,-1.65
415.96,0.93,2.59,0.93,2.59,-2.59,-2.60,-2.87,-1.67,-1.67,-1.67
420.12,0.91,2.59,0.91,2.59,-2.59,-2.59,-2.91,-1.68,-1.68,-1.68
424.32,0.89,2.58,0.89,2.58,-2.58,-2.59,-2.94,-1.69,-1.69,-1.69
428.56,0.87,2.58,0.87,2.58,-2.58,-2.58,-2.98,-1.70,-1.70,-1.70
432.85,0.86,2.57,0.86,2.57,-2.57,-2.58,-3.01,-1.71,-1.71,-1.71
437.18,0.84,2.56,0.84,2.56,-2.56,-2.57,-3.04,-1.72,-1.72,-1.72
441.55,0.82,2.55,0.82,2.55,-2.55,-2.57,-3.07,-1.73,-1.73,-1.73
445.96,0.80,2.54,0.80,2.54,-2.54,-2.56,-3.10,-1.74,-1.74,-1.74
450.42,0.79,2.53,0.79,2.53,-2.53,-2.55,-3.13,-1.75,-1.75,-1.75
454.93,0.77,2.52,0.77,2.52,-2.52,-2.55,-3.15,-1.75,-1.75,-1.75
459.48,0.75,2.51,0.75,2.51,-2.51,-2.54,-3.17,-1.76,-1.76,-1.76
464.07,0.73,2.50,0.73,2.50,-2.50,-2.53,-3.19,-1.77,-1.77,-1.77
468.71,0.71,2.49,0.71,2.49,-2.49,-2.52,-3.20,-1.78,-1.78,-1.78
473.40,0.69,2.48,0.69,2.48,-2.48,-2.51,-3.22,-1.79,-1.79,-1.79
478.13,0.67,2.47,0.67,2.47,-2.47,-2.50,-3.22,-1.79,-1.79,-1.79
482.91,0.66,2.46,0.66,2.46,-2.46,-2.49,-3.22,-1.80,-1.80,-1.80
487.74,0.64,2.44,0.64,2.44,-2.44,-2.48,-3.22,-1.81,-1.81,-1.81
492.62,0.62,2.43,0.62,2.43,-2.43,-2.47,-3.21,-1.81,-1.81,-1.81
497.55,0.60,2.42,0.60,2.42,-2.42,-2.46,-3.20,-1.82,-1.82,-1.82
502.52,0.59,2.41,0.59,2.41,-2.41,-2.44,-3.19,-1.82,-1.82,-1.82
507.55,0.57,2.39,0.57,2.39,-2.40,-2.43,-3.17,-1.83,-1.83,-1.83
512.62,0.55,2.38,0.55,2.38,-2.38,-2.42,-3.14,-1.83,-1.83,-1.83
