frequency,raw,error,smoothed,error_smoothed,equalization,parametric_eq,fixed_band_eq,equalized_raw,equalized_smoothed,target
20.00,7.06,-2.60,7.06,-2.60,2.60,-0.00,0.88,9.65,9.65,9.66
20.20,7.09,-2.57,7.09,-2.57,2.57,-0.00,0.91,9.66,9.66,9.66
20.40,7.12,-2.54,7.12,-2.54,2.54,-0.00,0.93,9.66,9.66,9.66
20.61,7.15,-2.52,7.15,-2.52,2.52,-0.00,0.96,9.67,9.67,9.67
20.81,7.18,-2.49,7.18,-2.49,2.49,-0.00,0.99,9.67,9.67,9.67
21.02,7.21,-2.47,7.21,-2.47,2.47,-0.00,1.02,9.68,9.68,9.68
21.23,7.24,-2.45,7.24,-2.45,2.45,-0.00,1.05,9.69,9.69,9.69
21.44,7.27,-2.43,7.27,-2.43,2.43,-0.00,1.08,9.69,9.69,9.69
21.66,7.29,-2.41,7.29,-2.41,2.41,-0.00,1.11,9.70,9.70,9.70
21.87,7.32,-2.39,7.32,-2.39,2.39,-0.00,1.15,9.71,9.71,9.71
22.09,7.35,-2.37,7.35,-2.37,2.37,-0.00,1.18,9.72,9.72,9.72
22.31,7.37,-2.35,7.37,-2.35,2.35,-0.00,1.22,9.73,9.73,9.72
22.54,7.40,-2.34,7.40,-2.34,2.34,-0.00,1.25,9.73,9.73,9.73
22.76,7.42,-2.32,7.42,-2.32,2.32,-0.00,1.29,9.74,9.74,9.74
22.99,7.44,-2.30,7.44,-2.30,2.30,-0.00,1.33,9.75,9.75,9.75
23.22,7.47,-2.29,7.47,-2.29,2.28,-0.00,1.37,9.75,9.75,9.75
23.45,7.49,-2.27,7.49,-2.27,2.26,-0.00,1.41,9.75,9.75,9.76
23.69,7.51,-2.24,7.51,-2.24,2.24,-0.00,1.45,9.75,9.75,9.76
23.92,7.54,-2.22,7.54,-2.22,2.22,-0.00,1.49,9.76,9.76,9.76
24.16,7.56,-2.20,7.56,-2.20,2.20,-0.00,1.53,9.76,9.76,9.75
24.40,7.58,-2.18,7.58,-2.18,2.18,-0.00,1.57,9.76,9.76,9.75
24.65,7.60,-2.16,7.60,-2.16,2.16,-0.00,1.62,9.76,9.76,9.75
24.89,7.62,-2.14,7.62,-2.14,2.14,-0.00,1.66,9.76,9.76,9.76
25.14,7.64,-2.12,7.64,-2.12,2.13,-0.00,1.70,9.77,9.77,9.76
25.39,7.66,-2.11,7.66,-2.11,2.11,-0.00,1.75,9.77,9.77,9.77
25.65,7.68,-2.10,7.68,-2.10,2.10,-0.00,1.79,9.78,9.78,9.78
25.91,7.70,-2.09,7.70,-2.09,2.08,-0.00,1.83,9.78,9.78,9.79
26.16,7.72,-2.07,7.72,-2.07,2.07,-0.00,1.88,9.79,9.79,9.79
26.43,7.74,-2.05,7.74,-2.05,2.05,-0.00,1.92,9.79,9.79,9.79
26.69,7.76,-2.03,7.76,-2.03,2.03,-0.00,1.96,9.79,9.79,9.79
26.96,7.78,-2.01,7.78,-2.01,2.01,-0.00,2.00,9.79,9.79,9.79
27.23,7.80,-1.99,7.80,-1.99,1.99,-0.00,2.04,9.79,9.79,9.79
27.50,7.82,-1.96,7.82,-1.96,1.96,-0.00,2.08,9.78,9.78,9.78
27.77,7.84,-1.94,7.84,-1.94,1.94,-0.00,2.12,9.78,9.77,9.78
28.05,7.85,-1.91,7.85,-1.91,1.91,-0.00,2.16,9.76,9.76,9.77
28.33,7.87,-1.89,7.87,-1.89,1.88,-0.00,2.19,9.75,9.75,9.76
28.62,7.89,-1.86,7.89,-1.86,1.85,-0.00,2.22,9.74,9.74,9.74
28.90,7.90,-1.83,7.90,-1.83,1.83,-0.00,2.25,9.73,9.73,9.73
29.19,7.92,-1.80,7.92,-1.80,1.80,-0.00,2.28,9.72,9.72,9.72
29.48,7.94,-1.78,7.94,-1.78,1.79,-0.00,2.30,9.72,9.72,9.71
29.78,7.95,-1.76,7.95,-1.76,1.77,-0.00,2.32,9.72,9.72,9.71
30.08,7.96,-1.75,7.96,-1.75,1.76,-0.00,2.34,9.72,9.72,9.71
30.38,7.98,-1.75,7.98,-1.75,1.75,-0.00,2.35,9.73,9.73,9.72
30.68,7.98,-1.75,7.99,-1.75,1.75,-0.00,2.36,9.73,9.73,9.73
30.99,7.99,-1.75,7.99,-1.75,1.74,-0.00,2.37,9.74,9.74,9.74
31.30,8.00,-1.75,8.00,-1.75,1.74,-0.00,2.37,9.74,9.74,9.75
31.61,8.01,-1.74,8.01,-1.74,1.73,-0.00,2.37,9.74,9.74,9.75
31.93,8.02,-1.73,8.02,-1.72,1.72,-0.00,2.37,9.73,9.73,9.74
32.24,8.02,-1.71,8.02,-1.71,1.70,-0.00,2.36,9.73,9.73,9.73
32.57,8.03,-1.68,8.03,-1.69,1.69,-0.00,2.35,9.72,9.72,9.72
32.89,8.04,-1.66,8.04,-1.67,1.67,-0.00,2.33,9.72,9.72,9.71
33.22,8.05,-1.65,8.05,-1.65,1.66,-0.00,2.32,9.71,9.71,9.70
33.55,8.06,-1.64,8.06,-1.64,1.64,-0.00,2.29,9.70,9.70,9.70
33.89,8.07,-1.63,8.07,-1.63,1.63,-0.00,2.27,9.69,9.69,9.69
34.23,8.08,-1.61,8.08,-1.61,1.61,-0.00,2.24,9.69,9.69,9.69
34.57,8.08,-1.60,8.08,-1.60,1.60,-0.00,2.22,9.68,9.68,9.68
34.92,8.09,-1.59,8.09,-1.59,1.59,-0.00,2.19,9.67,9.67,9.67
35.27,8.09,-1.57,8.09,-1.57,1.57,-0.00,2.15,9.67,9.67,9.67
35.62,8.10,-1.56,8.10,-1.56,1.56,-0.00,2.12,9.66,9.66,9.66
35.97,8.11,-1.54,8.11,-1.54,1.54,-0.00,2.08,9.65,9.65,9.65
36.33,8.12,-1.53,8.12,-1.53,1.53,-0.00,2.05,9.64,9.64,9.64
36.70,8.13,-1.51,8.13,-1.51,1.51,-0.00,2.01,9.64,9.64,9.64
37.06,8.13,-1.50,8.13,-1.50,1.49,-0.00,1.97,9.63,9.63,9.63
37.43,8.14,-1.48,8.14,-1.48,1.48,-0.00,1.93,9.62,9.62,9.62
37.81,8.15,-1.46,8.15,-1.46,1.47,-0.00,1.89,9.62,9.62,9.61
38.19,8.16,-1.45,8.16,-1.45,1.45,-0.00,1.85,9.61,9.61,9.60
38.57,8.16,-1.43,8.16,-1.43,1.44,-0.00,1.81,9.60,9.60,9.60
38.95,8.16,-1.42,8.16,-1.42,1.42,-0.00,1.77,9.59,9.59,9.59
39.34,8.16,-1.41,8.16,-1.41,1.41,-0.00,1.73,9.57,9.57,9.58
39.74,8.17,-1.40,8.17,-1.40,1.40,-0.00,1.69,9.56,9.56,9.56
40.14,8.17,-1.39,8.17,-1.39,1.39,-0.00,1.65,9.55,9.55,9.55
40.54,8.17,-1.37,8.17,-1.37,1.37,-0.00,1.62,9.54,9.54,9.54
40.94,8.17,-1.36,8.17,-1.36,1.36,-0.00,1.58,9.53,9.53,9.53
41.35,8.17,-1.35,8.17,-1.35,1.35,-0.00,1.54,9.52,9.52,9.52
41.76,8.17,-1.34,8.17,-1.34,1.34,-0.00,1.51,9.51,9.51,9.50
42.18,8.17,-1.32,8.17,-1.32,1.33,-0.00,1.47,9.49,9.49,9.49
42.60,8.17,-1.31,8.17,-1.31,1.32,-0.00,1.44,9.48,9.48,9.48
43.03,8.17,-1.30,8.17,-1.30,1.31,-0.00,1.41,9.47,9.47,9.47
43.46,8.16,-1.30,8.16,-1.30,1.30,-0.00,1.37,9.46,9.46,9.46
43.90,8.16,-1.29,8.16,-1.29,1.29,-0.00,1.34,9.45,9.45,9.45
44.33,8.15,-1.28,8.15,-1.28,1.28,-0.00,1.31,9.44,9.44,9.44
44.78,8.15,-1.27,8.15,-1.27,1.27,-0.00,1.29,9.42,9.42,9.42
45.23,8.15,-1.27,8.15,-1.27,1.27,-0.00,1.26,9.41,9.41,9.41
45.68,8.14,-1.26,8.14,-1.26,1.26,-0.00,1.23,9.40,9.40,9.40
46.13,8.14,-1.25,8.14,-1.25,1.25,-0.00,1.21,9.39,9.39,9.39
46.60,8.13,-1.24,8.13,-1.24,1.24,-0.00,1.18,9.38,9.38,9.38
47.06,8.13,-1.24,8.13,-1.24,1.24,-0.00,1.16,9.37,9.37,9.37
47.53,8.13,-1.23,8.13,-1.23,1.23,-0.00,1.14,9.35,9.35,9.35
48.01,8.12,-1.22,8.12,-1.22,1.22,-0.00,1.11,9.34,9.34,9.34
48.49,8.12,-1.21,8.12,-1.21,1.21,-0.00,1.09,9.32,9.32,9.33
48.97,8.11,-1.20,8.11,-1.20,1.20,-0.00,1.07,9.31,9.31,9.31
49.46,8.11,-1.19,8.11,-1.19,1.18,-0.00,1.06,9.29,9.29,9.29
49.96,8.10,-1.17,8.10,-1.17,1.17,-0.00,1.04,9.28,9.28,9.28
50.46,8.10,-1.16,8.10,-1.16,1.16,-0.00,1.02,9.26,9.26,9.26
50.96,8.09,-1.15,8.09,-1.15,1.15,-0.00,1.00,9.24,9.24,9.24
51.47,8.09,-1.13,8.09,-1.13,1.13,-0.00,0.99,9.22,9.22,9.22
51.99,8.08,-1.12,8.08,-1.12,1.12,-0.00,0.97,9.20,9.20,9.21
52.51,8.08,-1.11,8.08,-1.11,1.11,-0.00,0.96,9.19,9.19,9.19
53.03,8.07,-1.09,8.07,-1.09,1.09,-0.00,0.95,9.17,9.17,9.17
53.56,8.07,-1.08,8.07,-1.08,1.08,-0.00,0.93,9.15,9.15,9.15
54.10,8.06,-1.07,8.06,-1.07,1.07,-0.00,0.92,9.13,9.13,9.13
54.64,8.06,-1.05,8.06,-1.05,1.05,-0.00,0.91,9.11,9.11,9.11
55.18,8.05,-1.04,8.05,-1.04,1.04,-0.00,0.90,9.10,9.10,9.10
55.74,8.05,-1.03,8.05,-1.03,1.03,-0.00,0.89,9.08,9.08,9.08
56.29,8.04,-1.02,8.04,-1.02,1.03,-0.00,0.88,9.06,9.06,9.06
56.86,8.02,-1.02,8.02,-1.02,1.02,-0.00,0.87,9.04,9.04,9.04
57.42,8.00,-1.01,8.00,-1.01,1.01,-0.00,0.86,9.01,9.01,9.01
58.00,7.98,-1.01,7.98,-1.00,1.00,-0.00,0.85,8.98,8.98,8.98
58.58,7.96,-1.00,7.96,-1.00,0.99,-0.00,0.84,8.95,8.96,8.96
59.16,7.95,-0.99,7.95,-0.99,0.99,-0.00,0.83,8.93,8.93,8.94
59.76,7.93,-0.98,7.93,-0.98,0.98,-0.00,0.82,8.91,8.91,8.91
60.35,7.92,-0.97,7.92,-0.97,0.97,-0.00,0.81,8.89,8.89,8.89
60.96,7.91,-0.96,7.91,-0.96,0.96,-0.00,0.80,8.87,8.87,8.86
61.57,7.89,-0.95,7.89,-0.95,0.95,-0.00,0.79,8.85,8.85,8.84
62.18,7.88,-0.95,7.87,-0.94,0.95,-0.00,0.79,8.82,8.82,8.82
62.80,7.86,-0.94,7.86,-0.94,0.94,-0.00,0.78,8.80,8.80,8.79
63.43,7.84,-0.93,7.84,-0.94,0.93,-0.00,0.77,8.77,8.77,8.77
64.07,7.82,-0.93,7.82,-0.93,0.93,-0.00,0.76,8.75,8.75,8.75
64.71,7.80,-0.93,7.80,-0.92,0.92,-0.00,0.75,8.72,8.72,8.72
65.35,7.78,-0.92,7.78,-0.92,0.91,-0.00,0.75,8.69,8.69,8.70
66.01,7.76,-0.91,7.76,-0.91,0.91,-0.00,0.74,8.67,8.67,8.67
66.67,7.75,-0.90,7.74,-0.90,0.90,-0.00,0.73,8.64,8.64,8.64
67.33,7.73,-0.89,7.73,-0.89,0.89,-0.00,0.72,8.62,8.61,8.61
68.01,7.71,-0.87,7.71,-0.88,0.88,-0.00,0.71,8.59,8.59,8.58
68.69,7.69,-0.86,7.69,-0.87,0.87,-0.00,0.71,8.55,8.56,8.55
69.37,7.67,-0.86,7.67,-0.86,0.85,-0.00,0.70,8.52,8.52,8.53
70.07,7.65,-0.85,7.65,-0.84,0.84,-0.00,0.69,8.49,8.49,8.50
70.77,7.63,-0.83,7.63,-0.83,0.83,-0.00,0.69,8.46,8.46,8.46
71.48,7.61,-0.82,7.61,-0.82,0.82,-0.00,0.68,8.43,8.43,8.43
72.19,7.59,-0.81,7.59,-0.81,0.81,-0.00,0.67,8.40,8.40,8.40
72.91,7.57,-0.80,7.57,-0.80,0.80,-0.00,0.67,8.37,8.37,8.37
73.64,7.55,-0.79,7.55,-0.79,0.79,-0.00,0.66,8.34,8.34,8.33
74.38,7.53,-0.78,7.53,-0.78,0.78,-0.00,0.65,8.31,8.31,8.30
75.12,7.51,-0.77,7.51,-0.77,0.77,-0.00,0.65,8.28,8.28,8.28
75.87,7.48,-0.76,7.48,-0.76,0.76,-0.00,0.64,8.24,8.24,8.25
76.63,7.46,-0.75,7.46,-0.75,0.75,-0.00,0.64,8.21,8.21,8.22
77.40,7.44,-0.74,7.44,-0.74,0.74,-0.00,0.63,8.18,8.18,8.18
78.17,7.41,-0.73,7.41,-0.73,0.73,-0.00,0.63,8.14,8.15,8.14
78.95,7.39,-0.72,7.39,-0.72,0.72,-0.00,0.63,8.11,8.11,8.11
79.74,7.36,-0.71,7.36,-0.71,0.71,-0.00,0.62,8.07,8.07,8.08
80.54,7.34,-0.70,7.34,-0.70,0.70,-0.00,0.62,8.04,8.04,8.04
81.35,7.31,-0.69,7.31,-0.69,0.69,-0.00,0.62,8.00,8.00,8.00
82.16,7.29,-0.68,7.29,-0.68,0.68,-0.00,0.62,7.97,7.97,7.97
82.98,7.26,-0.68,7.26,-0.68,0.68,-0.00,0.62,7.94,7.94,7.94
83.81,7.24,-0.67,7.24,-0.67,0.67,-0.00,0.62,7.91,7.91,7.91
84.65,7.21,-0.66,7.21,-0.66,0.66,-0.00,0.61,7.87,7.87,7.87
85.50,7.18,-0.66,7.18,-0.66,0.66,-0.00,0.61,7.84,7.84,7.84
86.35,7.15,-0.66,7.15,-0.66,0.66,-0.00,0.62,7.81,7.81,7.81
87.22,7.12,-0.66,7.13,-0.65,0.65,-0.00,0.62,7.78,7.78,7.78
88.09,7.10,-0.65,7.10,-0.65,0.65,-0.00,0.62,7.75,7.75,7.74
88.97,7.07,-0.64,7.07,-0.65,0.64,-0.00,0.62,7.71,7.71,7.71
89.86,7.04,-0.64,7.04,-0.64,0.64,-0.00,0.62,7.67,7.67,7.68
90.76,7.01,-0.64,7.01,-0.64,0.63,-0.00,0.62,7.63,7.63,7.65
91.66,6.98,-0.62,6.98,-0.62,0.62,-0.00,0.63,7.59,7.59,7.60
92.58,6.94,-0.60,6.94,-0.60,0.60,-0.00,0.63,7.55,7.55,7.54
93.51,6.91,-0.58,6.91,-0.59,0.59,-0.00,0.64,7.50,7.50,7.50
94.44,6.88,-0.58,6.88,-0.58,0.58,-0.00,0.64,7.46,7.46,7.46
95.39,6.85,-0.57,6.85,-0.57,0.57,-0.00,0.65,7.42,7.42,7.42
96.34,6.81,-0.56,6.81,-0.56,0.56,-0.00,0.65,7.37,7.37,7.37
97.30,6.78,-0.54,6.78,-0.55,0.55,-0.00,0.66,7.33,7.33,7.32
98.28,6.74,-0.54,6.74,-0.54,0.55,-0.00,0.66,7.29,7.29,7.28
99.26,6.70,-0.54,6.71,-0.54,0.54,-0.00,0.67,7.24,7.24,7.25
100.25,6.67,-0.55,6.67,-0.54,0.53,-0.00,0.67,7.20,7.20,7.21
101.25,6.63,-0.53,6.63,-0.53,0.53,-0.00,0.68,7.16,7.16,7.17
102.27,6.60,-0.52,6.60,-0.52,0.52,-0.00,0.69,7.11,7.11,7.11
103.29,6.56,-0.50,6.56,-0.50,0.51,-0.00,0.69,7.07,7.07,7.06
104.32,6.53,-0.49,6.53,-0.49,0.49,-0.01,0.70,7.02,7.02,7.02
105.37,6.49,-0.49,6.49,-0.48,0.48,-0.01,0.71,6.98,6.98,6.98
106.42,6.46,-0.48,6.46,-0.47,0.47,-0.01,0.72,6.93,6.93,6.94
107.48,6.43,-0.46,6.42,-0.46,0.46,-0.01,0.72,6.89,6.89,6.89
108.56,6.39,-0.44,6.39,-0.44,0.45,-0.01,0.73,6.84,6.84,6.83
109.64,6.35,-0.43,6.35,-0.44,0.44,-0.01,0.73,6.79,6.79,6.78
110.74,6.31,-0.43,6.31,-0.43,0.43,-0.01,0.74,6.74,6.74,6.74
111.85,6.27,-0.44,6.27,-0.43,0.42,-0.01,0.75,6.69,6.69,6.71
112.97,6.23,-0.43,6.23,-0.42,0.41,-0.01,0.75,6.64,6.64,6.66
114.10,6.19,-0.41,6.19,-0.41,0.40,-0.01,0.75,6.59,6.59,6.60
115.24,6.14,-0.39,6.14,-0.39,0.40,-0.01,0.76,6.55,6.55,6.53
116.39,6.10,-0.38,6.10,-0.38,0.40,-0.01,0.76,6.51,6.51,6.48
117.55,6.06,-0.38,6.06,-0.38,0.41,-0.01,0.76,6.46,6.46,6.43
118.73,6.01,-0.40,6.01,-0.40,0.41,-0.01,0.76,6.42,6.42,6.41
119.92,5.96,-0.43,5.96,-0.42,0.41,-0.01,0.76,6.37,6.37,6.39
121.12,5.91,-0.44,5.91,-0.44,0.41,-0.01,0.76,6.32,6.32,6.35
122.33,5.86,-0.44,5.86,-0.44,0.41,-0.01,0.76,6.27,6.27,6.30
123.55,5.82,-0.42,5.82,-0.42,0.40,-0.01,0.76,6.21,6.21,6.23
124.79,5.77,-0.39,5.77,-0.39,0.38,-0.01,0.75,6.16,6.16,6.16
126.03,5.73,-0.36,5.73,-0.36,0.37,-0.01,0.75,6.09,6.09,6.08
127.29,5.68,-0.33,5.68,-0.33,0.35,-0.01,0.74,6.03,6.03,6.01
128.57,5.64,-0.31,5.64,-0.31,0.33,-0.01,0.73,5.97,5.97,5.95
129.85,5.59,-0.31,5.59,-0.31,0.32,-0.01,0.73,5.91,5.91,5.90
131.15,5.54,-0.30,5.54,-0.31,0.31,-0.01,0.72,5.85,5.85,5.84
132.46,5.49,-0.31,5.49,-0.31,0.31,-0.01,0.71,5.81,5.80,5.80
133.79,5.44,-0.32,5.44,-0.32,0.32,-0.01,0.70,5.76,5.76,5.76
135.12,5.39,-0.33,5.39,-0.33,0.33,-0.01,0.68,5.72,5.72,5.72
136.48,5.34,-0.34,5.34,-0.34,0.34,-0.01,0.67,5.67,5.67,5.68
137.84,5.29,-0.35,5.29,-0.35,0.34,-0.01,0.66,5.63,5.63,5.64
139.22,5.24,-0.35,5.24,-0.35,0.34,-0.01,0.64,5.58,5.58,5.59
140.61,5.19,-0.34,5.19,-0.34,0.34,-0.01,0.63,5.53,5.53,5.54
142.02,5.15,-0.33,5.15,-0.33,0.33,-0.01,0.61,5.48,5.48,5.48
143.44,5.11,-0.32,5.11,-0.32,0.31,-0.01,0.60,5.42,5.42,5.43
144.87,5.07,-0.30,5.07,-0.30,0.30,-0.01,0.58,5.36,5.36,5.37
146.32,5.03,-0.27,5.03,-0.27,0.27,-0.01,0.56,5.31,5.31,5.31
147.78,5.00,-0.25,5.00,-0.25,0.25,-0.01,0.54,5.25,5.25,5.25
149.26,4.97,-0.23,4.97,-0.23,0.24,-0.01,0.53,5.20,5.20,5.19
150.75,4.94,-0.21,4.94,-0.21,0.22,-0.01,0.51,5.16,5.16,5.15
152.26,4.92,-0.19,4.92,-0.19,0.21,-0.01,0.49,5.12,5.12,5.11
153.78,4.89,-0.18,4.89,-0.18,0.19,-0.01,0.47,5.08,5.08,5.07
155.32,4.87,-0.17,4.87,-0.17,0.17,-0.01,0.46,5.03,5.03,5.04
156.88,4.84,-0.16,4.84,-0.16,0.14,-0.01,0.44,4.98,4.98,5.00
158.44,4.81,-0.13,4.81,-0.13,0.10,-0.01,0.42,4.91,4.91,4.95
160.03,4.78,-0.10,4.78,-0.09,0.06,-0.01,0.40,4.84,4.84,4.88
161.63,4.75,-0.03,4.75,-0.03,0.01,-0.02,0.38,4.76,4.76,4.78
163.24,4.71,0.04,4.71,0.04,-0.03,-0.02,0.36,4.68,4.68,4.67
164.88,4.67,0.12,4.67,0.11,-0.07,-0.02,0.35,4.60,4.60,4.55
166.53,4.62,0.16,4.62,0.16,-0.11,-0.02,0.33,4.52,4.52,4.46
168.19,4.58,0.17,4.58,0.17,-0.14,-0.02,0.31,4.44,4.44,4.40
169.87,4.53,0.15,4.53,0.15,-0.16,-0.02,0.29,4.36,4.36,4.37
171.57,4.47,0.13,4.47,0.14,-0.18,-0.02,0.28,4.30,4.30,4.34
173.29,4.42,0.13,4.42,0.14,-0.18,-0.02,0.26,4.24,4.24,4.29
175.02,4.37,0.15,4.37,0.15,-0.17,-0.02,0.24,4.20,4.20,4.22
176.77,4.32,0.18,4.32,0.18,-0.16,-0.02,0.22,4.16,4.16,4.13
178.54,4.26,0.19,4.26,0.18,-0.14,-0.02,0.21,4.13,4.13,4.08
180.32,4.21,0.16,4.21,0.15,-0.11,-0.02,0.19,4.10,4.10,4.05
182.13,4.16,0.09,4.16,0.09,-0.08,-0.02,0.18,4.07,4.07,4.07
183.95,4.10,0.03,4.10,0.03,-0.05,-0.02,0.16,4.06,4.06,4.07
185.79,4.05,-0.02,4.05,-0.02,-0.01,-0.02,0.14,4.04,4.05,4.07
187.65,4.00,-0.05,4.00,-0.05,0.04,-0.02,0.13,4.04,4.04,4.05
189.52,3.95,-0.08,3.95,-0.08,0.07,-0.02,0.11,4.02,4.02,4.03
191.42,3.90,-0.11,3.90,-0.11,0.10,-0.03,0.10,4.00,4.00,4.00
193.33,3.84,-0.13,3.84,-0.13,0.12,-0.03,0.08,3.97,3.97,3.97
195.27,3.79,-0.14,3.79,-0.14,0.13,-0.03,0.06,3.92,3.92,3.93
197.22,3.74,-0.14,3.74,-0.14,0.14,-0.03,0.05,3.88,3.88,3.88
199.19,3.69,-0.13,3.69,-0.13,0.13,-0.03,0.03,3.82,3.82,3.82
201.18,3.63,-0.12,3.63,-0.12,0.13,-0.03,0.02,3.76,3.76,3.75
203.19,3.58,-0.12,3.57,-0.12,0.12,-0.03,0.01,3.70,3.70,3.69
205.23,3.52,-0.11,3.52,-0.11,0.11,-0.03,-0.01,3.63,3.63,3.63
207.28,3.46,-0.10,3.46,-0.10,0.10,-0.03,-0.02,3.56,3.56,3.56
209.35,3.41,-0.09,3.41,-0.09,0.09,-0.03,-0.04,3.50,3.50,3.50
211.44,3.35,-0.08,3.35,-0.08,0.08,-0.03,-0.05,3.44,3.44,3.43
213.56,3.30,-0.07,3.30,-0.07,0.07,-0.04,-0.06,3.37,3.37,3.37
215.69,3.24,-0.07,3.24,-0.07,0.07,-0.04,-0.08,3.31,3.31,3.31
217.85,3.19,-0.06,3.19,-0.06,0.06,-0.04,-0.09,3.25,3.25,3.25
220.03,3.13,-0.05,3.13,-0.05,0.05,-0.04,-0.10,3.19,3.19,3.19
222.23,3.08,-0.05,3.08,-0.05,0.05,-0.04,-0.11,3.12,3.12,3.12
224.45,3.02,-0.04,3.02,-0.04,0.04,-0.04,-0.12,3.06,3.06,3.06
226.70,2.97,-0.03,2.96,-0.04,0.04,-0.04,-0.13,3.00,3.00,3.00
228.96,2.91,-0.03,2.91,-0.03,0.03,-0.04,-0.15,2.94,2.94,2.94
231.25,2.85,-0.02,2.85,-0.02,0.02,-0.05,-0.16,2.88,2.88,2.88
233.57,2.80,-0.02,2.80,-0.02,0.02,-0.05,-0.17,2.81,2.81,2.81
235.90,2.74,-0.01,2.74,-0.01,0.01,-0.05,-0.17,2.75,2.75,2.75
238.26,2.69,-0.00,2.69,-0.00,0.00,-0.05,-0.18,2.69,2.69,2.69
240.64,2.63,0.00,2.63,0.00,-0.00,-0.05,-0.19,2.63,2.63,2.63
243.05,2.58,0.01,2.58,0.01,-0.01,-0.06,-0.20,2.57,2.57,2.57
245.48,2.52,0.02,2.52,0.02,-0.02,-0.06,-0.20,2.51,2.51,2.51
247.93,2.47,0.03,2.47,0.03,-0.02,-0.06,-0.21,2.44,2.44,2.44
250.41,2.41,0.03,2.41,0.03,-0.03,-0.06,-0.22,2.38,2.38,2.38
252.92,2.36,0.04,2.36,0.04,-0.04,-0.06,-0.22,2.32,2.32,2.32
255.45,2.31,0.05,2.31,0.05,-0.05,-0.07,-0.23,2.26,2.26,2.26
258.00,2.25,0.05,2.25,0.05,-0.06,-0.07,-0.23,2.20,2.20,2.20
260.58,2.20,0.06,2.20,0.06,-0.06,-0.07,-0.23,2.14,2.14,2.14
263.19,2.16,0.07,2.16,0.07,-0.07,-0.07,-0.24,2.08,2.08,2.08
265.82,2.11,0.08,2.11,0.08,-0.08,-0.08,-0.24,2.03,2.03,2.03
268.48,2.06,0.09,2.06,0.09,-0.08,-0.08,-0.24,1.97,1.97,1.97
271.16,2.00,0.09,2.00,0.09,-0.09,-0.08,-0.24,1.91,1.91,1.91
273.87,1.95,0.10,1.95,0.10,-0.10,-0.09,-0.24,1.85,1.85,1.85
276.61,1.89,0.10,1.90,0.10,-0.10,-0.09,-0.24,1.79,1.79,1.79
279.38,1.84,0.11,1.84,0.10,-0.11,-0.09,-0.24,1.74,1.74,1.74
282.17,1.79,0.11,1.79,0.11,-0.11,-0.09,-0.24,1.68,1.68,1.68
284.99,1.74,0.12,1.74,0.12,-0.12,-0.10,-0.24,1.62,1.62,1.62
287.84,1.69,0.13,1.69,0.13,-0.13,-0.10,-0.24,1.56,1.56,1.57
290.72,1.65,0.14,1.65,0.14,-0.14,-0.11,-0.24,1.51,1.51,1.51
293.63,1.61,0.15,1.61,0.15,-0.15,-0.11,-0.24,1.45,1.45,1.46
296.57,1.57,0.17,1.57,0.17,-0.17,-0.11,-0.24,1.40,1.40,1.40
299.53,1.53,0.18,1.53,0.18,-0.18,-0.12,-0.24,1.35,1.35,1.34
302.53,1.48,0.20,1.48,0.20,-0.19,-0.12,-0.24,1.29,1.29,1.29
305.55,1.44,0.21,1.44,0.21,-0.21,-0.13,-0.24,1.23,1.23,1.23
308.61,1.39,0.22,1.39,0.22,-0.22,-0.13,-0.24,1.18,1.18,1.17
311.69,1.34,0.22,1.34,0.22,-0.22,-0.14,-0.24,1.12,1.12,1.12
314.81,1.29,0.23,1.29,0.23,-0.23,-0.14,-0.24,1.06,1.06,1.06
317.96,1.24,0.23,1.24,0.23,-0.23,-0.15,-0.23,1.01,1.01,1.01
321.14,1.19,0.24,1.19,0.24,-0.24,-0.15,-0.23,0.95,0.95,0.95
324.35,1.14,0.24,1.14,0.24,-0.24,-0.16,-0.23,0.90,0.90,0.90
327.59,1.08,0.24,1.08,0.24,-0.24,-0.16,-0.23,0.84,0.84,0.84
330.87,1.03,0.24,1.03,0.24,-0.24,-0.17,-0.23,0.79,0.79,0.79
334.18,0.98,0.24,0.98,0.24,-0.24,-0.17,-0.23,0.74,0.74,0.74
337.52,0.93,0.24,0.93,0.24,-0.24,-0.18,-0.23,0.69,0.69,0.69
340.90,0.88,0.24,0.88,0.24,-0.24,-0.18,-0.23,0.64,0.64,0.64
344.30,0.83,0.24,0.83,0.24,-0.24,-0.19,-0.23,0.58,0.58,0.58
347.75,0.77,0.24,0.77,0.24,-0.24,-0.19,-0.24,0.53,0.53,0.53
351.23,0.72,0.24,0.72,0.24,-0.24,-0.20,-0.24,0.48,0.48,0.48
354.74,0.67,0.24,0.67,0.24,-0.24,-0.20,-0.24,0.43,0.43,0.43
358.28,0.62,0.24,0.62,0.24,-0.24,-0.21,-0.24,0.38,0.38,0.38
361.87,0.57,0.24,0.57,0.24,-0.24,-0.21,-0.24,0.33,0.33,0.33
365.49,0.52,0.23,0.52,0.23,-0.23,-0.22,-0.24,0.28,0.28,0.28
369.14,0.47,0.23,0.47,0.23,-0.23,-0.22,-0.24,0.24,0.24,0.24
372.83,0.42,0.23,0.42,0.23,-0.23,-0.22,-0.25,0.19,0.19,0.19
376.56,0.37,0.23,0.37,0.23,-0.23,-0.23,-0.25,0.14,0.14,0.14
380.33,0.32,0.23,0.32,0.23,-0.23,-0.23,-0.25,0.09,0.09,0.09
384.13,0.27,0.23,0.27,0.23,-0.23,-0.23,-0.25,0.05,0.05,0.05
387.97,0.23,0.23,0.23,0.23,-0.23,-0.23,-0.26,0.00,0.00,0.00
391.85,0.18,0.23,0.18,0.23,-0.22,-0.23,-0.26,-0.04,-0.04,-0.04
395.77,0.14,0.22,0.14,0.22,-0.22,-0.23,-0.26,-0.09,-0.09,-0.09
399.73,0.09,0.22,0.09,0.22,-0.22,-0.23,-0.27,-0.13,-0.13,-0.13
403.72,0.05,0.22,0.05,0.22,-0.22,-0.23,-0.27,-0.17,-0.17,-0.17
407.76,-0.00,0.22,-0.00,0.22,-0.22,-0.23,-0.27,-0.22,-0.22,-0.22
411.84,-0.05,0.21,-0.05,0.21,-0.21,-0.23,-0.27,-0.26,-0.26,-0.26
415.96,-0.09,0.21,-0.09,0.21,-0.21,-0.22,-0.28,-0.30,-0.30,-0.30
420.12,-0.14,0.21,-0.14,0.21,-0.21,-0.22,-0.28,-0.34,-0.34,-0.34
424.32,-0.18,0.20,-0.18,0.20,-0.20,-0.22,-0.28,-0.38,-0.38,-0.38
428.56,-0.22,0.20,-0.22,0.20,-0.20,-0.21,-0.28,-0.42,-0.42,-0.42
432.85,-0.27,0.20,-0.27,0.20,-0.20,-0.21,-0.29,-0.46,-0.46,-0.46
437.18,-0.31,0.19,-0.31,0.19,-0.19,-0.20,-0.29,-0.50,-0.50,-0.50
441.55,-0.35,0.19,-0.35,0.19,-0.19,-0.19,-0.29,-0.54,-0.54,-0.54
445.96,-0.39,0.18,-0.39,0.18,-0.18,-0.19,-0.29,-0.57,-0.57,-0.57
450.42,-0.43,0.18,-0.43,0.18,-0.18,-0.18,-0.29,-0.61,-0.61,-0.61
454.93,-0.47,0.17,-0.47,0.17,-0.17,-0.17,-0.29,-0.65,-0.65,-0.65
459.48,-0.51,0.17,-0.51,0.17,-0.17,-0.16,-0.29,-0.68,-0.68,-0.68
464.07,-0.55,0.16,-0.55,0.16,-0.16,-0.15,-0.29,-0.72,-0.72,-0.72
468.71,-0.59,0.16,-0.59,0.16,-0.16,-0.14,-0.29,-0.75,-0.75,-0.75
473.40,-0.63,0.15,-0.63,0.15,-0.15,-0.13,-0.29,-0.78,-0.78,-0.78
478.13,-0.67,0.15,-0.67,0.15,-0.15,-0.12,-0.28,-0.81,-0.81,-0.81
482.91,-0.71,0.14,-0.71,0.14,-0.14,-0.11,-0.28,-0.84,-0.84,-0.84
487.74,-0.74,0.13,-0.74,0.13,-0.13,-0.10,-0.28,-0.87,-0.87,-0.87
492.62,-0.78,0.13,-0.78,0.13,-0.13,-0.09,-0.27,-0.90,-0.90,-0.90
497.55,-0.81,0.12,-0.81,0.12,-0.12,-0.08,-0.26,-0.93,-0.93,-0.93
502.52,-0.85,0.11,-0.85,0.11,-0.11,-0.07,-0.26,-0.96,-0.96,-0.96
507.55,-0.88,0.10,-0.88,0.10,-0.10,-0.06,-0.25,-0.98,-0.98,-0.98
512.62,-0.91,0.09,-0.91,0.09,-0.09,-0.05,-0.24,-1.01,-1.01,-1.01
517.75,-0.95,0.08,-0.95,0.08,-0.08,-0.04,-0.23,-1.03,-1.03,-1.03
522.93,-0.98,0.07,-0.98,0.07,-0.07,-0.03,-0.22,-1.05,-1.05,-1.05
528.16,-1.01,0.06,-1.01,0.06,-0.06,-0.02,-0.21,-1.07,-1.07,-1.07
533.44,-1.04,0.05,-1.04,0.05,-0.05,-0.01,-0.19,-1.09,-1.09,-1.09
