frequency,raw,error,smoothed,error_smoothed,equalization,parametric_eq,fixed_band_eq,equalized_raw,equalized_smoothed,target
20.00,11.99,0.89,11.99,0.89,-0.95,-1.06,0.07,11.04,11.04,11.10
20.20,12.00,0.95,12.00,0.95,-0.95,-1.06,0.07,11.05,11.05,11.05
20.40,12.00,1.00,12.00,0.98,-0.95,-1.06,0.07,11.05,11.05,11.00
20.61,12.00,0.99,11.99,0.99,-0.94,-1.03,0.07,11.05,11.05,11.00
20.81,11.98,0.97,11.98,0.98,-0.94,-1.00,0.08,11.03,11.03,11.00
21.02,11.95,0.95,11.95,0.95,-0.94,-0.96,0.08,11.01,11.01,11.00
21.23,11.92,0.92,11.92,0.91,-0.93,-0.92,0.08,10.99,10.99,11.00
21.44,11.88,0.88,11.88,0.89,-0.92,-0.88,0.08,10.96,10.96,11.00
21.66,11.85,0.87,11.85,0.88,-0.90,-0.85,0.08,10.95,10.95,10.98
21.87,11.82,0.91,11.82,0.89,-0.89,-0.82,0.08,10.93,10.93,10.91
22.09,11.79,0.89,11.79,0.89,-0.88,-0.79,0.08,10.91,10.91,10.90
22.31,11.77,0.87,11.77,0.88,-0.87,-0.78,0.08,10.90,10.90,10.90
22.54,11.76,0.86,11.76,0.86,-0.86,-0.76,0.08,10.90,10.90,10.90
22.76,11.75,0.85,11.75,0.86,-0.85,-0.74,0.08,10.90,10.90,10.90
22.99,11.75,0.84,11.75,0.84,-0.83,-0.72,0.08,10.92,10.92,10.90
23.22,11.74,0.83,11.74,0.81,-0.80,-0.71,0.08,10.94,10.94,10.91
23.45,11.73,0.75,11.73,0.77,-0.77,-0.69,0.09,10.97,10.97,10.99
23.69,11.72,0.72,11.72,0.72,-0.72,-0.66,0.09,11.00,11.00,11.00
23.92,11.71,0.68,11.71,0.66,-0.67,-0.63,0.09,11.04,11.04,11.03
24.16,11.69,0.60,11.69,0.62,-0.62,-0.60,0.09,11.07,11.07,11.09
24.40,11.67,0.56,11.67,0.56,-0.55,-0.56,0.09,11.12,11.12,11.10
24.65,11.64,0.50,11.64,0.49,-0.48,-0.52,0.09,11.16,11.16,11.14
24.89,11.61,0.41,11.61,0.41,-0.40,-0.48,0.09,11.21,11.21,11.20
25.14,11.58,0.31,11.58,0.33,-0.32,-0.43,0.09,11.26,11.26,11.26
25.39,11.54,0.24,11.54,0.25,-0.24,-0.38,0.10,11.30,11.30,11.30
25.65,11.50,0.19,11.50,0.17,-0.17,-0.33,0.10,11.33,11.33,11.31
25.91,11.46,0.08,11.46,0.09,-0.10,-0.28,0.10,11.36,11.36,11.38
26.16,11.42,0.01,11.42,0.03,-0.05,-0.23,0.10,11.37,11.37,11.40
26.43,11.37,-0.03,11.37,-0.01,-0.01,-0.17,0.11,11.36,11.36,11.40
26.69,11.31,-0.01,11.31,-0.04,0.02,-0.12,0.11,11.34,11.34,11.33
26.96,11.26,-0.04,11.26,-0.04,0.04,-0.07,0.11,11.30,11.31,11.30
27.23,11.22,-0.08,11.22,-0.04,0.05,-0.02,0.12,11.27,11.27,11.29
27.50,11.18,-0.02,11.18,-0.06,0.05,0.02,0.12,11.23,11.23,11.20
27.77,11.15,-0.05,11.15,-0.05,0.05,0.07,0.13,11.20,11.20,11.20
28.05,11.12,-0.07,11.12,-0.04,0.05,0.12,0.13,11.17,11.17,11.19
28.33,11.09,-0.03,11.09,-0.05,0.06,0.16,0.14,11.15,11.15,11.12
28.62,11.05,-0.05,11.05,-0.06,0.08,0.20,0.14,11.14,11.13,11.10
28.90,11.01,-0.09,11.01,-0.09,0.12,0.24,0.15,11.13,11.12,11.10
29.19,10.96,-0.15,10.95,-0.14,0.16,0.28,0.16,11.12,11.12,11.10
29.48,10.90,-0.20,10.90,-0.20,0.21,0.31,0.17,11.11,11.11,11.10
29.78,10.85,-0.25,10.85,-0.26,0.26,0.35,0.18,11.11,11.11,11.10
30.08,10.80,-0.31,10.81,-0.33,0.30,0.38,0.19,11.11,11.11,11.12
30.38,10.77,-0.40,10.78,-0.39,0.34,0.42,0.20,11.12,11.12,11.18
30.68,10.76,-0.44,10.76,-0.42,0.38,0.45,0.21,11.14,11.14,11.20
30.99,10.75,-0.43,10.75,-0.42,0.41,0.48,0.22,11.16,11.16,11.18
31.30,10.73,-0.39,10.73,-0.41,0.44,0.51,0.23,11.17,11.17,11.12
31.61,10.70,-0.40,10.69,-0.42,0.47,0.54,0.25,11.16,11.16,11.10
31.93,10.64,-0.46,10.64,-0.46,0.50,0.57,0.26,11.14,11.13,11.10
32.24,10.56,-0.54,10.56,-0.52,0.52,0.60,0.28,11.09,11.09,11.10
32.57,10.48,-0.57,10.48,-0.57,0.55,0.63,0.29,11.04,11.04,11.05
32.89,10.41,-0.59,10.41,-0.61,0.59,0.65,0.31,11.00,11.00,11.00
33.22,10.36,-0.65,10.36,-0.64,0.62,0.68,0.33,10.98,10.98,11.00
33.55,10.32,-0.68,10.33,-0.67,0.66,0.71,0.35,10.98,10.98,11.00
33.89,10.31,-0.69,10.31,-0.69,0.68,0.73,0.37,10.99,10.99,11.00
34.23,10.31,-0.69,10.31,-0.70,0.70,0.76,0.39,11.01,11.01,11.00
34.57,10.30,-0.70,10.30,-0.71,0.72,0.78,0.41,11.02,11.01,11.00
34.92,10.28,-0.72,10.28,-0.72,0.73,0.81,0.44,11.01,11.01,11.00
35.27,10.25,-0.75,10.25,-0.75,0.75,0.83,0.46,11.00,11.00,11.00
35.62,10.23,-0.77,10.23,-0.76,0.77,0.86,0.48,11.00,11.00,11.00
35.97,10.22,-0.79,10.22,-0.79,0.79,0.88,0.51,11.01,11.01,11.00
36.33,10.22,-0.80,10.22,-0.82,0.82,0.91,0.53,11.04,11.04,11.02
36.70,10.22,-0.86,10.23,-0.84,0.86,0.93,0.56,11.08,11.08,11.08
37.06,10.22,-0.88,10.22,-0.88,0.90,0.96,0.59,11.12,11.11,11.10
37.43,10.19,-0.91,10.19,-0.92,0.93,0.98,0.62,11.13,11.12,11.10
37.81,10.13,-0.97,10.13,-0.97,0.97,1.00,0.65,11.11,11.11,11.10
38.19,10.07,-1.04,10.07,-1.02,1.01,1.03,0.68,11.08,11.08,11.10
38.57,10.00,-1.08,10.00,-1.07,1.04,1.05,0.71,11.04,11.04,11.07
38.95,9.94,-1.07,9.94,-1.09,1.07,1.08,0.74,11.01,11.01,11.01
39.34,9.89,-1.11,9.89,-1.10,1.09,1.10,0.77,10.98,10.98,11.00
39.74,9.85,-1.11,9.85,-1.10,1.10,1.13,0.80,10.95,10.95,10.96
40.14,9.81,-1.09,9.81,-1.11,1.11,1.15,0.84,10.93,10.92,10.90
40.54,9.77,-1.13,9.77,-1.11,1.13,1.18,0.87,10.90,10.90,10.90
40.94,9.73,-1.13,9.73,-1.13,1.15,1.20,0.91,10.88,10.88,10.86
41.35,9.69,-1.12,9.69,-1.16,1.18,1.23,0.94,10.87,10.87,10.81
41.76,9.66,-1.22,9.67,-1.19,1.22,1.25,0.98,10.88,10.88,10.88
42.18,9.65,-1.25,9.65,-1.25,1.26,1.28,1.02,10.91,10.90,10.90
42.60,9.64,-1.28,9.64,-1.31,1.29,1.30,1.06,10.93,10.93,10.92
43.03,9.62,-1.37,9.62,-1.35,1.33,1.33,1.10,10.95,10.95,10.99
43.46,9.61,-1.39,9.61,-1.39,1.35,1.35,1.14,10.96,10.96,11.00
43.90,9.59,-1.41,9.59,-1.42,1.38,1.38,1.18,10.97,10.97,11.00
44.33,9.58,-1.43,9.58,-1.40,1.40,1.40,1.22,10.97,10.97,11.00
44.78,9.56,-1.38,9.55,-1.39,1.42,1.43,1.27,10.97,10.97,10.94
45.23,9.53,-1.38,9.52,-1.39,1.43,1.46,1.31,10.96,10.96,10.90
45.68,9.49,-1.41,9.49,-1.41,1.45,1.48,1.36,10.93,10.93,10.90
46.13,9.45,-1.46,9.45,-1.45,1.46,1.51,1.40,10.90,10.91,10.90
46.60,9.41,-1.50,9.41,-1.50,1.47,1.54,1.45,10.88,10.88,10.90
47.06,9.37,-1.53,9.37,-1.53,1.49,1.56,1.50,10.86,10.86,10.90
47.53,9.34,-1.56,9.34,-1.55,1.52,1.59,1.55,10.86,10.86,10.90
48.01,9.30,-1.56,9.30,-1.55,1.55,1.62,1.60,10.85,10.85,10.86
48.49,9.26,-1.55,9.26,-1.57,1.59,1.65,1.65,10.85,10.85,10.80
48.97,9.20,-1.60,9.20,-1.60,1.64,1.67,1.70,10.85,10.85,10.80
49.46,9.14,-1.66,9.14,-1.66,1.70,1.70,1.75,10.84,10.84,10.80
49.96,9.07,-1.74,9.06,-1.74,1.77,1.73,1.80,10.83,10.83,10.80
50.46,8.97,-1.83,8.97,-1.84,1.84,1.76,1.85,10.81,10.81,10.80
50.96,8.88,-1.93,8.88,-1.92,1.90,1.79,1.90,10.78,10.78,10.80
51.47,8.78,-2.00,8.78,-1.99,1.95,1.82,1.96,10.73,10.73,10.78
51.99,8.69,-2.01,8.70,-2.04,1.99,1.84,2.01,10.68,10.68,10.70
52.51,8.63,-2.07,8.63,-2.05,2.00,1.87,2.06,10.63,10.63,10.70
53.03,8.57,-2.06,8.58,-2.03,1.99,1.90,2.11,10.56,10.57,10.64
53.56,8.54,-1.95,8.54,-1.98,1.97,1.93,2.16,10.51,10.51,10.49
54.10,8.52,-1.91,8.52,-1.91,1.93,1.96,2.21,10.45,10.45,10.43
54.64,8.50,-1.86,8.50,-1.85,1.90,1.99,2.26,10.40,10.40,10.36
55.18,8.48,-1.82,8.48,-1.84,1.88,2.02,2.31,10.36,10.36,10.30
55.74,8.46,-1.84,8.46,-1.84,1.86,2.05,2.36,10.32,10.32,10.30
56.29,8.43,-1.87,8.43,-1.86,1.87,2.08,2.41,10.31,10.31,10.30
56.86,8.40,-1.90,8.40,-1.90,1.90,2.11,2.45,10.30,10.30,10.30
57.42,8.36,-1.95,8.36,-1.94,1.94,2.14,2.49,10.30,10.30,10.30
58.00,8.31,-1.99,8.30,-2.00,2.00,2.17,2.53,10.31,10.30,10.30
58.58,8.23,-2.07,8.23,-2.07,2.06,2.20,2.57,10.29,10.30,10.30
59.16,8.14,-2.16,8.14,-2.14,2.13,2.23,2.61,10.27,10.27,10.30
59.76,8.03,-2.21,8.03,-2.21,2.20,2.26,2.64,10.23,10.23,10.24
60.35,7.91,-2.27,7.91,-2.27,2.28,2.29,2.67,10.18,10.18,10.17
60.96,7.77,-2.34,7.76,-2.34,2.36,2.32,2.70,10.12,10.12,10.11
61.57,7.62,-2.41,7.61,-2.41,2.44,2.35,2.72,10.05,10.05,10.03
62.18,7.47,-2.49,7.47,-2.49,2.51,2.38,2.75,9.98,9.98,9.96
62.80,7.33,-2.57,7.33,-2.58,2.57,2.41,2.76,9.90,9.91,9.90
63.43,7.23,-2.67,7.23,-2.67,2.63,2.44,2.78,9.86,9.86,9.90
64.07,7.15,-2.75,7.17,-2.73,2.67,2.47,2.79,9.83,9.84,9.90
64.71,7.14,-2.76,7.14,-2.76,2.72,2.50,2.80,9.86,9.86,9.90
65.35,7.15,-2.76,7.15,-2.75,2.76,2.53,2.81,9.91,9.91,9.90
66.01,7.17,-2.74,7.16,-2.75,2.81,2.55,2.82,9.97,9.97,9.90
66.67,7.16,-2.76,7.16,-2.78,2.85,2.58,2.82,10.01,10.01,9.92
67.33,7.13,-2.86,7.13,-2.85,2.89,2.61,2.82,10.03,10.02,9.99
68.01,7.07,-2.93,7.07,-2.92,2.93,2.64,2.82,10.01,10.00,10.00
68.69,6.98,-2.99,6.98,-2.99,2.97,2.66,2.82,9.95,9.95,9.97
69.37,6.89,-3.01,6.89,-3.05,2.99,2.69,2.81,9.88,9.88,9.90
70.07,6.81,-3.09,6.82,-3.06,3.00,2.71,2.80,9.81,9.82,9.90
70.77,6.77,-3.07,6.77,-3.04,2.99,2.74,2.80,9.76,9.76,9.83
71.48,6.74,-2.96,6.74,-2.99,2.96,2.76,2.79,9.70,9.70,9.71
72.19,6.73,-2.90,6.73,-2.91,2.92,2.79,2.78,9.65,9.65,9.63
72.91,6.72,-2.84,6.72,-2.83,2.88,2.81,2.77,9.60,9.59,9.56
73.64,6.70,-2.79,6.70,-2.79,2.84,2.83,2.77,9.54,9.54,9.49
74.38,6.67,-2.75,6.67,-2.76,2.81,2.85,2.76,9.48,9.48,9.42
75.12,6.64,-2.76,6.64,-2.77,2.80,2.86,2.75,9.44,9.44,9.40
75.87,6.60,-2.80,6.60,-2.80,2.80,2.88,2.74,9.40,9.40,9.40
76.63,6.56,-2.84,6.56,-2.82,2.81,2.89,2.73,9.37,9.37,9.40
77.40,6.52,-2.83,6.52,-2.84,2.82,2.91,2.73,9.34,9.34,9.35
78.17,6.47,-2.83,6.47,-2.86,2.83,2.92,2.72,9.30,9.30,9.30
78.95,6.42,-2.88,6.42,-2.86,2.82,2.93,2.72,9.25,9.25,9.30
79.74,6.37,-2.87,6.37,-2.85,2.81,2.94,2.72,9.19,9.19,9.24
80.54,6.32,-2.82,6.32,-2.82,2.79,2.95,2.72,9.11,9.11,9.14
81.35,6.26,-2.75,6.26,-2.77,2.78,2.95,2.72,9.04,9.04,9.01
82.16,6.20,-2.74,6.20,-2.73,2.77,2.96,2.72,8.97,8.97,8.94
82.98,6.14,-2.73,6.14,-2.72,2.77,2.97,2.73,8.91,8.91,8.87
83.81,6.07,-2.73,6.07,-2.75,2.78,2.98,2.74,8.86,8.86,8.80
84.65,6.00,-2.80,6.00,-2.79,2.82,2.99,2.75,8.82,8.82,8.80
85.50,5.93,-2.87,5.93,-2.86,2.87,3.01,2.76,8.80,8.80,8.80
86.35,5.86,-2.94,5.86,-2.94,2.93,3.03,2.77,8.79,8.79,8.80
87.22,5.79,-3.02,5.79,-3.02,3.00,3.05,2.79,8.79,8.79,8.80
88.09,5.71,-3.09,5.71,-3.10,3.07,3.08,2.80,8.78,8.78,8.80
88.97,5.64,-3.16,5.64,-3.16,3.14,3.11,2.82,8.78,8.78,8.80
89.86,5.57,-3.23,5.57,-3.21,3.20,3.14,2.84,8.77,8.77,8.80
90.76,5.50,-3.24,5.50,-3.24,3.25,3.18,2.87,8.75,8.75,8.74
91.66,5.44,-3.26,5.44,-3.28,3.30,3.22,2.89,8.74,8.74,8.70
92.58,5.38,-3.32,5.38,-3.32,3.34,3.26,2.92,8.72,8.72,8.70
93.51,5.32,-3.38,5.32,-3.37,3.37,3.30,2.95,8.69,8.69,8.70
94.44,5.26,-3.41,5.26,-3.41,3.40,3.33,2.98,8.65,8.65,8.67
95.39,5.20,-3.41,5.20,-3.44,3.42,3.37,3.02,8.61,8.61,8.60
96.34,5.14,-3.46,5.14,-3.45,3.43,3.41,3.05,8.57,8.57,8.60
97.30,5.09,-3.48,5.09,-3.46,3.44,3.44,3.09,8.53,8.53,8.57
98.28,5.05,-3.45,5.06,-3.47,3.45,3.47,3.13,8.50,8.50,8.50
99.26,5.03,-3.48,5.03,-3.46,3.47,3.50,3.17,8.49,8.50,8.50
100.25,5.00,-3.46,4.99,-3.45,3.50,3.53,3.21,8.50,8.49,8.46
101.25,4.95,-3.46,4.94,-3.48,3.55,3.55,3.26,8.49,8.49,8.40
102.27,4.87,-3.54,4.86,-3.54,3.60,3.58,3.30,8.47,8.46,8.40
103.29,4.77,-3.63,4.77,-3.63,3.66,3.60,3.35,8.42,8.42,8.40
104.32,4.66,-3.74,4.67,-3.74,3.71,3.62,3.39,8.37,8.37,8.40
105.37,4.57,-3.83,4.57,-3.82,3.75,3.64,3.44,8.32,8.32,8.40
106.42,4.48,-3.88,4.48,-3.86,3.79,3.65,3.48,8.27,8.27,8.36
107.48,4.40,-3.85,4.41,-3.85,3.81,3.67,3.53,8.21,8.21,8.25
108.56,4.34,-3.80,4.34,-3.81,3.81,3.68,3.58,8.15,8.15,8.15
109.64,4.28,-3.75,4.28,-3.77,3.80,3.69,3.62,8.08,8.08,8.04
110.74,4.23,-3.74,4.23,-3.74,3.77,3.70,3.66,8.00,8.00,7.96
111.85,4.17,-3.74,4.17,-3.72,3.74,3.71,3.71,7.91,7.91,7.91
112.97,4.12,-3.68,4.12,-3.69,3.72,3.72,3.74,7.84,7.84,7.81
114.10,4.07,-3.68,4.07,-3.68,3.70,3.72,3.78,7.77,7.77,7.75
115.24,4.03,-3.67,4.03,-3.68,3.68,3.73,3.82,7.71,7.72,7.70
116.39,4.01,-3.70,4.00,-3.67,3.67,3.73,3.85,7.67,7.67,7.70
117.55,3.98,-3.66,3.99,-3.66,3.64,3.74,3.88,7.63,7.63,7.65
118.73,3.98,-3.62,3.98,-3.64,3.61,3.74,3.91,7.59,7.59,7.60
119.92,3.99,-3.61,3.99,-3.60,3.57,3.74,3.93,7.56,7.56,7.60
121.12,3.99,-3.55,3.99,-3.55,3.53,3.74,3.95,7.52,7.52,7.55
122.33,4.00,-3.49,4.00,-3.49,3.48,3.74,3.96,7.48,7.48,7.49
123.55,3.99,-3.43,3.99,-3.42,3.45,3.73,3.98,7.44,7.44,7.42
124.79,3.98,-3.34,3.98,-3.37,3.41,3.73,3.98,7.39,7.39,7.32
126.03,3.95,-3.35,3.95,-3.36,3.39,3.73,3.99,7.34,7.34,7.30
127.29,3.89,-3.39,3.89,-3.37,3.39,3.72,3.99,7.28,7.28,7.29
128.57,3.82,-3.40,3.82,-3.40,3.40,3.72,3.98,7.22,7.22,7.22
129.85,3.74,-3.42,3.74,-3.42,3.42,3.71,3.97,7.16,7.16,7.16
131.15,3.66,-3.44,3.67,-3.46,3.45,3.71,3.96,7.11,7.11,7.10
132.46,3.59,-3.51,3.60,-3.49,3.48,3.70,3.94,7.07,7.07,7.10
133.79,3.53,-3.53,3.53,-3.52,3.50,3.69,3.92,7.04,7.04,7.06
135.12,3.48,-3.52,3.48,-3.55,3.52,3.68,3.90,7.01,7.01,7.00
136.48,3.43,-3.57,3.43,-3.56,3.54,3.67,3.88,6.98,6.98,7.00
137.84,3.39,-3.57,3.38,-3.56,3.56,3.66,3.85,6.94,6.94,6.96
139.22,3.33,-3.56,3.33,-3.56,3.57,3.65,3.82,6.90,6.90,6.89
140.61,3.28,-3.54,3.28,-3.56,3.58,3.64,3.79,6.86,6.86,6.82
142.02,3.22,-3.58,3.22,-3.58,3.60,3.63,3.75,6.82,6.82,6.80
143.44,3.16,-3.62,3.16,-3.60,3.61,3.62,3.72,6.77,6.77,6.78
144.87,3.10,-3.61,3.10,-3.63,3.63,3.61,3.68,6.73,6.73,6.71
146.32,3.04,-3.66,3.04,-3.65,3.65,3.60,3.65,6.69,6.69,6.70
147.78,2.98,-3.68,2.98,-3.67,3.67,3.59,3.61,6.65,6.65,6.66
149.26,2.93,-3.67,2.93,-3.70,3.68,3.57,3.58,6.61,6.61,6.60
150.75,2.88,-3.73,2.88,-3.70,3.68,3.56,3.54,6.56,6.56,6.60
152.26,2.82,-3.70,2.82,-3.69,3.68,3.55,3.51,6.50,6.50,6.52
153.78,2.76,-3.65,2.76,-3.67,3.67,3.54,3.47,6.43,6.43,6.42
155.32,2.71,-3.63,2.71,-3.65,3.65,3.53,3.44,6.36,6.36,6.34
156.88,2.66,-3.64,2.66,-3.63,3.63,3.51,3.41,6.29,6.29,6.30
158.44,2.61,-3.65,2.61,-3.61,3.60,3.50,3.38,6.21,6.21,6.26
160.03,2.56,-3.54,2.56,-3.57,3.57,3.49,3.35,6.13,6.13,6.10
161.63,2.52,-3.53,2.52,-3.53,3.54,3.48,3.32,6.06,6.06,6.05
163.24,2.47,-3.52,2.47,-3.50,3.52,3.47,3.30,5.99,5.99,5.99
164.88,2.42,-3.49,2.42,-3.50,3.50,3.46,3.27,5.92,5.92,5.91
166.53,2.37,-3.48,2.37,-3.47,3.49,3.45,3.25,5.86,5.86,5.85
168.19,2.32,-3.47,2.32,-3.46,3.47,3.44,3.24,5.79,5.80,5.79
169.87,2.27,-3.43,2.27,-3.46,3.46,3.43,3.22,5.74,5.74,5.71
171.57,2.23,-3.47,2.23,-3.46,3.45,3.42,3.21,5.68,5.68,5.70
173.29,2.19,-3.47,2.19,-3.46,3.44,3.41,3.19,5.63,5.63,5.66
175.02,2.14,-3.46,2.14,-3.45,3.43,3.40,3.19,5.57,5.57,5.60
176.77,2.10,-3.42,2.10,-3.43,3.42,3.39,3.18,5.52,5.52,5.51
178.54,2.05,-3.40,2.05,-3.40,3.42,3.39,3.18,5.46,5.46,5.45
180.32,2.00,-3.39,2.00,-3.39,3.41,3.38,3.17,5.41,5.41,5.39
182.13,1.95,-3.38,1.95,-3.40,3.41,3.37,3.17,5.36,5.36,5.33
183.95,1.89,-3.41,1.89,-3.40,3.41,3.37,3.18,5.31,5.31,5.30
185.79,1.84,-3.43,1.84,-3.42,3.42,3.37,3.18,5.26,5.26,5.28
187.65,1.79,-3.42,1.79,-3.44,3.43,3.36,3.19,5.22,5.22,5.21
189.52,1.75,-3.46,1.75,-3.45,3.44,3.36,3.20,5.18,5.19,5.20
191.42,1.70,-3.49,1.70,-3.47,3.45,3.36,3.21,5.16,5.16,5.19
193.33,1.66,-3.46,1.66,-3.48,3.47,3.36,3.23,5.13,5.13,5.12
195.27,1.62,-3.48,1.62,-3.48,3.49,3.36,3.24,5.11,5.11,5.10
197.22,1.57,-3.49,1.57,-3.48,3.52,3.37,3.26,5.09,5.09,5.06
199.19,1.52,-3.48,1.52,-3.51,3.54,3.37,3.28,5.06,5.06,5.00
201.18,1.46,-3.54,1.46,-3.54,3.56,3.37,3.30,5.02,5.02,5.00
203.19,1.41,-3.59,1.41,-3.58,3.57,3.38,3.33,4.98,4.98,5.00
205.23,1.37,-3.63,1.37,-3.61,3.56,3.39,3.35,4.93,4.93,4.99
207.28,1.33,-3.60,1.33,-3.61,3.55,3.39,3.37,4.87,4.87,4.93
209.35,1.29,-3.57,1.29,-3.57,3.52,3.40,3.40,4.81,4.81,4.86
211.44,1.25,-3.52,1.25,-3.50,3.49,3.41,3.43,4.74,4.74,4.77
213.56,1.21,-3.42,1.21,-3.44,3.45,3.42,3.45,4.67,4.67,4.63
215.69,1.18,-3.37,1.18,-3.37,3.42,3.43,3.48,4.60,4.60,4.55
217.85,1.14,-3.34,1.13,-3.33,3.39,3.45,3.51,4.53,4.53,4.47
220.03,1.09,-3.31,1.09,-3.33,3.37,3.46,3.53,4.46,4.46,4.40
222.23,1.04,-3.36,1.04,-3.36,3.36,3.47,3.56,4.41,4.41,4.40
224.45,1.00,-3.40,1.00,-3.40,3.37,3.48,3.58,4.36,4.36,4.40
226.70,0.95,-3.45,0.95,-3.43,3.38,3.50,3.60,4.33,4.33,4.40
228.96,0.91,-3.43,0.91,-3.43,3.39,3.51,3.62,4.30,4.30,4.34
231.25,0.86,-3.41,0.86,-3.41,3.42,3.52,3.64,4.28,4.28,4.27
233.57,0.82,-3.39,0.82,-3.41,3.44,3.53,3.66,4.26,4.26,4.21
235.90,0.78,-3.43,0.78,-3.43,3.47,3.54,3.67,4.24,4.24,4.20
238.26,0.73,-3.47,0.73,-3.46,3.49,3.55,3.68,4.23,4.23,4.20
240.64,0.69,-3.51,0.69,-3.51,3.51,3.56,3.69,4.21,4.21,4.20
243.05,0.65,-3.55,0.65,-3.56,3.53,3.56,3.69,4.19,4.19,4.20
245.48,0.61,-3.59,0.61,-3.59,3.55,3.57,3.69,4.16,4.16,4.20
247.93,0.57,-3.61,0.57,-3.60,3.57,3.57,3.69,4.14,4.13,4.18
250.41,0.52,-3.59,0.52,-3.60,3.58,3.57,3.69,4.10,4.10,4.12
252.92,0.48,-3.57,0.48,-3.57,3.58,3.56,3.68,4.06,4.06,4.05
255.45,0.44,-3.55,0.44,-3.54,3.57,3.55,3.66,4.01,4.01,3.99
258.00,0.41,-3.50,0.41,-3.53,3.55,3.55,3.65,3.96,3.96,3.90
260.58,0.37,-3.53,0.37,-3.52,3.53,3.53,3.63,3.90,3.90,3.90
263.19,0.34,-3.53,0.34,-3.52,3.51,3.52,3.61,3.84,3.84,3.87
265.82,0.30,-3.51,0.30,-3.51,3.48,3.50,3.58,3.78,3.78,3.81
268.48,0.26,-3.48,0.27,-3.48,3.46,3.48,3.55,3.73,3.73,3.74
271.16,0.23,-3.44,0.23,-3.44,3.44,3.45,3.52,3.67,3.67,3.67
273.87,0.19,-3.41,0.19,-3.41,3.43,3.42,3.49,3.62,3.62,3.61
276.61,0.16,-3.38,0.16,-3.39,3.41,3.39,3.45,3.57,3.57,3.54
279.38,0.12,-3.38,0.12,-3.38,3.40,3.36,3.42,3.52,3.52,3.50
282.17,0.09,-3.41,0.09,-3.38,3.39,3.33,3.38,3.48,3.48,3.50
284.99,0.06,-3.37,0.05,-3.39,3.38,3.29,3.34,3.43,3.43,3.43
287.84,0.02,-3.38,0.02,-3.39,3.37,3.26,3.30,3.39,3.39,3.40
290.72,-0.02,-3.40,-0.02,-3.38,3.37,3.22,3.26,3.35,3.35,3.38
293.63,-0.05,-3.37,-0.05,-3.36,3.37,3.18,3.22,3.31,3.31,3.31
296.57,-0.09,-3.33,-0.09,-3.35,3.37,3.14,3.17,3.28,3.28,3.24
299.53,-0.13,-3.33,-0.13,-3.34,3.37,3.10,3.13,3.24,3.24,3.20
302.53,-0.17,-3.37,-0.17,-3.35,3.37,3.07,3.09,3.20,3.20,3.20
305.55,-0.20,-3.34,-0.20,-3.34,3.36,3.03,3.05,3.15,3.15,3.14
308.61,-0.24,-3.31,-0.24,-3.32,3.32,2.99,3.01,3.08,3.08,3.07
311.69,-0.28,-3.29,-0.28,-3.29,3.25,2.95,2.97,2.97,2.97,3.01
314.81,-0.31,-3.24,-0.31,-3.26,3.15,2.91,2.93,2.84,2.84,2.93
317.96,-0.34,-3.17,-0.34,-3.15,3.03,2.88,2.90,2.69,2.69,2.82
321.14,-0.37,-3.06,-0.37,-2.97,2.90,2.84,2.86,2.53,2.53,2.68
324.35,-0.40,-2.68,-0.40,-2.75,2.77,2.81,2.83,2.37,2.37,2.28
327.59,-0.43,-2.53,-0.43,-2.55,2.66,2.78,2.79,2.23,2.23,2.10
330.87,-0.46,-2.45,-0.46,-2.43,2.58,2.75,2.76,2.12,2.12,1.98
334.18,-0.50,-2.42,-0.50,-2.43,2.54,2.72,2.74,2.04,2.05,1.92
337.52,-0.53,-2.48,-0.53,-2.48,2.54,2.69,2.71,2.01,2.01,1.95
340.90,-0.57,-2.59,-0.57,-2.58,2.59,2.66,2.68,2.02,2.02,2.02
344.30,-0.60,-2.69,-0.60,-2.69,2.67,2.64,2.66,2.07,2.07,2.09
347.75,-0.63,-2.79,-0.63,-2.79,2.77,2.61,2.64,2.13,2.13,2.16
351.23,-0.67,-2.87,-0.67,-2.87,2.85,2.59,2.62,2.18,2.18,2.20
354.74,-0.70,-2.90,-0.70,-2.92,2.89,2.57,2.60,2.18,2.19,2.20
358.28,-0.73,-2.93,-0.73,-2.93,2.86,2.55,2.59,2.13,2.13,2.20
361.87,-0.76,-2.88,-0.76,-2.87,2.77,2.53,2.58,2.01,2.01,2.13
365.49,-0.78,-2.75,-0.79,-2.75,2.61,2.52,2.56,1.83,1.83,1.97
369.14,-0.82,-2.54,-0.82,-2.53,2.42,2.50,2.56,1.60,1.60,1.73
372.83,-0.85,-2.27,-0.85,-2.25,2.20,2.49,2.55,1.35,1.35,1.42
376.56,-0.88,-1.94,-0.88,-1.94,1.99,2.48,2.54,1.11,1.11,1.05
380.33,-0.92,-1.66,-0.92,-1.66,1.81,2.47,2.54,0.89,0.89,0.74
384.13,-0.95,-1.46,-0.95,-1.49,1.67,2.46,2.54,0.73,0.73,0.52
387.97,-0.98,-1.41,-0.98,-1.46,1.60,2.45,2.54,0.62,0.62,0.43
391.85,-1.01,-1.57,-1.01,-1.54,1.60,2.44,2.54,0.59,0.59,0.56
395.77,-1.04,-1.70,-1.04,-1.68,1.67,2.44,2.54,0.63,0.63,0.66
399.73,-1.06,-1.82,-1.06,-1.83,1.79,2.43,2.55,0.73,0.73,0.76
403.72,-1.09,-1.98,-1.09,-1.98,1.95,2.43,2.55,0.86,0.86,0.89
407.76,-1.11,-2.14,-1.11,-2.15,2.10,2.43,2.56,0.99,0.99,1.03
411.84,-1.13,-2.29,-1.13,-2.30,2.24,2.42,2.57,1.11,1.11,1.16
415.96,-1.15,-2.45,-1.15,-2.41,2.36,2.43,2.58,1.20,1.20,1.30
420.12,-1.18,-2.48,-1.18,-2.48,2.44,2.43,2.59,1.27,1.27,1.30
424.32,-1.20,-2.50,-1.20,-2.51,2.50,2.43,2.60,1.30,1.30,1.30
428.56,-1.22,-2.52,-1.22,-2.52,2.54,2.43,2.61,1.32,1.32,1.30
432.85,-1.23,-2.54,-1.23,-2.54,2.56,2.44,2.62,1.32,1.32,1.30
437.18,-1.25,-2.55,-1.25,-2.56,2.56,2.44,2.63,1.31,1.31,1.30
441.55,-1.26,-2.57,-1.26,-2.57,2.56,2.45,2.64,1.30,1.30,1.30
445.96,-1.28,-2.58,-1.28,-2.56,2.56,2.45,2.65,1.28,1.28,1.30
450.42,-1.30,-2.55,-1.30,-2.55,2.56,2.46,2.65,1.26,1.26,1.25
454.93,-1.32,-2.52,-1.32,-2.54,2.56,2.47,2.66,1.24,1.24,1.20
459.48,-1.35,-2.55,-1.35,-2.55,2.57,2.47,2.67,1.22,1.22,1.20
464.07,-1.38,-2.58,-1.38,-2.57,2.58,2.48,2.67,1.21,1.21,1.20
468.71,-1.40,-2.60,-1.40,-2.60,2.59,2.49,2.68,1.19,1.19,1.20
473.40,-1.42,-2.62,-1.42,-2.62,2.60,2.50,2.68,1.19,1.18,1.20
478.13,-1.43,-2.64,-1.43,-2.64,2.62,2.51,2.68,1.19,1.19,1.20
482.91,-1.45,-2.65,-1.45,-2.65,2.64,2.52,2.68,1.19,1.20,1.20
487.74,-1.46,-2.66,-1.46,-2.66,2.67,2.54,2.68,1.21,1.21,1.20
492.62,-1.47,-2.67,-1.47,-2.67,2.70,2.55,2.67,1.23,1.23,1.20
497.55,-1.48,-2.68,-1.48,-2.69,2.72,2.56,2.66,1.24,1.24,1.20
502.52,-1.49,-2.70,-1.49,-2.73,2.74,2.57,2.65,1.25,1.25,1.21
507.55,-1.51,-2.79,-1.51,-2.78,2.76,2.58,2.64,1.25,1.25,1.28
512.62,-1.52,-2.82,-1.52,-2.81,2.77,2.59,2.62,1.25,1.25,1.30
517.75,-1.53,-2.82,-1.53,-2.81,2.77,2.61,2.61,1.24,1.24,1.29
522.93,-1.54,-2.76,-1.54,-2.79,2.77,2.62,2.59,1.22,1.22,1.22
