frequency,raw,error,smoothed,error_smoothed,equalization,parametric_eq,fixed_band_eq,equalized_raw,equalized_smoothed,target
20.00,10.40,2.52,10.40,2.52,-2.54,-2.49,-1.55,7.87,7.87,7.88
20.20,10.42,2.56,10.42,2.56,-2.56,-2.54,-1.60,7.86,7.86,7.86
20.40,10.44,2.59,10.44,2.59,-2.59,-2.59,-1.64,7.85,7.85,7.85
20.61,10.46,2.63,10.46,2.63,-2.62,-2.65,-1.69,7.85,7.84,7.84
20.81,10.48,2.66,10.48,2.66,-2.65,-2.70,-1.74,7.83,7.83,7.83
21.02,10.49,2.68,10.49,2.68,-2.67,-2.75,-1.79,7.82,7.82,7.81
21.23,10.51,2.71,10.51,2.71,-2.70,-2.80,-1.84,7.80,7.80,7.80
21.44,10.52,2.73,10.52,2.73,-2.73,-2.84,-1.89,7.79,7.79,7.79
21.66,10.53,2.75,10.53,2.75,-2.76,-2.88,-1.95,7.77,7.77,7.77
21.87,10.54,2.78,10.54,2.78,-2.78,-2.91,-2.00,7.76,7.76,7.76
22.09,10.55,2.80,10.55,2.80,-2.81,-2.94,-2.06,7.74,7.74,7.75
22.31,10.56,2.83,10.56,2.83,-2.84,-2.95,-2.12,7.72,7.72,7.73
22.54,10.58,2.87,10.58,2.87,-2.87,-2.97,-2.18,7.71,7.71,7.71
22.76,10.59,2.90,10.59,2.90,-2.90,-2.98,-2.24,7.69,7.69,7.69
22.99,10.61,2.94,10.61,2.94,-2.93,-2.99,-2.30,7.68,7.68,7.67
23.22,10.62,2.96,10.62,2.96,-2.95,-2.99,-2.37,7.67,7.67,7.66
23.45,10.64,2.98,10.64,2.98,-2.97,-3.00,-2.44,7.67,7.67,7.65
23.69,10.65,3.00,10.65,3.00,-2.98,-3.01,-2.50,7.67,7.67,7.65
23.92,10.66,3.00,10.66,3.00,-3.00,-3.01,-2.57,7.67,7.67,7.66
24.16,10.67,3.00,10.67,3.00,-3.01,-3.02,-2.64,7.67,7.67,7.67
24.40,10.68,3.01,10.68,3.01,-3.02,-3.03,-2.71,7.66,7.66,7.67
24.65,10.69,3.02,10.69,3.02,-3.05,-3.04,-2.79,7.65,7.65,7.67
24.89,10.70,3.05,10.70,3.05,-3.07,-3.05,-2.86,7.63,7.63,7.65
25.14,10.71,3.09,10.71,3.09,-3.10,-3.06,-2.93,7.61,7.61,7.62
25.39,10.72,3.14,10.72,3.13,-3.14,-3.07,-3.01,7.59,7.59,7.59
25.65,10.73,3.18,10.73,3.18,-3.16,-3.09,-3.08,7.56,7.56,7.55
25.91,10.74,3.22,10.74,3.22,-3.19,-3.10,-3.16,7.55,7.55,7.52
26.16,10.74,3.24,10.74,3.24,-3.21,-3.12,-3.24,7.53,7.53,7.50
26.43,10.75,3.24,10.75,3.24,-3.22,-3.14,-3.31,7.53,7.53,7.51
26.69,10.76,3.23,10.76,3.23,-3.23,-3.16,-3.38,7.52,7.52,7.52
26.96,10.76,3.22,10.76,3.22,-3.24,-3.18,-3.46,7.52,7.52,7.54
27.23,10.76,3.21,10.76,3.22,-3.24,-3.20,-3.53,7.53,7.53,7.55
27.50,10.77,3.22,10.77,3.22,-3.23,-3.22,-3.60,7.54,7.54,7.55
27.77,10.77,3.23,10.77,3.23,-3.23,-3.25,-3.67,7.54,7.55,7.54
28.05,10.78,3.24,10.78,3.24,-3.22,-3.27,-3.74,7.55,7.55,7.54
28.33,10.78,3.24,10.78,3.24,-3.22,-3.29,-3.80,7.56,7.56,7.54
28.62,10.79,3.24,10.79,3.24,-3.22,-3.31,-3.87,7.56,7.56,7.54
28.90,10.79,3.23,10.79,3.23,-3.23,-3.34,-3.92,7.56,7.56,7.56
29.19,10.79,3.23,10.79,3.23,-3.25,-3.36,-3.98,7.54,7.54,7.57
29.48,10.80,3.23,10.80,3.24,-3.28,-3.39,-4.03,7.52,7.52,7.57
29.78,10.80,3.28,10.80,3.28,-3.31,-3.41,-4.08,7.49,7.49,7.52
30.08,10.80,3.33,10.80,3.33,-3.35,-3.43,-4.12,7.46,7.46,7.47
30.38,10.81,3.40,10.81,3.40,-3.39,-3.46,-4.16,7.42,7.42,7.40
30.68,10.81,3.47,10.81,3.46,-3.43,-3.48,-4.19,7.38,7.38,7.34
30.99,10.81,3.51,10.81,3.51,-3.47,-3.51,-4.23,7.34,7.34,7.30
31.30,10.82,3.54,10.82,3.54,-3.52,-3.53,-4.25,7.30,7.30,7.28
31.61,10.82,3.55,10.82,3.55,-3.56,-3.56,-4.27,7.26,7.26,7.27
31.93,10.82,3.56,10.82,3.57,-3.59,-3.58,-4.29,7.23,7.23,7.26
32.24,10.83,3.60,10.83,3.60,-3.62,-3.61,-4.30,7.20,7.20,7.23
32.57,10.83,3.64,10.83,3.64,-3.65,-3.64,-4.30,7.18,7.18,7.19
32.89,10.83,3.69,10.83,3.68,-3.68,-3.66,-4.31,7.15,7.15,7.14
33.22,10.83,3.73,10.83,3.73,-3.71,-3.69,-4.30,7.12,7.12,7.10
33.55,10.83,3.76,10.83,3.76,-3.75,-3.71,-4.30,7.08,7.08,7.07
33.89,10.83,3.78,10.83,3.78,-3.78,-3.74,-4.29,7.04,7.04,7.04
34.23,10.82,3.80,10.82,3.81,-3.81,-3.76,-4.28,7.01,7.01,7.02
34.57,10.82,3.83,10.82,3.83,-3.84,-3.79,-4.27,6.98,6.98,6.99
34.92,10.82,3.86,10.82,3.86,-3.86,-3.81,-4.25,6.96,6.96,6.96
35.27,10.82,3.89,10.82,3.89,-3.88,-3.84,-4.23,6.94,6.94,6.93
35.62,10.81,3.91,10.81,3.91,-3.90,-3.86,-4.22,6.92,6.92,6.90
35.97,10.81,3.92,10.81,3.92,-3.91,-3.89,-4.19,6.90,6.90,6.89
36.33,10.80,3.92,10.80,3.92,-3.93,-3.91,-4.17,6.88,6.88,6.88
36.70,10.80,3.93,10.80,3.93,-3.94,-3.94,-4.15,6.86,6.86,6.87
37.06,10.79,3.94,10.79,3.94,-3.95,-3.96,-4.13,6.84,6.84,6.85
37.43,10.79,3.97,10.79,3.96,-3.97,-3.98,-4.11,6.82,6.82,6.82
37.81,10.78,3.99,10.78,3.99,-3.99,-4.01,-4.09,6.80,6.80,6.79
38.19,10.77,4.01,10.77,4.01,-4.00,-4.03,-4.07,6.77,6.77,6.76
38.57,10.77,4.03,10.77,4.03,-4.03,-4.06,-4.05,6.74,6.74,6.74
38.95,10.76,4.05,10.76,4.05,-4.05,-4.08,-4.04,6.71,6.71,6.71
39.34,10.75,4.07,10.75,4.07,-4.08,-4.11,-4.02,6.68,6.68,6.68
39.74,10.75,4.10,10.75,4.10,-4.10,-4.13,-4.01,6.64,6.64,6.64
40.14,10.74,4.13,10.74,4.13,-4.13,-4.15,-4.00,6.61,6.61,6.60
40.54,10.73,4.16,10.73,4.16,-4.16,-4.18,-3.99,6.58,6.58,6.57
40.94,10.73,4.18,10.73,4.18,-4.18,-4.20,-3.99,6.54,6.54,6.54
41.35,10.72,4.21,10.72,4.21,-4.21,-4.22,-3.98,6.51,6.51,6.52
41.76,10.72,4.23,10.72,4.23,-4.24,-4.25,-3.98,6.48,6.48,6.49
42.18,10.72,4.27,10.72,4.27,-4.27,-4.27,-3.98,6.45,6.45,6.45
42.60,10.72,4.30,10.71,4.30,-4.30,-4.29,-3.99,6.42,6.42,6.42
43.03,10.71,4.33,10.71,4.33,-4.32,-4.31,-4.00,6.39,6.39,6.37
43.46,10.70,4.36,10.70,4.36,-4.35,-4.34,-4.01,6.35,6.35,6.34
43.90,10.69,4.38,10.69,4.38,-4.37,-4.36,-4.02,6.32,6.32,6.31
44.33,10.68,4.39,10.68,4.39,-4.39,-4.38,-4.04,6.29,6.29,6.29
44.78,10.67,4.40,10.67,4.40,-4.41,-4.40,-4.06,6.26,6.26,6.27
45.23,10.66,4.42,10.66,4.42,-4.42,-4.42,-4.08,6.24,6.23,6.24
45.68,10.65,4.43,10.65,4.43,-4.44,-4.44,-4.11,6.21,6.21,6.21
46.13,10.63,4.45,10.63,4.45,-4.46,-4.46,-4.14,6.18,6.18,6.18
46.60,10.62,4.48,10.62,4.48,-4.47,-4.48,-4.17,6.14,6.14,6.14
47.06,10.61,4.50,10.61,4.50,-4.49,-4.50,-4.21,6.11,6.11,6.11
47.53,10.59,4.52,10.59,4.52,-4.51,-4.52,-4.25,6.08,6.08,6.07
48.01,10.58,4.53,10.58,4.53,-4.53,-4.54,-4.29,6.05,6.05,6.05
48.49,10.57,4.55,10.57,4.55,-4.54,-4.56,-4.33,6.03,6.03,6.02
48.97,10.56,4.56,10.56,4.56,-4.56,-4.58,-4.38,6.00,6.00,6.00
49.46,10.55,4.57,10.55,4.57,-4.58,-4.60,-4.43,5.97,5.96,5.98
49.96,10.54,4.59,10.54,4.60,-4.60,-4.62,-4.48,5.93,5.93,5.94
50.46,10.52,4.63,10.52,4.63,-4.63,-4.64,-4.53,5.90,5.90,5.90
50.96,10.51,4.66,10.51,4.66,-4.65,-4.66,-4.58,5.86,5.86,5.85
51.47,10.50,4.69,10.50,4.69,-4.68,-4.67,-4.64,5.82,5.82,5.81
51.99,10.49,4.71,10.48,4.71,-4.71,-4.69,-4.69,5.77,5.77,5.77
52.51,10.47,4.74,10.47,4.74,-4.75,-4.71,-4.75,5.73,5.73,5.74
53.03,10.47,4.76,10.47,4.77,-4.78,-4.72,-4.81,5.68,5.69,5.70
53.56,10.46,4.81,10.46,4.81,-4.81,-4.74,-4.87,5.65,5.65,5.65
54.10,10.46,4.85,10.46,4.85,-4.84,-4.76,-4.93,5.61,5.61,5.61
54.64,10.45,4.88,10.45,4.88,-4.87,-4.77,-4.98,5.58,5.58,5.57
55.18,10.44,4.90,10.43,4.90,-4.89,-4.79,-5.04,5.55,5.54,5.53
55.74,10.41,4.92,10.41,4.92,-4.90,-4.80,-5.09,5.51,5.51,5.50
56.29,10.38,4.92,10.38,4.92,-4.91,-4.82,-5.14,5.47,5.47,5.46
56.86,10.35,4.92,10.35,4.92,-4.91,-4.83,-5.19,5.44,5.44,5.44
57.42,10.32,4.91,10.32,4.91,-4.90,-4.84,-5.24,5.42,5.42,5.41
58.00,10.29,4.89,10.29,4.89,-4.89,-4.86,-5.28,5.40,5.40,5.40
58.58,10.27,4.87,10.26,4.87,-4.89,-4.87,-5.32,5.38,5.38,5.39
59.16,10.24,4.86,10.24,4.87,-4.88,-4.88,-5.36,5.36,5.36,5.38
59.76,10.22,4.87,10.22,4.87,-4.88,-4.89,-5.39,5.33,5.33,5.35
60.35,10.19,4.88,10.19,4.88,-4.89,-4.91,-5.42,5.31,5.31,5.31
60.96,10.17,4.90,10.17,4.90,-4.90,-4.92,-5.44,5.28,5.28,5.27
61.57,10.15,4.92,10.15,4.91,-4.91,-4.93,-5.45,5.24,5.24,5.23
62.18,10.13,4.92,10.13,4.93,-4.92,-4.94,-5.46,5.20,5.21,5.20
62.80,10.10,4.94,10.10,4.94,-4.94,-4.95,-5.47,5.17,5.17,5.17
63.43,10.08,4.95,10.08,4.95,-4.95,-4.96,-5.47,5.13,5.13,5.13
64.07,10.06,4.96,10.06,4.96,-4.96,-4.97,-5.47,5.10,5.10,5.10
64.71,10.04,4.97,10.04,4.97,-4.98,-4.98,-5.46,5.06,5.06,5.07
65.35,10.02,4.98,10.02,4.99,-4.99,-4.99,-5.44,5.03,5.03,5.03
66.01,9.99,5.00,9.99,5.00,-5.00,-4.99,-5.42,4.99,4.99,4.99
66.67,9.97,5.01,9.97,5.01,-5.01,-5.00,-5.40,4.96,4.96,4.95
67.33,9.94,5.02,9.94,5.02,-5.02,-5.01,-5.37,4.92,4.92,4.92
68.01,9.91,5.03,9.91,5.03,-5.03,-5.02,-5.34,4.88,4.88,4.88
68.69,9.88,5.04,9.88,5.04,-5.04,-5.02,-5.30,4.85,4.85,4.85
69.37,9.85,5.04,9.85,5.04,-5.04,-5.03,-5.26,4.81,4.81,4.81
70.07,9.82,5.04,9.82,5.05,-5.05,-5.03,-5.22,4.78,4.78,4.78
70.77,9.79,5.05,9.79,5.05,-5.05,-5.04,-5.18,4.74,4.74,4.74
71.48,9.76,5.06,9.76,5.06,-5.06,-5.04,-5.14,4.71,4.71,4.70
72.19,9.73,5.06,9.73,5.06,-5.06,-5.05,-5.09,4.67,4.67,4.67
72.91,9.71,5.07,9.71,5.07,-5.07,-5.05,-5.05,4.64,4.64,4.64
73.64,9.68,5.08,9.68,5.08,-5.08,-5.05,-5.00,4.60,4.60,4.60
74.38,9.65,5.08,9.65,5.08,-5.08,-5.06,-4.96,4.57,4.57,4.57
75.12,9.62,5.09,9.62,5.09,-5.09,-5.06,-4.91,4.53,4.53,4.53
75.87,9.59,5.10,9.59,5.09,-5.10,-5.06,-4.87,4.50,4.50,4.50
76.63,9.57,5.10,9.57,5.10,-5.10,-5.06,-4.83,4.46,4.47,4.46
77.40,9.54,5.11,9.54,5.11,-5.11,-5.07,-4.78,4.43,4.43,4.43
78.17,9.51,5.11,9.51,5.11,-5.11,-5.07,-4.75,4.40,4.40,4.40
78.95,9.48,5.11,9.48,5.11,-5.11,-5.07,-4.71,4.37,4.37,4.37
79.74,9.45,5.12,9.45,5.12,-5.11,-5.07,-4.67,4.34,4.33,4.33
80.54,9.42,5.11,9.42,5.11,-5.11,-5.07,-4.64,4.30,4.30,4.30
81.35,9.38,5.11,9.38,5.11,-5.11,-5.07,-4.61,4.27,4.27,4.27
82.16,9.34,5.11,9.34,5.11,-5.10,-5.07,-4.59,4.24,4.24,4.23
82.98,9.30,5.10,9.30,5.10,-5.10,-5.06,-4.56,4.20,4.20,4.20
83.81,9.26,5.09,9.26,5.09,-5.09,-5.06,-4.54,4.17,4.17,4.17
84.65,9.21,5.08,9.21,5.08,-5.08,-5.06,-4.53,4.14,4.14,4.14
85.50,9.17,5.06,9.17,5.06,-5.06,-5.06,-4.51,4.10,4.10,4.10
86.35,9.12,5.05,9.12,5.05,-5.05,-5.06,-4.50,4.07,4.07,4.07
87.22,9.07,5.03,9.07,5.03,-5.04,-5.05,-4.50,4.03,4.03,4.04
88.09,9.03,5.02,9.03,5.02,-5.03,-5.05,-4.49,4.00,4.00,4.01
88.97,8.98,5.01,8.98,5.01,-5.01,-5.04,-4.49,3.97,3.97,3.97
89.86,8.94,5.00,8.94,5.00,-5.00,-5.04,-4.50,3.94,3.94,3.94
90.76,8.90,4.99,8.90,4.99,-4.98,-5.03,-4.50,3.91,3.91,3.91
91.66,8.85,4.97,8.85,4.97,-4.96,-5.03,-4.51,3.89,3.89,3.88
92.58,8.80,4.95,8.80,4.95,-4.94,-5.02,-4.53,3.86,3.86,3.85
93.51,8.75,4.93,8.75,4.93,-4.92,-5.02,-4.54,3.83,3.83,3.82
94.44,8.69,4.90,8.69,4.90,-4.89,-5.01,-4.57,3.80,3.80,3.79
95.39,8.63,4.87,8.63,4.87,-4.86,-5.00,-4.59,3.77,3.77,3.76
96.34,8.57,4.84,8.57,4.84,-4.84,-5.00,-4.61,3.73,3.73,3.73
97.30,8.51,4.81,8.51,4.81,-4.82,-4.99,-4.64,3.69,3.69,3.70
98.28,8.46,4.78,8.46,4.79,-4.80,-4.98,-4.67,3.65,3.65,3.67
99.26,8.42,4.78,8.42,4.78,-4.80,-4.97,-4.71,3.62,3.62,3.64
100.25,8.40,4.78,8.40,4.79,-4.80,-4.96,-4.74,3.60,3.60,3.61
101.25,8.39,4.81,8.39,4.80,-4.80,-4.96,-4.78,3.59,3.58,3.58
102.27,8.38,4.82,8.38,4.82,-4.82,-4.95,-4.82,3.56,3.56,3.55
103.29,8.36,4.84,8.36,4.84,-4.83,-4.94,-4.86,3.53,3.53,3.52
104.32,8.34,4.85,8.35,4.85,-4.85,-4.93,-4.91,3.50,3.50,3.49
105.37,8.33,4.86,8.33,4.86,-4.86,-4.91,-4.95,3.47,3.47,3.47
106.42,8.32,4.88,8.32,4.88,-4.87,-4.90,-4.99,3.44,3.44,3.44
107.48,8.30,4.89,8.30,4.89,-4.88,-4.89,-5.03,3.42,3.42,3.41
108.56,8.28,4.90,8.28,4.90,-4.88,-4.88,-5.08,3.39,3.39,3.38
109.64,8.25,4.89,8.25,4.89,-4.89,-4.87,-5.12,3.36,3.36,3.35
110.74,8.22,4.88,8.21,4.89,-4.89,-4.86,-5.16,3.32,3.32,3.33
111.85,8.18,4.88,8.18,4.88,-4.89,-4.84,-5.20,3.29,3.29,3.30
112.97,8.15,4.88,8.15,4.88,-4.90,-4.83,-5.23,3.26,3.26,3.27
114.10,8.13,4.89,8.13,4.89,-4.90,-4.82,-5.27,3.23,3.23,3.24
115.24,8.12,4.90,8.12,4.90,-4.90,-4.80,-5.29,3.21,3.21,3.21
116.39,8.10,4.91,8.10,4.91,-4.91,-4.79,-5.32,3.20,3.20,3.19
117.55,8.09,4.92,8.08,4.92,-4.91,-4.77,-5.34,3.18,3.18,3.17
118.73,8.06,4.91,8.06,4.91,-4.90,-4.76,-5.36,3.15,3.15,3.14
119.92,8.02,4.90,8.02,4.90,-4.90,-4.74,-5.37,3.12,3.12,3.12
121.12,7.98,4.89,7.98,4.88,-4.88,-4.72,-5.38,3.10,3.10,3.09
122.33,7.93,4.86,7.93,4.86,-4.86,-4.71,-5.38,3.07,3.07,3.07
123.55,7.88,4.84,7.88,4.84,-4.84,-4.69,-5.38,3.04,3.04,3.04
124.79,7.83,4.81,7.83,4.81,-4.82,-4.67,-5.36,3.01,3.01,3.02
126.03,7.78,4.79,7.78,4.79,-4.79,-4.66,-5.35,2.99,2.99,2.99
127.29,7.72,4.76,7.72,4.76,-4.76,-4.64,-5.32,2.96,2.96,2.96
128.57,7.67,4.73,7.67,4.73,-4.73,-4.62,-5.30,2.94,2.94,2.94
129.85,7.62,4.70,7.62,4.70,-4.70,-4.60,-5.26,2.91,2.91,2.91
131.15,7.56,4.67,7.56,4.67,-4.67,-4.58,-5.22,2.89,2.89,2.89
132.46,7.51,4.64,7.51,4.65,-4.65,-4.56,-5.18,2.87,2.87,2.87
133.79,7.46,4.62,7.46,4.62,-4.62,-4.54,-5.13,2.84,2.84,2.84
135.12,7.41,4.59,7.41,4.59,-4.59,-4.52,-5.07,2.82,2.82,2.82
136.48,7.36,4.56,7.36,4.56,-4.56,-4.49,-5.01,2.79,2.79,2.79
137.84,7.30,4.53,7.30,4.53,-4.53,-4.47,-4.95,2.77,2.77,2.77
139.22,7.25,4.50,7.25,4.50,-4.51,-4.45,-4.88,2.74,2.74,2.75
140.61,7.20,4.48,7.20,4.48,-4.48,-4.43,-4.81,2.72,2.72,2.72
142.02,7.15,4.45,7.15,4.45,-4.45,-4.40,-4.74,2.70,2.70,2.70
143.44,7.09,4.42,7.09,4.42,-4.42,-4.38,-4.67,2.68,2.68,2.67
144.87,7.04,4.39,7.04,4.39,-4.39,-4.35,-4.60,2.65,2.65,2.65
146.32,6.98,4.36,6.98,4.36,-4.35,-4.33,-4.52,2.63,2.63,2.62
147.78,6.92,4.32,6.92,4.32,-4.32,-4.30,-4.44,2.60,2.60,2.60
149.26,6.86,4.28,6.86,4.28,-4.28,-4.27,-4.37,2.57,2.57,2.57
150.75,6.79,4.24,6.79,4.24,-4.25,-4.25,-4.29,2.55,2.55,2.55
152.26,6.73,4.21,6.73,4.21,-4.21,-4.22,-4.21,2.53,2.53,2.53
153.78,6.68,4.17,6.68,4.17,-4.17,-4.19,-4.14,2.51,2.51,2.51
155.32,6.62,4.13,6.62,4.13,-4.12,-4.16,-4.06,2.50,2.50,2.49
156.88,6.56,4.08,6.56,4.08,-4.08,-4.13,-3.99,2.48,2.48,2.48
158.44,6.51,4.03,6.51,4.03,-4.04,-4.10,-3.92,2.47,2.47,2.48
160.03,6.45,3.99,6.45,3.99,-3.99,-4.07,-3.85,2.47,2.47,2.47
161.63,6.40,3.94,6.40,3.94,-3.94,-4.04,-3.78,2.46,2.46,2.46
163.24,6.34,3.89,6.34,3.89,-3.89,-4.01,-3.71,2.45,2.45,2.44
164.88,6.28,3.85,6.28,3.85,-3.85,-3.98,-3.65,2.43,2.43,2.43
166.53,6.21,3.80,6.21,3.80,-3.80,-3.95,-3.58,2.41,2.41,2.41
168.19,6.15,3.75,6.15,3.75,-3.76,-3.91,-3.52,2.39,2.39,2.40
169.87,6.09,3.71,6.09,3.71,-3.71,-3.88,-3.47,2.37,2.37,2.37
171.57,6.03,3.67,6.02,3.67,-3.68,-3.85,-3.41,2.35,2.35,2.35
173.29,5.97,3.64,5.97,3.64,-3.64,-3.81,-3.36,2.33,2.33,2.33
175.02,5.91,3.61,5.91,3.61,-3.61,-3.78,-3.31,2.30,2.30,2.30
176.77,5.86,3.58,5.86,3.58,-3.58,-3.74,-3.26,2.28,2.28,2.28
178.54,5.81,3.55,5.81,3.55,-3.55,-3.71,-3.22,2.26,2.26,2.26
180.32,5.76,3.53,5.76,3.52,-3.53,-3.67,-3.17,2.24,2.24,2.24
182.13,5.72,3.50,5.72,3.50,-3.51,-3.63,-3.13,2.22,2.22,2.22
183.95,5.68,3.49,5.68,3.49,-3.49,-3.60,-3.09,2.19,2.19,2.20
185.79,5.65,3.47,5.65,3.47,-3.47,-3.56,-3.06,2.17,2.17,2.17
187.65,5.61,3.46,5.61,3.46,-3.46,-3.52,-3.02,2.15,2.15,2.15
189.52,5.58,3.44,5.58,3.44,-3.45,-3.48,-2.99,2.13,2.13,2.13
191.42,5.54,3.43,5.54,3.43,-3.44,-3.44,-2.96,2.11,2.11,2.11
193.33,5.51,3.42,5.51,3.42,-3.42,-3.40,-2.94,2.09,2.09,2.09
195.27,5.48,3.41,5.48,3.40,-3.40,-3.37,-2.91,2.08,2.08,2.07
197.22,5.44,3.38,5.44,3.38,-3.37,-3.33,-2.89,2.07,2.07,2.06
199.19,5.40,3.35,5.40,3.35,-3.34,-3.29,-2.87,2.06,2.06,2.04
201.18,5.34,3.31,5.34,3.30,-3.30,-3.24,-2.85,2.05,2.05,2.04
203.19,5.28,3.25,5.28,3.25,-3.25,-3.20,-2.83,2.03,2.03,2.03
205.23,5.22,3.19,5.22,3.20,-3.20,-3.16,-2.82,2.01,2.02,2.02
207.28,5.15,3.14,5.15,3.14,-3.15,-3.12,-2.80,2.00,2.00,2.01
209.35,5.09,3.09,5.09,3.09,-3.10,-3.08,-2.79,1.99,1.99,1.99
211.44,5.02,3.05,5.02,3.05,-3.05,-3.04,-2.77,1.97,1.97,1.98
213.56,4.96,3.00,4.96,3.00,-3.00,-3.00,-2.76,1.96,1.96,1.95
215.69,4.90,2.96,4.90,2.96,-2.96,-2.95,-2.75,1.94,1.94,1.94
217.85,4.84,2.92,4.84,2.92,-2.92,-2.91,-2.74,1.92,1.92,1.92
220.03,4.78,2.88,4.78,2.88,-2.88,-2.87,-2.72,1.90,1.90,1.90
222.23,4.72,2.84,4.72,2.84,-2.84,-2.83,-2.71,1.88,1.88,1.88
224.45,4.66,2.80,4.66,2.80,-2.80,-2.79,-2.70,1.86,1.86,1.86
226.70,4.61,2.76,4.61,2.76,-2.76,-2.74,-2.69,1.85,1.85,1.85
228.96,4.55,2.72,4.55,2.72,-2.72,-2.70,-2.67,1.83,1.83,1.83
231.25,4.49,2.68,4.49,2.68,-2.68,-2.66,-2.66,1.81,1.81,1.81
233.57,4.43,2.64,4.43,2.64,-2.64,-2.61,-2.64,1.79,1.79,1.79
235.90,4.37,2.60,4.37,2.60,-2.60,-2.57,-2.63,1.77,1.77,1.77
238.26,4.31,2.55,4.31,2.55,-2.55,-2.53,-2.61,1.75,1.75,1.75
240.64,4.25,2.51,4.25,2.51,-2.51,-2.48,-2.59,1.74,1.74,1.74
243.05,4.19,2.46,4.19,2.46,-2.47,-2.44,-2.56,1.72,1.72,1.72
245.48,4.12,2.42,4.12,2.42,-2.42,-2.40,-2.54,1.70,1.70,1.70
247.93,4.06,2.38,4.06,2.38,-2.38,-2.36,-2.51,1.69,1.69,1.69
250.41,4.00,2.33,4.00,2.33,-2.33,-2.31,-2.48,1.67,1.67,1.67
252.92,3.94,2.29,3.94,2.29,-2.29,-2.27,-2.45,1.65,1.65,1.65
255.45,3.88,2.24,3.88,2.24,-2.24,-2.23,-2.42,1.63,1.63,1.63
258.00,3.81,2.20,3.81,2.20,-2.20,-2.18,-2.39,1.62,1.62,1.62
260.58,3.75,2.16,3.75,2.15,-2.15,-2.14,-2.35,1.60,1.60,1.60
263.19,3.69,2.11,3.69,2.11,-2.11,-2.10,-2.31,1.58,1.58,1.58
265.82,3.63,2.06,3.63,2.06,-2.06,-2.05,-2.27,1.57,1.57,1.57
268.48,3.57,2.02,3.57,2.02,-2.02,-2.01,-2.23,1.55,1.55,1.55
271.16,3.51,1.97,3.51,1.97,-1.98,-1.97,-2.18,1.53,1.53,1.53
273.87,3.45,1.93,3.45,1.93,-1.93,-1.93,-2.14,1.52,1.52,1.52
276.61,3.39,1.89,3.39,1.89,-1.89,-1.88,-2.09,1.50,1.50,1.50
279.38,3.33,1.85,3.33,1.85,-1.85,-1.84,-2.04,1.48,1.48,1.48
282.17,3.27,1.80,3.27,1.80,-1.80,-1.80,-1.99,1.47,1.47,1.47
284.99,3.21,1.76,3.21,1.76,-1.76,-1.76,-1.94,1.45,1.45,1.45
287.84,3.15,1.71,3.15,1.71,-1.72,-1.72,-1.89,1.43,1.43,1.43
290.72,3.09,1.67,3.09,1.67,-1.67,-1.67,-1.83,1.41,1.42,1.42
293.63,3.03,1.63,3.03,1.63,-1.63,-1.63,-1.78,1.40,1.40,1.40
296.57,2.97,1.59,2.97,1.59,-1.59,-1.59,-1.73,1.38,1.38,1.38
299.53,2.91,1.55,2.91,1.55,-1.54,-1.55,-1.67,1.37,1.37,1.36
302.53,2.85,1.50,2.85,1.50,-1.50,-1.51,-1.62,1.35,1.35,1.35
305.55,2.80,1.46,2.80,1.46,-1.46,-1.47,-1.56,1.34,1.34,1.34
308.61,2.74,1.42,2.74,1.42,-1.42,-1.42,-1.51,1.32,1.32,1.32
311.69,2.68,1.38,2.68,1.38,-1.38,-1.38,-1.46,1.30,1.30,1.30
314.81,2.62,1.34,2.62,1.34,-1.34,-1.34,-1.40,1.29,1.29,1.29
317.96,2.57,1.29,2.57,1.30,-1.30,-1.30,-1.35,1.27,1.27,1.27
321.14,2.51,1.25,2.51,1.25,-1.25,-1.26,-1.29,1.26,1.26,1.26
324.35,2.45,1.21,2.45,1.21,-1.21,-1.22,-1.24,1.24,1.24,1.24
327.59,2.40,1.17,2.40,1.17,-1.17,-1.18,-1.19,1.22,1.22,1.22
330.87,2.34,1.13,2.34,1.13,-1.13,-1.14,-1.14,1.21,1.21,1.21
334.18,2.28,1.09,2.28,1.09,-1.09,-1.10,-1.09,1.19,1.19,1.19
337.52,2.22,1.05,2.22,1.05,-1.05,-1.06,-1.04,1.18,1.18,1.18
340.90,2.17,1.00,2.17,1.00,-1.00,-1.02,-0.99,1.16,1.16,1.16
344.30,2.11,0.96,2.11,0.96,-0.96,-0.98,-0.94,1.15,1.15,1.15
347.75,2.05,0.92,2.05,0.92,-0.92,-0.94,-0.89,1.13,1.13,1.13
351.23,1.99,0.88,1.99,0.88,-0.88,-0.90,-0.84,1.12,1.12,1.12
354.74,1.94,0.84,1.94,0.83,-0.84,-0.86,-0.79,1.10,1.10,1.10
358.28,1.88,0.79,1.88,0.79,-0.79,-0.82,-0.74,1.09,1.09,1.09
361.87,1.82,0.75,1.82,0.75,-0.75,-0.78,-0.70,1.07,1.07,1.07
365.49,1.77,0.71,1.77,0.71,-0.71,-0.74,-0.65,1.06,1.06,1.06
369.14,1.71,0.67,1.71,0.67,-0.67,-0.70,-0.61,1.04,1.04,1.04
372.83,1.66,0.63,1.66,0.63,-0.63,-0.66,-0.56,1.03,1.03,1.03
376.56,1.60,0.59,1.60,0.59,-0.59,-0.62,-0.52,1.01,1.01,1.01
380.33,1.55,0.55,1.55,0.55,-0.55,-0.58,-0.47,1.00,1.00,1.00
384.13,1.50,0.51,1.50,0.51,-0.51,-0.54,-0.43,0.99,0.99,0.99
387.97,1.44,0.47,1.44,0.47,-0.47,-0.50,-0.39,0.97,0.97,0.97
391.85,1.39,0.43,1.39,0.43,-0.43,-0.47,-0.35,0.96,0.96,0.96
395.77,1.33,0.39,1.33,0.39,-0.39,-0.43,-0.30,0.94,0.94,0.94
399.73,1.28,0.35,1.28,0.35,-0.35,-0.39,-0.26,0.93,0.93,0.93
403.72,1.23,0.31,1.23,0.31,-0.31,-0.35,-0.22,0.92,0.91,0.92
407.76,1.17,0.27,1.17,0.27,-0.27,-0.31,-0.18,0.90,0.90,0.90
411.84,1.12,0.23,1.12,0.23,-0.23,-0.27,-0.14,0.89,0.89,0.89
415.96,1.07,0.20,1.07,0.20,-0.20,-0.23,-0.10,0.87,0.87,0.88
420.12,1.02,0.16,1.02,0.16,-0.16,-0.19,-0.06,0.86,0.86,0.86
424.32,0.97,0.12,0.97,0.12,-0.12,-0.16,-0.03,0.85,0.85,0.85
428.56,0.92,0.08,0.92,0.09,-0.08,-0.12,0.01,0.84,0.84,0.83
432.85,0.87,0.05,0.87,0.05,-0.05,-0.08,0.05,0.82,0.82,0.82
437.18,0.82,0.01,0.82,0.01,-0.01,-0.04,0.09,0.81,0.81,0.81
441.55,0.77,-0.03,0.77,-0.03,0.03,-0.00,0.12,0.80,0.80,0.80
445.96,0.72,-0.07,0.72,-0.07,0.07,0.04,0.16,0.78,0.78,0.79
450.42,0.67,-0.10,0.67,-0.10,0.10,0.07,0.19,0.77,0.77,0.77
454.93,0.62,-0.14,0.62,-0.14,0.14,0.11,0.22,0.76,0.76,0.76
459.48,0.57,-0.18,0.57,-0.18,0.18,0.15,0.26,0.75,0.75,0.75
464.07,0.53,-0.21,0.53,-0.21,0.21,0.19,0.29,0.74,0.74,0.74
468.71,0.48,-0.25,0.48,-0.25,0.25,0.22,0.32,0.73,0.73,0.73
473.40,0.43,-0.28,0.43,-0.28,0.28,0.26,0.35,0.71,0.71,0.71
478.13,0.39,-0.32,0.39,-0.32,0.32,0.30,0.38,0.70,0.70,0.70
482.91,0.34,-0.35,0.34,-0.35,0.35,0.33,0.41,0.69,0.69,0.69
487.74,0.30,-0.38,0.30,-0.38,0.38,0.37,0.44,0.68,0.68,0.68
492.62,0.25,-0.42,0.25,-0.42,0.42,0.41,0.47,0.67,0.67,0.67
497.55,0.21,-0.45,0.21,-0.45,0.45,0.44,0.49,0.66,0.66,0.66
502.52,0.16,-0.49,0.16,-0.49,0.49,0.48,0.52,0.65,0.65,0.65
507.55,0.12,-0.52,0.12,-0.52,0.52,0.52,0.54,0.64,0.64,0.64
512.62,0.08,-0.55,0.08,-0.55,0.55,0.55,0.57,0.63,0.63,0.63
517.75,0.04,-0.58,0.04,-0.58,0.58,0.59,0.59,0.62,0.62,0.62
522.93,-0.00,-0.61,-0.01,-0.62,0.62,0.62,0.61,0.61,0.61,0.61
528.16,-0.05,-0.65,-0.05,-0.65,0.65,0.66,0.64,0.60,0.60,0.60
