frequency,raw,error,smoothed,error_smoothed,equalization,parametric_eq,fixed_band_eq,equalized_raw,equalized_smoothed,target
20.00,10.48,10.33,10.48,10.32,-10.25,-9.68,-4.25,0.22,0.22,0.15
20.20,10.47,10.29,10.47,10.30,-10.28,-9.99,-4.36,0.19,0.19,0.18
20.40,10.47,10.27,10.47,10.27,-10.29,-10.30,-4.48,0.18,0.18,0.20
20.61,10.48,10.25,10.48,10.25,-10.29,-10.46,-4.60,0.19,0.19,0.23
20.81,10.51,10.22,10.51,10.22,-10.28,-10.61,-4.72,0.23,0.23,0.29
21.02,10.55,10.20,10.55,10.20,-10.25,-10.57,-4.85,0.30,0.30,0.36
21.23,10.60,10.18,10.60,10.18,-10.21,-10.53,-4.98,0.39,0.39,0.42
21.44,10.65,10.16,10.65,10.16,-10.16,-10.36,-5.11,0.49,0.49,0.49
21.66,10.70,10.12,10.70,10.13,-10.10,-10.19,-5.25,0.60,0.60,0.57
21.87,10.74,10.07,10.74,10.07,-10.02,-10.00,-5.39,0.73,0.72,0.67
22.09,10.78,9.97,10.78,9.97,-9.91,-9.81,-5.53,0.86,0.86,0.80
22.31,10.80,9.84,10.80,9.84,-9.79,-9.65,-5.69,1.01,1.01,0.96
22.54,10.81,9.68,10.81,9.68,-9.65,-9.50,-5.84,1.16,1.16,1.13
22.76,10.81,9.51,10.81,9.51,-9.50,-9.38,-5.99,1.31,1.30,1.30
22.99,10.80,9.34,10.79,9.34,-9.37,-9.27,-6.15,1.42,1.42,1.46
23.22,10.77,9.20,10.77,9.21,-9.26,-9.20,-6.32,1.51,1.51,1.57
23.45,10.74,9.12,10.74,9.12,-9.20,-9.13,-6.49,1.54,1.54,1.62
23.69,10.70,9.09,10.70,9.09,-9.17,-9.11,-6.66,1.54,1.54,1.62
23.92,10.67,9.11,10.67,9.12,-9.18,-9.09,-6.84,1.49,1.49,1.55
24.16,10.64,9.19,10.64,9.19,-9.23,-9.12,-7.02,1.41,1.41,1.44
24.40,10.61,9.30,10.61,9.30,-9.29,-9.15,-7.20,1.32,1.32,1.31
24.65,10.58,9.41,10.58,9.41,-9.35,-9.23,-7.39,1.23,1.23,1.17
24.89,10.57,9.50,10.57,9.49,-9.41,-9.31,-7.58,1.16,1.16,1.07
25.14,10.56,9.53,10.56,9.53,-9.45,-9.42,-7.77,1.11,1.11,1.03
25.39,10.55,9.53,10.55,9.52,-9.47,-9.53,-7.97,1.09,1.09,1.02
25.65,10.56,9.48,10.56,9.48,-9.47,-9.63,-8.17,1.09,1.09,1.08
25.91,10.57,9.42,10.57,9.43,-9.46,-9.73,-8.37,1.11,1.11,1.15
26.16,10.59,9.38,10.59,9.38,-9.45,-9.78,-8.57,1.14,1.14,1.21
26.43,10.61,9.36,10.61,9.37,-9.44,-9.81,-8.77,1.17,1.17,1.25
26.69,10.63,9.38,10.63,9.38,-9.43,-9.77,-8.97,1.21,1.21,1.25
26.96,10.66,9.42,10.66,9.42,-9.42,-9.72,-9.18,1.24,1.24,1.24
27.23,10.67,9.45,10.67,9.44,-9.41,-9.61,-9.37,1.27,1.27,1.22
27.50,10.69,9.46,10.69,9.45,-9.39,-9.50,-9.57,1.29,1.29,1.23
27.77,10.70,9.42,10.70,9.42,-9.37,-9.37,-9.76,1.33,1.33,1.27
28.05,10.70,9.36,10.70,9.36,-9.33,-9.25,-9.95,1.37,1.37,1.34
28.33,10.70,9.27,10.70,9.28,-9.29,-9.14,-10.13,1.41,1.41,1.43
28.62,10.70,9.19,10.70,9.19,-9.23,-9.03,-10.30,1.47,1.47,1.51
28.90,10.69,9.12,10.69,9.12,-9.16,-8.94,-10.46,1.53,1.53,1.57
29.19,10.68,9.07,10.68,9.07,-9.09,-8.86,-10.61,1.59,1.59,1.61
29.48,10.66,9.03,10.66,9.02,-9.01,-8.80,-10.74,1.66,1.65,1.64
29.78,10.63,8.97,10.63,8.97,-8.93,-8.74,-10.87,1.71,1.71,1.66
30.08,10.60,8.91,10.60,8.90,-8.85,-8.71,-10.97,1.75,1.75,1.70
30.38,10.57,8.82,10.57,8.81,-8.79,-8.67,-11.06,1.78,1.78,1.75
30.68,10.53,8.71,10.53,8.71,-8.74,-8.65,-11.13,1.79,1.79,1.82
30.99,10.49,8.63,10.49,8.64,-8.71,-8.63,-11.19,1.79,1.79,1.86
31.30,10.46,8.60,10.46,8.60,-8.69,-8.61,-11.21,1.77,1.77,1.87
31.61,10.44,8.61,10.44,8.62,-8.69,-8.60,-11.23,1.75,1.75,1.83
31.93,10.41,8.67,10.41,8.67,-8.69,-8.60,-11.22,1.72,1.72,1.74
32.24,10.39,8.74,10.39,8.74,-8.69,-8.59,-11.20,1.70,1.70,1.65
32.57,10.36,8.79,10.36,8.78,-8.67,-8.59,-11.15,1.69,1.68,1.57
32.89,10.33,8.77,10.33,8.76,-8.65,-8.59,-11.10,1.68,1.68,1.56
33.22,10.30,8.68,10.30,8.68,-8.61,-8.59,-11.02,1.69,1.69,1.62
33.55,10.27,8.56,10.27,8.56,-8.56,-8.59,-10.93,1.71,1.72,1.72
33.89,10.26,8.43,10.26,8.44,-8.50,-8.60,-10.83,1.75,1.75,1.83
34.23,10.25,8.35,10.25,8.35,-8.45,-8.60,-10.72,1.80,1.80,1.90
34.57,10.25,8.31,10.25,8.32,-8.40,-8.60,-10.60,1.84,1.85,1.93
34.92,10.25,8.34,10.25,8.34,-8.37,-8.60,-10.47,1.88,1.88,1.91
35.27,10.24,8.38,10.24,8.38,-8.36,-8.60,-10.34,1.89,1.89,1.86
35.62,10.24,8.42,10.24,8.41,-8.37,-8.59,-10.20,1.87,1.87,1.82
35.97,10.22,8.43,10.22,8.43,-8.39,-8.59,-10.06,1.83,1.83,1.79
36.33,10.19,8.43,10.20,8.43,-8.41,-8.58,-9.92,1.78,1.78,1.77
36.70,10.17,8.42,10.17,8.43,-8.44,-8.58,-9.77,1.74,1.74,1.75
37.06,10.15,8.43,10.15,8.44,-8.46,-8.57,-9.63,1.69,1.70,1.72
37.43,10.14,8.46,10.14,8.46,-8.47,-8.55,-9.49,1.67,1.67,1.68
37.81,10.14,8.48,10.14,8.48,-8.49,-8.54,-9.34,1.65,1.65,1.66
38.19,10.15,8.51,10.15,8.51,-8.52,-8.52,-9.21,1.63,1.63,1.64
38.57,10.15,8.53,10.15,8.53,-8.54,-8.50,-9.07,1.62,1.61,1.63
38.95,10.15,8.54,10.15,8.55,-8.55,-8.47,-8.94,1.60,1.60,1.60
39.34,10.13,8.56,10.13,8.56,-8.54,-8.45,-8.81,1.59,1.59,1.58
39.74,10.11,8.56,10.11,8.56,-8.52,-8.42,-8.69,1.59,1.59,1.55
40.14,10.09,8.53,10.09,8.53,-8.48,-8.38,-8.57,1.61,1.61,1.56
40.54,10.07,8.47,10.07,8.46,-8.41,-8.34,-8.45,1.65,1.65,1.60
40.94,10.06,8.36,10.06,8.36,-8.34,-8.30,-8.34,1.72,1.72,1.70
41.35,10.05,8.25,10.05,8.25,-8.26,-8.26,-8.24,1.80,1.80,1.81
41.76,10.06,8.14,10.06,8.15,-8.18,-8.21,-8.14,1.88,1.88,1.92
42.18,10.06,8.07,10.06,8.06,-8.11,-8.16,-8.05,1.96,1.96,2.00
42.60,10.06,8.01,10.06,8.01,-8.06,-8.10,-7.96,2.01,2.01,2.05
43.03,10.05,7.98,10.05,7.98,-8.03,-8.05,-7.88,2.02,2.02,2.07
43.46,10.02,7.97,10.02,7.97,-8.02,-7.99,-7.80,2.00,2.00,2.05
43.90,9.98,7.98,9.98,7.99,-8.02,-7.93,-7.73,1.96,1.96,2.00
44.33,9.94,8.02,9.94,8.02,-8.01,-7.87,-7.67,1.92,1.92,1.92
44.78,9.89,8.05,9.89,8.05,-7.99,-7.81,-7.61,1.91,1.91,1.84
45.23,9.85,8.06,9.85,8.04,-7.93,-7.76,-7.55,1.91,1.91,1.79
45.68,9.81,7.98,9.81,7.97,-7.85,-7.70,-7.50,1.95,1.95,1.83
46.13,9.77,7.83,9.77,7.83,-7.76,-7.66,-7.46,2.01,2.01,1.94
46.60,9.74,7.64,9.74,7.65,-7.65,-7.61,-7.42,2.08,2.08,2.09
47.06,9.71,7.48,9.71,7.48,-7.55,-7.58,-7.39,2.16,2.16,2.23
47.53,9.68,7.34,9.68,7.36,-7.47,-7.55,-7.36,2.21,2.22,2.34
48.01,9.66,7.30,9.66,7.31,-7.41,-7.52,-7.34,2.25,2.25,2.36
48.49,9.64,7.31,9.64,7.31,-7.39,-7.50,-7.32,2.25,2.25,2.33
48.97,9.62,7.37,9.62,7.37,-7.40,-7.49,-7.31,2.22,2.22,2.25
49.46,9.59,7.44,9.59,7.44,-7.43,-7.47,-7.30,2.16,2.16,2.15
49.96,9.56,7.51,9.56,7.51,-7.46,-7.46,-7.29,2.10,2.10,2.05
50.46,9.53,7.55,9.54,7.55,-7.48,-7.46,-7.29,2.05,2.05,1.98
50.96,9.51,7.56,9.51,7.56,-7.48,-7.45,-7.29,2.03,2.03,1.94
51.47,9.48,7.53,9.48,7.52,-7.44,-7.44,-7.30,2.04,2.04,1.95
51.99,9.45,7.43,9.45,7.43,-7.37,-7.43,-7.30,2.08,2.08,2.02
52.51,9.42,7.31,9.42,7.30,-7.29,-7.42,-7.31,2.13,2.13,2.11
53.03,9.38,7.17,9.38,7.17,-7.21,-7.40,-7.32,2.17,2.17,2.22
53.56,9.35,7.06,9.35,7.06,-7.14,-7.39,-7.33,2.20,2.20,2.29
54.10,9.31,7.00,9.31,7.01,-7.09,-7.37,-7.35,2.21,2.21,2.31
54.64,9.27,7.00,9.27,7.01,-7.07,-7.35,-7.36,2.19,2.19,2.27
55.18,9.23,7.06,9.23,7.06,-7.09,-7.32,-7.37,2.14,2.15,2.17
55.74,9.20,7.14,9.20,7.13,-7.13,-7.30,-7.38,2.07,2.07,2.06
56.29,9.18,7.21,9.17,7.21,-7.19,-7.27,-7.39,1.98,1.98,1.96
56.86,9.15,7.28,9.15,7.29,-7.26,-7.24,-7.40,1.89,1.89,1.87
57.42,9.12,7.35,9.12,7.35,-7.33,-7.21,-7.41,1.79,1.79,1.78
58.00,9.10,7.41,9.10,7.40,-7.38,-7.18,-7.41,1.71,1.71,1.69
58.58,9.07,7.43,9.07,7.43,-7.41,-7.14,-7.41,1.66,1.66,1.64
59.16,9.04,7.44,9.04,7.43,-7.42,-7.11,-7.40,1.62,1.62,1.60
59.76,9.01,7.41,9.01,7.41,-7.39,-7.07,-7.40,1.62,1.62,1.60
60.35,8.98,7.36,8.98,7.36,-7.34,-7.04,-7.38,1.64,1.64,1.62
60.96,8.95,7.29,8.95,7.29,-7.26,-7.00,-7.36,1.68,1.68,1.66
61.57,8.91,7.19,8.91,7.19,-7.17,-6.96,-7.34,1.75,1.75,1.73
62.18,8.88,7.07,8.88,7.07,-7.05,-6.92,-7.31,1.83,1.83,1.82
62.80,8.85,6.93,8.85,6.94,-6.94,-6.88,-7.27,1.91,1.91,1.91
63.43,8.81,6.81,8.81,6.81,-6.83,-6.84,-7.23,1.98,1.98,2.00
64.07,8.78,6.70,8.78,6.70,-6.74,-6.80,-7.18,2.04,2.04,2.08
64.71,8.74,6.61,8.74,6.61,-6.66,-6.75,-7.13,2.08,2.08,2.12
65.35,8.70,6.56,8.70,6.56,-6.60,-6.71,-7.07,2.10,2.10,2.14
66.01,8.66,6.52,8.66,6.53,-6.56,-6.67,-7.00,2.10,2.10,2.14
66.67,8.62,6.53,8.62,6.53,-6.53,-6.63,-6.93,2.09,2.09,2.08
67.33,8.58,6.54,8.58,6.54,-6.50,-6.58,-6.86,2.07,2.07,2.03
68.01,8.54,6.55,8.54,6.54,-6.49,-6.54,-6.78,2.05,2.05,1.99
68.69,8.50,6.51,8.50,6.51,-6.47,-6.50,-6.70,2.03,2.03,1.98
69.37,8.46,6.47,8.46,6.46,-6.46,-6.45,-6.62,2.01,2.01,2.00
70.07,8.43,6.41,8.43,6.41,-6.44,-6.41,-6.53,1.98,1.98,2.02
70.77,8.39,6.37,8.39,6.38,-6.43,-6.37,-6.44,1.96,1.96,2.02
71.48,8.35,6.36,8.35,6.37,-6.41,-6.33,-6.35,1.94,1.94,1.99
72.19,8.31,6.37,8.31,6.38,-6.39,-6.28,-6.26,1.92,1.92,1.94
72.91,8.27,6.39,8.27,6.39,-6.37,-6.24,-6.17,1.90,1.90,1.88
73.64,8.22,6.39,8.22,6.38,-6.34,-6.20,-6.08,1.89,1.89,1.84
74.38,8.17,6.35,8.17,6.35,-6.30,-6.15,-5.99,1.88,1.88,1.83
75.12,8.12,6.28,8.12,6.28,-6.25,-6.11,-5.90,1.87,1.87,1.84
75.87,8.07,6.20,8.07,6.20,-6.19,-6.07,-5.81,1.88,1.88,1.88
76.63,8.02,6.11,8.02,6.11,-6.12,-6.03,-5.72,1.90,1.90,1.91
77.40,7.97,6.03,7.97,6.03,-6.05,-5.98,-5.63,1.92,1.92,1.94
78.17,7.92,5.96,7.92,5.96,-5.99,-5.94,-5.55,1.94,1.94,1.96
78.95,7.88,5.90,7.88,5.90,-5.93,-5.90,-5.47,1.95,1.95,1.98
79.74,7.83,5.85,7.83,5.85,-5.88,-5.86,-5.39,1.96,1.96,1.98
80.54,7.79,5.82,7.79,5.82,-5.83,-5.81,-5.31,1.96,1.96,1.97
81.35,7.75,5.79,7.74,5.80,-5.79,-5.77,-5.24,1.96,1.96,1.95
82.16,7.70,5.77,7.69,5.77,-5.74,-5.73,-5.16,1.96,1.96,1.93
82.98,7.64,5.73,7.64,5.73,-5.69,-5.69,-5.10,1.95,1.95,1.91
83.81,7.58,5.68,7.58,5.67,-5.64,-5.65,-5.03,1.95,1.95,1.91
84.65,7.53,5.59,7.53,5.59,-5.59,-5.60,-4.97,1.94,1.94,1.94
85.50,7.47,5.50,7.47,5.51,-5.54,-5.56,-4.91,1.93,1.93,1.97
86.35,7.43,5.43,7.44,5.44,-5.49,-5.52,-4.86,1.94,1.94,2.00
87.22,7.41,5.41,7.41,5.41,-5.45,-5.48,-4.81,1.96,1.96,2.00
88.09,7.39,5.40,7.39,5.40,-5.40,-5.43,-4.76,1.99,1.99,1.99
88.97,7.38,5.39,7.38,5.39,-5.35,-5.39,-4.72,2.02,2.02,1.99
89.86,7.36,5.37,7.35,5.36,-5.31,-5.35,-4.68,2.04,2.04,1.99
90.76,7.31,5.31,7.31,5.30,-5.28,-5.31,-4.64,2.04,2.03,2.01
91.66,7.25,5.23,7.25,5.23,-5.24,-5.26,-4.61,2.01,2.01,2.03
92.58,7.18,5.15,7.18,5.16,-5.20,-5.22,-4.58,1.99,1.99,2.04
93.51,7.11,5.10,7.11,5.10,-5.14,-5.18,-4.55,1.96,1.96,2.01
94.44,7.02,5.06,7.02,5.06,-5.07,-5.13,-4.53,1.95,1.95,1.96
95.39,6.93,5.03,6.93,5.03,-4.98,-5.09,-4.50,1.95,1.95,1.90
96.34,6.84,4.98,6.84,4.97,-4.89,-5.05,-4.49,1.95,1.95,1.86
97.30,6.75,4.88,6.74,4.87,-4.80,-5.00,-4.47,1.95,1.95,1.87
98.28,6.64,4.74,6.63,4.73,-4.71,-4.96,-4.46,1.93,1.92,1.90
99.26,6.52,4.58,6.52,4.59,-4.64,-4.91,-4.45,1.88,1.88,1.93
100.25,6.42,4.46,6.44,4.47,-4.58,-4.87,-4.44,1.84,1.85,1.97
101.25,6.40,4.41,6.41,4.43,-4.54,-4.82,-4.44,1.86,1.87,1.98
102.27,6.45,4.46,6.45,4.46,-4.51,-4.78,-4.43,1.93,1.94,1.99
103.29,6.52,4.52,6.51,4.52,-4.50,-4.73,-4.43,2.02,2.02,2.00
104.32,6.58,4.58,6.57,4.56,-4.49,-4.68,-4.43,2.09,2.08,2.01
105.37,6.59,4.57,6.59,4.57,-4.49,-4.64,-4.43,2.10,2.10,2.02
106.42,6.57,4.54,6.56,4.54,-4.48,-4.59,-4.43,2.09,2.09,2.03
107.48,6.51,4.48,6.51,4.48,-4.46,-4.54,-4.43,2.06,2.06,2.03
108.56,6.45,4.40,6.45,4.41,-4.42,-4.50,-4.44,2.02,2.03,2.04
109.64,6.39,4.33,6.39,4.34,-4.38,-4.45,-4.44,2.01,2.02,2.05
110.74,6.34,4.28,6.34,4.28,-4.32,-4.40,-4.44,2.01,2.02,2.06
111.85,6.30,4.25,6.30,4.25,-4.28,-4.35,-4.44,2.02,2.02,2.05
112.97,6.26,4.23,6.26,4.23,-4.23,-4.31,-4.44,2.02,2.02,2.02
114.10,6.21,4.22,6.21,4.21,-4.20,-4.26,-4.44,2.02,2.01,1.99
115.24,6.16,4.19,6.16,4.19,-4.17,-4.21,-4.43,1.99,1.99,1.97
116.39,6.10,4.15,6.10,4.15,-4.14,-4.16,-4.43,1.96,1.96,1.94
117.55,6.03,4.12,6.03,4.12,-4.12,-4.11,-4.42,1.92,1.92,1.92
118.73,5.97,4.08,5.97,4.08,-4.09,-4.06,-4.41,1.88,1.88,1.89
119.92,5.91,4.04,5.91,4.04,-4.06,-4.01,-4.39,1.85,1.85,1.86
121.12,5.85,4.01,5.85,4.02,-4.03,-3.96,-4.37,1.82,1.82,1.83
122.33,5.80,3.99,5.80,3.99,-3.99,-3.91,-4.35,1.80,1.80,1.81
123.55,5.75,3.96,5.75,3.96,-3.95,-3.86,-4.32,1.79,1.79,1.78
124.79,5.70,3.93,5.70,3.93,-3.91,-3.81,-4.29,1.79,1.79,1.77
126.03,5.64,3.88,5.64,3.88,-3.86,-3.76,-4.26,1.78,1.78,1.76
127.29,5.58,3.82,5.59,3.82,-3.80,-3.71,-4.22,1.78,1.78,1.77
128.57,5.53,3.74,5.53,3.74,-3.74,-3.66,-4.18,1.78,1.79,1.78
129.85,5.47,3.67,5.47,3.67,-3.67,-3.61,-4.14,1.80,1.80,1.81
131.15,5.42,3.59,5.42,3.59,-3.60,-3.56,-4.09,1.81,1.81,1.83
132.46,5.36,3.52,5.36,3.52,-3.53,-3.51,-4.03,1.83,1.83,1.84
133.79,5.31,3.47,5.31,3.46,-3.47,-3.46,-3.98,1.84,1.84,1.85
135.12,5.25,3.41,5.25,3.40,-3.40,-3.42,-3.92,1.85,1.85,1.85
136.48,5.19,3.34,5.19,3.34,-3.34,-3.37,-3.86,1.85,1.85,1.84
137.84,5.13,3.28,5.13,3.28,-3.29,-3.32,-3.79,1.84,1.84,1.84
139.22,5.07,3.23,5.07,3.23,-3.24,-3.27,-3.73,1.83,1.84,1.84
140.61,5.02,3.18,5.02,3.18,-3.18,-3.22,-3.66,1.83,1.83,1.84
142.02,4.97,3.14,4.97,3.14,-3.14,-3.17,-3.59,1.84,1.84,1.84
143.44,4.93,3.09,4.93,3.09,-3.09,-3.12,-3.52,1.84,1.84,1.83
144.87,4.88,3.04,4.88,3.04,-3.04,-3.07,-3.44,1.84,1.84,1.83
146.32,4.82,2.99,4.82,2.99,-2.99,-3.03,-3.37,1.83,1.83,1.83
147.78,4.77,2.94,4.77,2.94,-2.94,-2.98,-3.30,1.82,1.82,1.82
149.26,4.70,2.89,4.71,2.89,-2.89,-2.93,-3.22,1.81,1.81,1.81
150.75,4.64,2.84,4.64,2.84,-2.84,-2.89,-3.15,1.80,1.80,1.80
152.26,4.58,2.79,4.58,2.79,-2.79,-2.84,-3.07,1.79,1.79,1.79
153.78,4.51,2.74,4.51,2.74,-2.73,-2.79,-3.00,1.78,1.78,1.77
155.32,4.45,2.68,4.45,2.68,-2.68,-2.75,-2.92,1.77,1.77,1.76
156.88,4.38,2.63,4.38,2.63,-2.63,-2.70,-2.85,1.75,1.75,1.75
158.44,4.32,2.58,4.32,2.58,-2.58,-2.66,-2.78,1.74,1.74,1.74
160.03,4.25,2.53,4.25,2.53,-2.53,-2.62,-2.71,1.72,1.72,1.73
161.63,4.20,2.49,4.20,2.49,-2.49,-2.57,-2.64,1.71,1.71,1.71
163.24,4.15,2.45,4.15,2.45,-2.45,-2.53,-2.57,1.69,1.69,1.70
164.88,4.10,2.42,4.11,2.42,-2.42,-2.49,-2.50,1.68,1.68,1.68
166.53,4.07,2.40,4.07,2.40,-2.40,-2.44,-2.43,1.67,1.67,1.68
168.19,4.05,2.38,4.05,2.38,-2.38,-2.40,-2.37,1.66,1.66,1.67
169.87,4.02,2.36,4.02,2.36,-2.37,-2.36,-2.30,1.66,1.66,1.66
171.57,4.00,2.35,4.00,2.35,-2.35,-2.32,-2.24,1.65,1.65,1.65
173.29,3.99,2.34,3.99,2.34,-2.34,-2.28,-2.18,1.64,1.64,1.64
175.02,3.96,2.34,3.96,2.33,-2.33,-2.24,-2.12,1.64,1.64,1.63
176.77,3.93,2.32,3.93,2.32,-2.31,-2.20,-2.06,1.62,1.62,1.61
178.54,3.90,2.30,3.90,2.30,-2.29,-2.16,-2.00,1.61,1.61,1.60
180.32,3.86,2.27,3.86,2.27,-2.27,-2.12,-1.95,1.59,1.59,1.58
182.13,3.81,2.24,3.81,2.24,-2.24,-2.09,-1.90,1.57,1.57,1.57
183.95,3.76,2.20,3.76,2.20,-2.21,-2.05,-1.84,1.56,1.56,1.56
185.79,3.71,2.17,3.71,2.17,-2.17,-2.01,-1.79,1.54,1.54,1.54
187.65,3.66,2.13,3.66,2.13,-2.13,-1.98,-1.74,1.53,1.53,1.53
189.52,3.60,2.09,3.60,2.09,-2.09,-1.94,-1.70,1.51,1.51,1.51
191.42,3.55,2.05,3.54,2.05,-2.05,-1.91,-1.65,1.50,1.50,1.49
193.33,3.49,2.01,3.49,2.01,-2.01,-1.87,-1.60,1.48,1.48,1.48
195.27,3.43,1.97,3.43,1.97,-1.97,-1.84,-1.56,1.46,1.46,1.46
197.22,3.37,1.93,3.37,1.92,-1.92,-1.80,-1.52,1.44,1.44,1.44
199.19,3.31,1.88,3.31,1.88,-1.88,-1.77,-1.47,1.43,1.43,1.43
201.18,3.26,1.84,3.26,1.84,-1.84,-1.74,-1.43,1.41,1.41,1.42
203.19,3.20,1.80,3.20,1.80,-1.80,-1.71,-1.40,1.40,1.40,1.40
205.23,3.15,1.77,3.15,1.77,-1.77,-1.67,-1.36,1.38,1.38,1.38
207.28,3.10,1.73,3.10,1.73,-1.73,-1.64,-1.32,1.37,1.37,1.37
209.35,3.04,1.70,3.04,1.70,-1.69,-1.61,-1.29,1.35,1.35,1.35
211.44,2.99,1.66,2.99,1.66,-1.66,-1.58,-1.25,1.33,1.33,1.33
213.56,2.94,1.62,2.94,1.62,-1.62,-1.55,-1.22,1.32,1.32,1.32
215.69,2.89,1.59,2.89,1.59,-1.59,-1.52,-1.18,1.30,1.30,1.30
217.85,2.84,1.55,2.83,1.55,-1.55,-1.49,-1.15,1.29,1.29,1.29
220.03,2.78,1.51,2.78,1.51,-1.51,-1.47,-1.12,1.27,1.27,1.27
222.23,2.73,1.48,2.73,1.48,-1.48,-1.44,-1.09,1.25,1.25,1.25
224.45,2.67,1.44,2.67,1.44,-1.44,-1.41,-1.07,1.23,1.23,1.23
226.70,2.62,1.40,2.62,1.40,-1.40,-1.38,-1.04,1.21,1.21,1.22
228.96,2.56,1.37,2.56,1.37,-1.37,-1.36,-1.01,1.19,1.19,1.19
231.25,2.51,1.34,2.51,1.34,-1.34,-1.33,-0.99,1.17,1.17,1.17
233.57,2.46,1.30,2.46,1.30,-1.31,-1.31,-0.96,1.15,1.15,1.15
235.90,2.41,1.28,2.41,1.27,-1.27,-1.28,-0.94,1.13,1.13,1.13
238.26,2.36,1.25,2.36,1.25,-1.24,-1.26,-0.91,1.11,1.11,1.11
240.64,2.31,1.22,2.31,1.22,-1.21,-1.23,-0.89,1.09,1.09,1.09
243.05,2.26,1.19,2.26,1.19,-1.19,-1.21,-0.87,1.07,1.07,1.07
245.48,2.21,1.16,2.21,1.16,-1.16,-1.19,-0.85,1.05,1.05,1.05
247.93,2.16,1.13,2.16,1.13,-1.13,-1.16,-0.83,1.03,1.03,1.03
250.41,2.11,1.10,2.11,1.10,-1.11,-1.14,-0.81,1.00,1.00,1.01
252.92,2.06,1.08,2.06,1.08,-1.08,-1.12,-0.79,0.98,0.98,0.98
255.45,2.02,1.05,2.02,1.05,-1.05,-1.10,-0.77,0.96,0.96,0.96
258.00,1.97,1.03,1.97,1.03,-1.02,-1.08,-0.76,0.94,0.94,0.94
260.58,1.92,1.00,1.92,1.00,-1.00,-1.06,-0.74,0.92,0.92,0.92
263.19,1.87,0.97,1.87,0.97,-0.97,-1.04,-0.73,0.90,0.90,0.90
265.82,1.82,0.94,1.82,0.94,-0.94,-1.02,-0.71,0.88,0.88,0.88
268.48,1.77,0.91,1.77,0.91,-0.91,-1.00,-0.70,0.86,0.86,0.86
271.16,1.72,0.88,1.72,0.88,-0.89,-0.98,-0.68,0.83,0.83,0.83
273.87,1.67,0.86,1.67,0.86,-0.86,-0.96,-0.67,0.81,0.81,0.81
276.61,1.62,0.83,1.62,0.83,-0.84,-0.94,-0.66,0.78,0.78,0.79
279.38,1.57,0.81,1.57,0.81,-0.81,-0.92,-0.64,0.76,0.76,0.76
282.17,1.53,0.79,1.53,0.79,-0.79,-0.90,-0.63,0.74,0.74,0.74
284.99,1.49,0.77,1.49,0.77,-0.77,-0.88,-0.62,0.72,0.72,0.71
287.84,1.44,0.75,1.44,0.75,-0.75,-0.87,-0.61,0.69,0.69,0.69
290.72,1.40,0.74,1.40,0.74,-0.73,-0.85,-0.60,0.67,0.67,0.66
293.63,1.36,0.71,1.36,0.71,-0.71,-0.83,-0.59,0.64,0.64,0.64
296.57,1.31,0.69,1.31,0.69,-0.69,-0.82,-0.58,0.62,0.62,0.62
299.53,1.27,0.67,1.27,0.67,-0.68,-0.80,-0.57,0.59,0.59,0.59
302.53,1.22,0.66,1.22,0.66,-0.66,-0.78,-0.57,0.56,0.57,0.57
305.55,1.18,0.64,1.18,0.64,-0.64,-0.77,-0.56,0.54,0.54,0.54
308.61,1.13,0.62,1.13,0.62,-0.62,-0.75,-0.55,0.51,0.51,0.51
311.69,1.09,0.60,1.09,0.60,-0.60,-0.74,-0.54,0.49,0.49,0.49
314.81,1.05,0.59,1.05,0.59,-0.59,-0.72,-0.54,0.46,0.46,0.46
317.96,1.01,0.57,1.01,0.57,-0.57,-0.71,-0.53,0.44,0.44,0.44
321.14,0.97,0.56,0.97,0.55,-0.55,-0.70,-0.53,0.41,0.41,0.41
324.35,0.93,0.54,0.93,0.54,-0.54,-0.68,-0.52,0.39,0.39,0.39
327.59,0.88,0.52,0.88,0.52,-0.52,-0.67,-0.52,0.36,0.36,0.36
330.87,0.84,0.51,0.84,0.51,-0.51,-0.66,-0.51,0.33,0.33,0.33
334.18,0.80,0.49,0.80,0.49,-0.49,-0.64,-0.51,0.31,0.31,0.31
337.52,0.76,0.48,0.76,0.48,-0.48,-0.63,-0.50,0.28,0.28,0.28
340.90,0.72,0.47,0.72,0.47,-0.47,-0.62,-0.50,0.25,0.25,0.25
344.30,0.68,0.45,0.68,0.45,-0.45,-0.61,-0.50,0.23,0.23,0.23
347.75,0.64,0.44,0.64,0.44,-0.44,-0.59,-0.49,0.20,0.20,0.20
351.23,0.60,0.43,0.60,0.43,-0.43,-0.58,-0.49,0.17,0.17,0.17
354.74,0.56,0.42,0.56,0.42,-0.42,-0.57,-0.49,0.14,0.14,0.14
358.28,0.52,0.41,0.52,0.41,-0.41,-0.56,-0.49,0.11,0.11,0.11
361.87,0.48,0.40,0.48,0.40,-0.40,-0.55,-0.49,0.08,0.08,0.08
365.49,0.44,0.39,0.44,0.39,-0.39,-0.54,-0.49,0.05,0.06,0.06
369.14,0.41,0.38,0.41,0.38,-0.38,-0.53,-0.48,0.03,0.03,0.03
372.83,0.37,0.37,0.37,0.37,-0.37,-0.52,-0.48,-0.00,-0.00,-0.00
376.56,0.33,0.36,0.33,0.36,-0.36,-0.51,-0.48,-0.03,-0.03,-0.03
380.33,0.30,0.36,0.30,0.36,-0.36,-0.50,-0.48,-0.06,-0.06,-0.06
384.13,0.26,0.35,0.26,0.35,-0.35,-0.49,-0.48,-0.09,-0.09,-0.09
387.97,0.23,0.34,0.23,0.34,-0.35,-0.48,-0.48,-0.12,-0.12,-0.12
391.85,0.19,0.34,0.19,0.34,-0.34,-0.47,-0.48,-0.15,-0.15,-0.15
395.77,0.16,0.34,0.16,0.34,-0.33,-0.46,-0.48,-0.18,-0.18,-0.18
399.73,0.13,0.33,0.13,0.33,-0.33,-0.45,-0.49,-0.20,-0.20,-0.21
403.72,0.09,0.33,0.09,0.33,-0.33,-0.44,-0.49,-0.23,-0.23,-0.23
407.76,0.06,0.32,0.06,0.32,-0.32,-0.43,-0.49,-0.26,-0.26,-0.26
411.84,0.03,0.32,0.03,0.32,-0.32,-0.43,-0.49,-0.29,-0.29,-0.29
415.96,-0.01,0.31,-0.01,0.31,-0.31,-0.42,-0.49,-0.32,-0.32,-0.32
420.12,-0.04,0.31,-0.04,0.31,-0.31,-0.41,-0.49,-0.35,-0.35,-0.35
424.32,-0.07,0.31,-0.07,0.31,-0.31,-0.40,-0.49,-0.37,-0.37,-0.37
428.56,-0.10,0.31,-0.10,0.31,-0.31,-0.40,-0.49,-0.40,-0.40,-0.40
432.85,-0.13,0.31,-0.13,0.31,-0.30,-0.39,-0.49,-0.43,-0.43,-0.43
437.18,-0.16,0.30,-0.16,0.30,-0.30,-0.38,-0.50,-0.46,-0.46,-0.46
441.55,-0.19,0.30,-0.19,0.30,-0.30,-0.38,-0.50,-0.49,-0.49,-0.49
445.96,-0.22,0.30,-0.22,0.30,-0.30,-0.37,-0.50,-0.52,-0.52,-0.52
450.42,-0.25,0.30,-0.25,0.30,-0.30,-0.36,-0.50,-0.55,-0.55,-0.55
454.93,-0.28,0.30,-0.28,0.30,-0.30,-0.36,-0.50,-0.58,-0.58,-0.58
459.48,-0.31,0.30,-0.31,0.30,-0.30,-0.35,-0.50,-0.61,-0.61,-0.61
464.07,-0.34,0.30,-0.34,0.30,-0.30,-0.35,-0.50,-0.64,-0.64,-0.64
468.71,-0.37,0.30,-0.37,0.30,-0.30,-0.34,-0.49,-0.67,-0.67,-0.67
473.40,-0.39,0.30,-0.39,0.30,-0.30,-0.34,-0.49,-0.70,-0.70,-0.70
478.13,-0.42,0.31,-0.42,0.31,-0.31,-0.33,-0.49,-0.73,-0.73,-0.73
482.91,-0.45,0.31,-0.45,0.31,-0.31,-0.33,-0.49,-0.75,-0.75,-0.76
487.74,-0.47,0.31,-0.47,0.31,-0.31,-0.33,-0.49,-0.78,-0.78,-0.78
492.62,-0.50,0.31,-0.50,0.31,-0.31,-0.32,-0.48,-0.81,-0.81,-0.81
497.55,-0.53,0.32,-0.53,0.32,-0.32,-0.32,-0.48,-0.84,-0.84,-0.84
502.52,-0.55,0.32,-0.55,0.32,-0.32,-0.32,-0.47,-0.87,-0.87,-0.87
507.55,-0.58,0.33,-0.58,0.33,-0.33,-0.32,-0.47,-0.90,-0.90,-0.90
512.62,-0.60,0.33,-0.60,0.33,-0.33,-0.31,-0.46,-0.93,-0.93,-0.93
