frequency,raw,error,smoothed,error_smoothed,equalization,parametric_eq,fixed_band_eq,equalized_raw,equalized_smoothed,target
20.00,9.51,5.26,9.51,5.24,-5.26,-0.00,-1.50,4.25,4.25,4.25
20.20,9.48,5.18,9.48,5.19,-5.19,-0.00,-1.54,4.29,4.28,4.30
20.40,9.45,5.10,9.45,5.13,-5.13,-0.00,-1.59,4.32,4.32,4.35
20.61,9.42,5.07,9.42,5.07,-5.07,-0.00,-1.63,4.35,4.35,4.35
20.81,9.39,5.04,9.39,5.02,-5.00,-0.00,-1.68,4.38,4.38,4.35
21.02,9.36,4.97,9.36,4.96,-4.94,-0.00,-1.73,4.41,4.41,4.39
21.23,9.33,4.87,9.33,4.88,-4.88,-0.00,-1.79,4.45,4.45,4.45
21.44,9.30,4.79,9.30,4.80,-4.82,-0.00,-1.84,4.48,4.48,4.51
21.66,9.28,4.73,9.28,4.74,-4.75,-0.00,-1.90,4.52,4.52,4.55
21.87,9.26,4.71,9.26,4.68,-4.69,-0.00,-1.95,4.56,4.56,4.55
22.09,9.24,4.63,9.24,4.64,-4.63,-0.00,-2.01,4.60,4.60,4.61
22.31,9.22,4.57,9.22,4.58,-4.57,-0.00,-2.07,4.64,4.64,4.65
22.54,9.19,4.53,9.19,4.51,-4.51,-0.00,-2.13,4.68,4.68,4.66
22.76,9.17,4.44,9.17,4.46,-4.45,-0.00,-2.20,4.72,4.72,4.73
22.99,9.14,4.40,9.14,4.40,-4.39,-0.00,-2.26,4.75,4.75,4.75
23.22,9.12,4.36,9.12,4.33,-4.33,-0.00,-2.33,4.79,4.79,4.75
23.45,9.09,4.26,9.09,4.26,-4.27,-0.00,-2.39,4.83,4.83,4.83
23.69,9.08,4.17,9.08,4.19,-4.21,-0.00,-2.46,4.87,4.87,4.91
23.92,9.06,4.11,9.06,4.13,-4.15,-0.00,-2.53,4.91,4.91,4.95
24.16,9.05,4.11,9.05,4.08,-4.08,-0.00,-2.60,4.97,4.97,4.95
24.40,9.05,4.03,9.05,4.03,-4.02,-0.00,-2.68,5.03,5.03,5.01
24.65,9.04,3.96,9.04,3.97,-3.94,-0.00,-2.75,5.10,5.10,5.08
24.89,9.03,3.89,9.03,3.89,-3.87,-0.00,-2.82,5.16,5.16,5.15
25.14,9.02,3.81,9.02,3.81,-3.79,-0.00,-2.90,5.23,5.23,5.21
25.39,9.00,3.72,9.00,3.71,-3.71,-0.00,-2.97,5.29,5.29,5.28
25.65,8.97,3.61,8.97,3.61,-3.63,-0.00,-3.05,5.34,5.34,5.36
25.91,8.94,3.52,8.94,3.54,-3.55,-0.00,-3.12,5.39,5.39,5.42
26.16,8.91,3.47,8.91,3.47,-3.48,-0.00,-3.20,5.43,5.43,5.45
26.43,8.89,3.43,8.89,3.41,-3.42,-0.00,-3.27,5.47,5.47,5.45
26.69,8.86,3.35,8.86,3.36,-3.36,-0.00,-3.34,5.50,5.50,5.52
26.96,8.84,3.30,8.85,3.31,-3.32,-0.00,-3.41,5.52,5.53,5.55
27.23,8.83,3.28,8.83,3.28,-3.28,-0.00,-3.48,5.54,5.54,5.55
27.50,8.81,3.26,8.81,3.26,-3.25,-0.00,-3.55,5.56,5.56,5.55
27.77,8.78,3.23,8.78,3.23,-3.22,-0.00,-3.61,5.56,5.56,5.55
28.05,8.75,3.20,8.75,3.20,-3.19,-0.00,-3.67,5.56,5.56,5.55
28.33,8.71,3.16,8.71,3.16,-3.15,-0.00,-3.73,5.55,5.55,5.55
28.62,8.67,3.12,8.67,3.12,-3.12,-0.00,-3.78,5.55,5.55,5.55
28.90,8.62,3.08,8.63,3.08,-3.09,-0.00,-3.83,5.54,5.54,5.55
29.19,8.59,3.04,8.59,3.04,-3.05,-0.01,-3.87,5.54,5.54,5.55
29.48,8.56,3.01,8.56,3.01,-3.02,-0.01,-3.91,5.54,5.54,5.55
29.78,8.53,2.98,8.53,2.98,-2.98,-0.01,-3.94,5.55,5.55,5.55
30.08,8.49,2.95,8.49,2.95,-2.94,-0.01,-3.96,5.55,5.55,5.55
30.38,8.46,2.91,8.46,2.91,-2.90,-0.01,-3.98,5.56,5.56,5.55
30.68,8.42,2.87,8.42,2.87,-2.86,-0.01,-3.99,5.56,5.56,5.55
30.99,8.37,2.83,8.37,2.83,-2.82,-0.01,-4.00,5.56,5.56,5.55
31.30,8.33,2.78,8.33,2.78,-2.78,-0.01,-4.00,5.55,5.55,5.55
31.61,8.28,2.73,8.28,2.73,-2.75,-0.01,-3.99,5.53,5.53,5.55
31.93,8.24,2.69,8.24,2.69,-2.72,-0.01,-3.97,5.52,5.52,5.55
32.24,8.20,2.65,8.20,2.67,-2.70,-0.01,-3.95,5.50,5.50,5.55
32.57,8.17,2.67,8.17,2.67,-2.68,-0.01,-3.92,5.48,5.48,5.49
32.89,8.13,2.69,8.13,2.67,-2.66,-0.01,-3.89,5.47,5.47,5.45
33.22,8.11,2.66,8.11,2.66,-2.64,-0.01,-3.85,5.46,5.46,5.45
33.55,8.08,2.63,8.08,2.64,-2.62,-0.01,-3.80,5.46,5.46,5.45
33.89,8.06,2.61,8.06,2.61,-2.59,-0.01,-3.75,5.47,5.47,5.45
34.23,8.03,2.58,8.03,2.56,-2.55,-0.01,-3.70,5.48,5.48,5.45
34.57,8.00,2.48,8.00,2.50,-2.49,-0.01,-3.63,5.51,5.51,5.52
34.92,7.97,2.43,7.97,2.43,-2.43,-0.01,-3.57,5.54,5.54,5.55
35.27,7.94,2.38,7.94,2.35,-2.37,-0.01,-3.50,5.57,5.57,5.56
35.62,7.90,2.27,7.90,2.29,-2.31,-0.01,-3.43,5.60,5.60,5.63
35.97,7.87,2.22,7.87,2.22,-2.24,-0.01,-3.35,5.63,5.63,5.65
36.33,7.84,2.18,7.85,2.16,-2.17,-0.01,-3.27,5.67,5.67,5.67
36.70,7.82,2.09,7.82,2.11,-2.10,-0.01,-3.19,5.72,5.72,5.73
37.06,7.80,2.05,7.80,2.06,-2.03,-0.01,-3.11,5.77,5.77,5.75
37.43,7.78,2.01,7.77,1.99,-1.96,-0.01,-3.03,5.82,5.82,5.77
37.81,7.74,1.91,7.74,1.90,-1.88,-0.01,-2.95,5.86,5.86,5.83
38.19,7.70,1.79,7.70,1.80,-1.80,-0.01,-2.86,5.90,5.90,5.90
38.57,7.65,1.70,7.65,1.71,-1.72,-0.01,-2.78,5.92,5.92,5.95
38.95,7.60,1.65,7.60,1.65,-1.66,-0.01,-2.70,5.94,5.94,5.95
39.34,7.55,1.61,7.55,1.60,-1.62,-0.01,-2.61,5.93,5.93,5.95
39.74,7.50,1.56,7.50,1.55,-1.60,-0.01,-2.53,5.91,5.91,5.95
40.14,7.46,1.52,7.46,1.53,-1.59,-0.01,-2.45,5.86,5.86,5.94
40.54,7.41,1.54,7.41,1.56,-1.60,-0.01,-2.36,5.81,5.81,5.87
40.94,7.37,1.61,7.37,1.61,-1.61,-0.01,-2.28,5.76,5.76,5.77
41.35,7.34,1.69,7.34,1.66,-1.60,-0.01,-2.20,5.73,5.73,5.65
41.76,7.31,1.66,7.31,1.68,-1.58,-0.01,-2.12,5.73,5.73,5.65
42.18,7.28,1.64,7.28,1.64,-1.55,-0.01,-2.04,5.73,5.73,5.65
42.60,7.26,1.57,7.25,1.54,-1.50,-0.01,-1.97,5.76,5.76,5.68
43.03,7.23,1.40,7.23,1.42,-1.44,-0.01,-1.89,5.79,5.79,5.82
43.46,7.20,1.29,7.20,1.31,-1.37,-0.01,-1.82,5.83,5.83,5.91
43.90,7.17,1.22,7.17,1.22,-1.29,-0.01,-1.74,5.88,5.88,5.95
44.33,7.14,1.19,7.13,1.18,-1.23,-0.01,-1.67,5.91,5.91,5.95
44.78,7.09,1.15,7.09,1.16,-1.17,-0.01,-1.60,5.92,5.92,5.95
45.23,7.05,1.13,7.05,1.14,-1.13,-0.01,-1.53,5.92,5.92,5.91
45.68,7.00,1.15,7.00,1.12,-1.10,-0.01,-1.46,5.90,5.90,5.85
46.13,6.95,1.10,6.95,1.10,-1.07,-0.01,-1.40,5.87,5.88,5.85
46.60,6.91,1.06,6.91,1.07,-1.05,-0.01,-1.33,5.86,5.86,5.85
47.06,6.87,1.02,6.87,1.02,-1.03,-0.01,-1.27,5.84,5.84,5.85
47.53,6.84,0.99,6.84,0.98,-1.00,-0.01,-1.20,5.84,5.84,5.85
48.01,6.80,0.95,6.80,0.96,-0.97,-0.01,-1.14,5.83,5.83,5.85
48.49,6.75,0.92,6.75,0.94,-0.93,-0.01,-1.08,5.82,5.82,5.83
48.97,6.70,0.93,6.70,0.92,-0.90,-0.01,-1.02,5.80,5.80,5.76
49.46,6.65,0.90,6.65,0.89,-0.87,-0.01,-0.97,5.78,5.78,5.75
49.96,6.60,0.85,6.60,0.86,-0.84,-0.01,-0.91,5.76,5.76,5.75
50.46,6.56,0.81,6.56,0.81,-0.83,-0.01,-0.85,5.73,5.73,5.75
50.96,6.53,0.78,6.53,0.79,-0.82,-0.01,-0.80,5.71,5.71,5.75
51.47,6.50,0.78,6.50,0.79,-0.82,-0.01,-0.75,5.67,5.67,5.72
51.99,6.47,0.82,6.46,0.81,-0.84,-0.01,-0.69,5.63,5.63,5.65
52.51,6.43,0.84,6.43,0.84,-0.86,-0.01,-0.64,5.57,5.57,5.58
53.03,6.38,0.87,6.38,0.87,-0.88,-0.01,-0.59,5.51,5.51,5.51
53.56,6.33,0.89,6.33,0.89,-0.89,-0.01,-0.55,5.45,5.45,5.44
54.10,6.28,0.91,6.28,0.92,-0.88,-0.01,-0.50,5.40,5.40,5.37
54.64,6.23,0.92,6.23,0.92,-0.86,-0.01,-0.46,5.37,5.37,5.30
55.18,6.17,0.92,6.17,0.88,-0.82,-0.01,-0.41,5.35,5.35,5.26
55.74,6.12,0.79,6.12,0.79,-0.77,-0.01,-0.37,5.35,5.35,5.33
56.29,6.06,0.67,6.06,0.68,-0.71,-0.01,-0.33,5.36,5.35,5.40
56.86,6.00,0.56,6.00,0.57,-0.64,-0.01,-0.29,5.37,5.37,5.45
57.42,5.95,0.51,5.95,0.50,-0.56,-0.01,-0.25,5.39,5.39,5.45
58.00,5.90,0.46,5.91,0.46,-0.47,-0.01,-0.21,5.43,5.43,5.45
58.58,5.87,0.43,5.87,0.43,-0.39,-0.01,-0.18,5.48,5.48,5.45
59.16,5.84,0.40,5.84,0.38,-0.32,-0.01,-0.15,5.52,5.52,5.45
59.76,5.82,0.31,5.82,0.31,-0.26,-0.01,-0.12,5.55,5.55,5.51
60.35,5.79,0.22,5.79,0.22,-0.22,-0.01,-0.09,5.57,5.57,5.57
60.96,5.77,0.12,5.77,0.14,-0.18,-0.01,-0.06,5.58,5.58,5.64
61.57,5.74,0.09,5.74,0.10,-0.16,-0.01,-0.03,5.58,5.58,5.65
62.18,5.71,0.11,5.71,0.10,-0.15,-0.01,-0.01,5.56,5.56,5.60
62.80,5.68,0.14,5.68,0.14,-0.16,-0.01,0.02,5.52,5.52,5.54
63.43,5.65,0.17,5.65,0.17,-0.17,-0.01,0.04,5.48,5.48,5.47
64.07,5.61,0.21,5.61,0.21,-0.19,-0.01,0.06,5.43,5.42,5.41
64.71,5.57,0.24,5.58,0.24,-0.20,-0.01,0.08,5.37,5.37,5.33
65.35,5.54,0.27,5.54,0.26,-0.21,-0.01,0.09,5.32,5.32,5.26
66.01,5.50,0.25,5.50,0.25,-0.21,-0.01,0.11,5.28,5.28,5.25
66.67,5.45,0.21,5.45,0.21,-0.20,-0.01,0.12,5.25,5.25,5.25
67.33,5.41,0.16,5.41,0.16,-0.19,-0.01,0.14,5.22,5.22,5.25
68.01,5.36,0.12,5.36,0.12,-0.17,-0.01,0.15,5.19,5.19,5.25
68.69,5.31,0.09,5.31,0.11,-0.14,-0.01,0.16,5.17,5.17,5.22
69.37,5.26,0.11,5.26,0.11,-0.11,-0.01,0.17,5.15,5.15,5.15
70.07,5.20,0.12,5.20,0.11,-0.08,-0.01,0.18,5.12,5.12,5.08
70.77,5.15,0.10,5.15,0.09,-0.05,-0.01,0.19,5.10,5.10,5.05
71.48,5.09,0.04,5.09,0.04,-0.02,-0.01,0.19,5.07,5.07,5.05
72.19,5.02,-0.02,5.02,-0.03,0.02,-0.01,0.20,5.04,5.04,5.05
72.91,4.96,-0.09,4.96,-0.09,0.07,-0.01,0.21,5.02,5.02,5.05
73.64,4.89,-0.15,4.89,-0.13,0.12,-0.01,0.21,5.00,5.00,5.03
74.38,4.82,-0.15,4.82,-0.16,0.17,-0.01,0.22,4.99,4.99,4.97
75.12,4.75,-0.19,4.76,-0.21,0.21,-0.01,0.22,4.97,4.97,4.95
75.87,4.70,-0.25,4.70,-0.25,0.25,-0.01,0.23,4.94,4.94,4.95
76.63,4.64,-0.30,4.64,-0.28,0.27,-0.01,0.23,4.92,4.92,4.95
77.40,4.60,-0.29,4.60,-0.30,0.28,-0.01,0.23,4.88,4.88,4.89
78.17,4.57,-0.27,4.57,-0.30,0.27,-0.00,0.24,4.84,4.84,4.85
78.95,4.55,-0.29,4.55,-0.27,0.25,-0.00,0.24,4.80,4.80,4.85
79.74,4.54,-0.25,4.54,-0.24,0.22,-0.00,0.24,4.76,4.76,4.79
80.54,4.53,-0.19,4.53,-0.20,0.19,-0.00,0.25,4.71,4.71,4.72
81.35,4.51,-0.14,4.51,-0.14,0.15,-0.00,0.25,4.66,4.66,4.65
82.16,4.48,-0.10,4.48,-0.09,0.13,-0.00,0.26,4.61,4.61,4.58
82.98,4.44,-0.07,4.44,-0.07,0.11,0.00,0.26,4.55,4.55,4.51
83.81,4.39,-0.05,4.39,-0.08,0.11,0.00,0.27,4.51,4.50,4.45
84.65,4.32,-0.13,4.32,-0.11,0.14,0.00,0.27,4.46,4.46,4.45
85.50,4.23,-0.18,4.23,-0.17,0.18,0.01,0.28,4.41,4.41,4.40
86.35,4.12,-0.22,4.11,-0.23,0.23,0.01,0.28,4.35,4.35,4.33
87.22,3.99,-0.28,3.99,-0.28,0.29,0.01,0.29,4.28,4.28,4.27
88.09,3.85,-0.34,3.85,-0.35,0.35,0.01,0.29,4.20,4.20,4.20
88.97,3.74,-0.41,3.74,-0.43,0.39,0.01,0.30,4.12,4.12,4.15
89.86,3.64,-0.51,3.66,-0.46,0.41,0.01,0.30,4.05,4.06,4.15
90.76,3.62,-0.46,3.63,-0.46,0.41,0.02,0.31,4.03,4.04,4.09
91.66,3.65,-0.40,3.65,-0.42,0.39,0.02,0.32,4.04,4.04,4.05
92.58,3.69,-0.35,3.69,-0.36,0.36,0.02,0.33,4.05,4.05,4.05
93.51,3.73,-0.31,3.73,-0.30,0.32,0.02,0.33,4.05,4.05,4.05
94.44,3.76,-0.25,3.76,-0.24,0.27,0.03,0.34,4.03,4.03,4.01
95.39,3.78,-0.17,3.78,-0.20,0.22,0.03,0.35,4.00,4.00,3.95
96.34,3.78,-0.17,3.78,-0.18,0.19,0.03,0.36,3.96,3.96,3.95
97.30,3.77,-0.18,3.77,-0.17,0.16,0.04,0.37,3.93,3.93,3.95
98.28,3.75,-0.19,3.76,-0.16,0.15,0.04,0.37,3.91,3.91,3.94
99.26,3.73,-0.14,3.73,-0.15,0.16,0.05,0.38,3.89,3.89,3.87
100.25,3.70,-0.15,3.69,-0.17,0.19,0.05,0.39,3.88,3.88,3.85
101.25,3.64,-0.21,3.64,-0.21,0.23,0.05,0.40,3.87,3.87,3.85
102.27,3.57,-0.28,3.57,-0.26,0.28,0.06,0.41,3.85,3.85,3.85
103.29,3.49,-0.32,3.49,-0.31,0.34,0.06,0.42,3.83,3.83,3.82
104.32,3.42,-0.34,3.42,-0.38,0.39,0.07,0.43,3.81,3.82,3.76
105.37,3.35,-0.46,3.35,-0.46,0.45,0.08,0.44,3.80,3.80,3.82
106.42,3.30,-0.55,3.30,-0.53,0.49,0.08,0.45,3.78,3.78,3.85
107.48,3.24,-0.58,3.25,-0.57,0.52,0.09,0.46,3.76,3.76,3.82
108.56,3.20,-0.57,3.20,-0.56,0.52,0.10,0.46,3.73,3.73,3.77
109.64,3.16,-0.52,3.16,-0.53,0.51,0.10,0.47,3.68,3.68,3.68
110.74,3.13,-0.48,3.13,-0.49,0.49,0.11,0.48,3.62,3.62,3.61
111.85,3.10,-0.46,3.09,-0.44,0.46,0.12,0.49,3.56,3.55,3.55
112.97,3.06,-0.39,3.06,-0.40,0.42,0.13,0.49,3.48,3.48,3.45
114.10,3.02,-0.37,3.02,-0.37,0.39,0.14,0.50,3.41,3.41,3.39
115.24,2.98,-0.35,2.98,-0.35,0.36,0.15,0.50,3.34,3.34,3.33
116.39,2.94,-0.33,2.94,-0.34,0.35,0.16,0.51,3.29,3.29,3.28
117.55,2.90,-0.35,2.90,-0.34,0.35,0.17,0.51,3.25,3.25,3.25
118.73,2.85,-0.36,2.85,-0.34,0.36,0.18,0.51,3.21,3.21,3.21
119.92,2.81,-0.34,2.81,-0.36,0.37,0.19,0.51,3.18,3.18,3.15
121.12,2.76,-0.39,2.76,-0.40,0.39,0.20,0.51,3.15,3.15,3.15
122.33,2.71,-0.44,2.71,-0.43,0.41,0.21,0.51,3.13,3.13,3.15
123.55,2.66,-0.49,2.66,-0.46,0.45,0.23,0.51,3.11,3.11,3.15
124.79,2.61,-0.45,2.61,-0.47,0.48,0.24,0.50,3.09,3.09,3.07
126.03,2.57,-0.48,2.57,-0.49,0.50,0.26,0.50,3.07,3.07,3.05
127.29,2.53,-0.52,2.53,-0.51,0.53,0.27,0.49,3.06,3.06,3.05
128.57,2.50,-0.55,2.50,-0.55,0.55,0.29,0.49,3.04,3.04,3.05
129.85,2.46,-0.58,2.46,-0.58,0.56,0.30,0.48,3.02,3.02,3.05
131.15,2.43,-0.60,2.43,-0.59,0.57,0.32,0.47,3.00,3.00,3.04
132.46,2.40,-0.57,2.40,-0.57,0.57,0.33,0.46,2.97,2.97,2.97
133.79,2.36,-0.54,2.36,-0.56,0.56,0.35,0.45,2.93,2.93,2.91
135.12,2.32,-0.53,2.32,-0.55,0.55,0.36,0.43,2.87,2.87,2.85
136.48,2.27,-0.58,2.27,-0.55,0.54,0.38,0.42,2.80,2.80,2.85
137.84,2.21,-0.55,2.21,-0.53,0.52,0.39,0.40,2.73,2.73,2.76
139.22,2.16,-0.47,2.16,-0.50,0.51,0.40,0.39,2.67,2.67,2.64
140.61,2.11,-0.45,2.11,-0.48,0.50,0.41,0.37,2.61,2.61,2.57
142.02,2.06,-0.48,2.06,-0.47,0.50,0.43,0.36,2.56,2.56,2.55
143.44,2.01,-0.51,2.01,-0.49,0.50,0.43,0.34,2.51,2.51,2.52
144.87,1.97,-0.49,1.97,-0.51,0.50,0.44,0.32,2.47,2.47,2.45
146.32,1.92,-0.53,1.92,-0.51,0.51,0.45,0.30,2.43,2.43,2.45
147.78,1.87,-0.53,1.87,-0.52,0.53,0.45,0.28,2.40,2.40,2.41
149.26,1.83,-0.52,1.83,-0.54,0.54,0.45,0.26,2.37,2.37,2.35
150.75,1.78,-0.56,1.78,-0.55,0.56,0.44,0.24,2.34,2.34,2.35
152.26,1.73,-0.57,1.73,-0.57,0.56,0.44,0.22,2.30,2.29,2.30
153.78,1.67,-0.58,1.67,-0.58,0.57,0.43,0.20,2.24,2.24,2.25
155.32,1.62,-0.57,1.62,-0.57,0.56,0.41,0.18,2.18,2.18,2.18
156.88,1.55,-0.55,1.55,-0.55,0.55,0.39,0.16,2.11,2.11,2.10
158.44,1.50,-0.53,1.50,-0.53,0.53,0.37,0.14,2.03,2.02,2.02
160.03,1.44,-0.50,1.44,-0.51,0.50,0.34,0.12,1.94,1.94,1.95
161.63,1.41,-0.48,1.41,-0.48,0.46,0.31,0.10,1.87,1.87,1.89
163.24,1.39,-0.44,1.39,-0.43,0.43,0.27,0.07,1.82,1.82,1.83
164.88,1.40,-0.35,1.41,-0.36,0.39,0.23,0.05,1.79,1.79,1.75
166.53,1.45,-0.29,1.45,-0.29,0.34,0.19,0.03,1.79,1.79,1.75
168.19,1.52,-0.23,1.52,-0.26,0.28,0.13,0.01,1.80,1.80,1.76
169.87,1.61,-0.23,1.61,-0.23,0.20,0.07,-0.01,1.81,1.81,1.84
171.57,1.71,-0.22,1.71,-0.19,0.11,0.01,-0.04,1.82,1.82,1.93
173.29,1.79,-0.11,1.79,-0.10,0.02,-0.05,-0.06,1.81,1.81,1.90
175.02,1.87,0.02,1.86,0.05,-0.07,-0.12,-0.08,1.80,1.79,1.84
176.77,1.90,0.23,1.90,0.20,-0.15,-0.19,-0.10,1.75,1.75,1.67
178.54,1.92,0.33,1.92,0.31,-0.23,-0.24,-0.12,1.69,1.69,1.60
180.32,1.92,0.37,1.92,0.37,-0.29,-0.30,-0.15,1.63,1.63,1.55
182.13,1.90,0.35,1.90,0.35,-0.34,-0.33,-0.17,1.56,1.56,1.55
183.95,1.87,0.33,1.87,0.34,-0.36,-0.36,-0.19,1.51,1.52,1.55
185.79,1.84,0.32,1.84,0.33,-0.35,-0.37,-0.21,1.49,1.49,1.52
187.65,1.80,0.35,1.80,0.33,-0.33,-0.37,-0.24,1.48,1.48,1.46
189.52,1.76,0.31,1.76,0.30,-0.29,-0.37,-0.26,1.47,1.47,1.45
191.42,1.71,0.27,1.71,0.27,-0.27,-0.36,-0.28,1.45,1.45,1.45
193.33,1.66,0.21,1.65,0.23,-0.25,-0.35,-0.31,1.41,1.41,1.45
195.27,1.59,0.21,1.59,0.21,-0.24,-0.34,-0.33,1.35,1.35,1.38
197.22,1.53,0.22,1.53,0.21,-0.24,-0.33,-0.35,1.28,1.28,1.31
199.19,1.47,0.23,1.47,0.23,-0.25,-0.33,-0.37,1.22,1.22,1.24
201.18,1.43,0.26,1.44,0.27,-0.27,-0.33,-0.40,1.17,1.17,1.17
203.19,1.41,0.31,1.41,0.30,-0.29,-0.33,-0.42,1.12,1.13,1.11
205.23,1.40,0.36,1.40,0.33,-0.31,-0.34,-0.44,1.09,1.09,1.05
207.28,1.39,0.34,1.39,0.36,-0.34,-0.35,-0.46,1.05,1.05,1.05
209.35,1.37,0.37,1.37,0.37,-0.36,-0.36,-0.48,1.01,1.01,1.00
211.44,1.35,0.40,1.35,0.37,-0.38,-0.37,-0.51,0.97,0.97,0.95
213.56,1.32,0.37,1.32,0.39,-0.40,-0.38,-0.53,0.92,0.92,0.95
215.69,1.29,0.40,1.29,0.41,-0.42,-0.39,-0.55,0.86,0.86,0.89
217.85,1.26,0.44,1.26,0.43,-0.45,-0.40,-0.57,0.80,0.80,0.82
220.03,1.23,0.48,1.23,0.47,-0.48,-0.42,-0.59,0.74,0.74,0.75
222.23,1.20,0.51,1.20,0.51,-0.51,-0.43,-0.61,0.68,0.68,0.69
224.45,1.17,0.54,1.17,0.55,-0.54,-0.45,-0.63,0.63,0.63,0.63
226.70,1.14,0.58,1.14,0.59,-0.56,-0.46,-0.65,0.58,0.58,0.56
228.96,1.11,0.63,1.11,0.62,-0.59,-0.48,-0.66,0.53,0.53,0.48
231.25,1.09,0.64,1.09,0.63,-0.60,-0.49,-0.68,0.48,0.48,0.45
233.57,1.06,0.62,1.06,0.62,-0.62,-0.51,-0.70,0.44,0.44,0.45
235.90,1.04,0.59,1.04,0.61,-0.64,-0.52,-0.71,0.40,0.40,0.45
238.26,1.01,0.61,1.01,0.61,-0.65,-0.54,-0.73,0.36,0.36,0.40
240.64,0.98,0.65,0.99,0.65,-0.67,-0.55,-0.74,0.32,0.32,0.33
243.05,0.96,0.69,0.96,0.70,-0.69,-0.57,-0.75,0.27,0.27,0.27
245.48,0.94,0.74,0.94,0.73,-0.71,-0.58,-0.76,0.23,0.23,0.20
247.93,0.92,0.77,0.92,0.75,-0.74,-0.60,-0.77,0.18,0.18,0.15
250.41,0.90,0.75,0.90,0.76,-0.77,-0.61,-0.78,0.13,0.13,0.15
252.92,0.87,0.77,0.87,0.79,-0.80,-0.63,-0.79,0.07,0.07,0.10
255.45,0.85,0.82,0.85,0.82,-0.83,-0.64,-0.80,0.02,0.02,0.03
258.00,0.83,0.88,0.83,0.85,-0.85,-0.66,-0.80,-0.03,-0.03,-0.05
260.58,0.80,0.86,0.80,0.87,-0.87,-0.67,-0.81,-0.07,-0.07,-0.05
263.19,0.78,0.86,0.78,0.89,-0.88,-0.69,-0.82,-0.10,-0.10,-0.08
265.82,0.76,0.91,0.76,0.91,-0.89,-0.70,-0.82,-0.13,-0.13,-0.15
268.48,0.73,0.95,0.73,0.93,-0.89,-0.71,-0.82,-0.16,-0.16,-0.22
271.16,0.71,0.93,0.71,0.91,-0.89,-0.73,-0.82,-0.19,-0.19,-0.22
273.87,0.68,0.84,0.68,0.86,-0.89,-0.74,-0.83,-0.20,-0.20,-0.16
276.61,0.66,0.81,0.66,0.83,-0.87,-0.75,-0.83,-0.21,-0.21,-0.15
279.38,0.64,0.82,0.64,0.83,-0.84,-0.77,-0.83,-0.21,-0.21,-0.19
282.17,0.61,0.86,0.61,0.84,-0.81,-0.78,-0.83,-0.20,-0.20,-0.25
284.99,0.59,0.84,0.59,0.82,-0.78,-0.79,-0.83,-0.19,-0.19,-0.25
287.84,0.56,0.77,0.56,0.77,-0.74,-0.81,-0.83,-0.19,-0.19,-0.21
290.72,0.53,0.69,0.53,0.70,-0.72,-0.82,-0.83,-0.18,-0.18,-0.15
293.63,0.51,0.66,0.51,0.65,-0.69,-0.83,-0.83,-0.19,-0.19,-0.15
296.57,0.48,0.63,0.48,0.64,-0.67,-0.84,-0.83,-0.19,-0.19,-0.15
299.53,0.45,0.64,0.45,0.64,-0.66,-0.86,-0.83,-0.21,-0.21,-0.18
302.53,0.43,0.67,0.43,0.65,-0.66,-0.87,-0.83,-0.23,-0.23,-0.24
305.55,0.40,0.65,0.40,0.66,-0.66,-0.88,-0.83,-0.26,-0.26,-0.25
308.61,0.37,0.66,0.37,0.67,-0.68,-0.89,-0.83,-0.30,-0.30,-0.29
311.69,0.34,0.69,0.34,0.70,-0.69,-0.90,-0.83,-0.34,-0.34,-0.35
314.81,0.32,0.74,0.32,0.72,-0.69,-0.91,-0.83,-0.38,-0.38,-0.42
317.96,0.29,0.74,0.29,0.73,-0.69,-0.92,-0.83,-0.40,-0.40,-0.45
321.14,0.26,0.71,0.26,0.72,-0.69,-0.93,-0.84,-0.43,-0.43,-0.45
324.35,0.23,0.68,0.23,0.68,-0.69,-0.94,-0.84,-0.46,-0.46,-0.45
327.59,0.20,0.66,0.20,0.66,-0.70,-0.95,-0.84,-0.49,-0.49,-0.45
330.87,0.17,0.64,0.17,0.66,-0.70,-0.96,-0.85,-0.53,-0.53,-0.47
334.18,0.14,0.68,0.14,0.67,-0.71,-0.97,-0.85,-0.57,-0.57,-0.54
337.52,0.11,0.71,0.11,0.71,-0.71,-0.98,-0.86,-0.60,-0.60,-0.60
340.90,0.08,0.76,0.08,0.76,-0.72,-0.98,-0.86,-0.64,-0.64,-0.67
344.30,0.07,0.80,0.07,0.80,-0.74,-0.99,-0.87,-0.67,-0.67,-0.74
347.75,0.06,0.81,0.06,0.79,-0.77,-1.00,-0.88,-0.71,-0.71,-0.75
351.23,0.06,0.79,0.06,0.77,-0.80,-1.01,-0.88,-0.74,-0.74,-0.73
354.74,0.07,0.73,0.07,0.77,-0.83,-1.01,-0.89,-0.76,-0.76,-0.66
358.28,0.09,0.81,0.09,0.81,-0.86,-1.02,-0.90,-0.77,-0.77,-0.72
361.87,0.11,0.90,0.11,0.89,-0.89,-1.03,-0.91,-0.79,-0.79,-0.79
365.49,0.13,0.98,0.13,0.96,-0.93,-1.03,-0.92,-0.80,-0.80,-0.85
369.14,0.15,1.00,0.15,1.00,-0.97,-1.04,-0.94,-0.82,-0.82,-0.85
372.83,0.16,1.01,0.16,1.02,-1.00,-1.04,-0.95,-0.85,-0.85,-0.85
376.56,0.16,1.02,0.16,1.04,-1.04,-1.05,-0.96,-0.88,-0.88,-0.86
380.33,0.15,1.08,0.15,1.07,-1.07,-1.05,-0.97,-0.91,-0.91,-0.93
384.13,0.14,1.09,0.14,1.08,-1.08,-1.05,-0.99,-0.94,-0.94,-0.95
387.97,0.13,1.08,0.13,1.08,-1.10,-1.06,-1.00,-0.97,-0.97,-0.95
391.85,0.11,1.07,0.11,1.09,-1.10,-1.06,-1.02,-0.99,-0.99,-0.95
395.77,0.10,1.10,0.10,1.10,-1.11,-1.06,-1.03,-1.01,-1.01,-1.01
399.73,0.08,1.13,0.08,1.11,-1.10,-1.06,-1.05,-1.02,-1.02,-1.05
403.72,0.05,1.11,0.05,1.11,-1.09,-1.07,-1.07,-1.03,-1.03,-1.05
407.76,0.03,1.09,0.03,1.10,-1.07,-1.07,-1.08,-1.04,-1.04,-1.05
411.84,0.01,1.06,0.01,1.06,-1.05,-1.07,-1.10,-1.04,-1.04,-1.05
415.96,-0.01,1.04,-0.01,1.01,-1.03,-1.07,-1.12,-1.04,-1.04,-1.05
420.12,-0.04,0.95,-0.04,0.98,-1.00,-1.07,-1.13,-1.04,-1.04,-0.98
424.32,-0.06,0.93,-0.06,0.95,-0.97,-1.07,-1.15,-1.03,-1.03,-0.99
428.56,-0.08,0.97,-0.08,0.94,-0.95,-1.07,-1.16,-1.03,-1.03,-1.05
432.85,-0.11,0.95,-0.11,0.95,-0.93,-1.07,-1.18,-1.03,-1.03,-1.05
437.18,-0.13,0.93,-0.13,0.93,-0.91,-1.06,-1.20,-1.04,-1.04,-1.05
441.55,-0.15,0.90,-0.15,0.90,-0.91,-1.06,-1.21,-1.06,-1.06,-1.05
445.96,-0.17,0.88,-0.17,0.90,-0.91,-1.06,-1.22,-1.08,-1.08,-1.05
450.42,-0.19,0.91,-0.19,0.91,-0.92,-1.06,-1.24,-1.11,-1.11,-1.10
454.93,-0.21,0.94,-0.21,0.92,-0.93,-1.05,-1.25,-1.14,-1.14,-1.15
459.48,-0.23,0.92,-0.23,0.94,-0.96,-1.05,-1.26,-1.19,-1.19,-1.15
464.07,-0.25,0.96,-0.25,0.97,-0.99,-1.05,-1.27,-1.24,-1.24,-1.21
468.71,-0.27,1.01,-0.27,1.01,-1.02,-1.04,-1.28,-1.29,-1.29,-1.28
473.40,-0.29,1.06,-0.29,1.06,-1.05,-1.04,-1.29,-1.34,-1.34,-1.34
478.13,-0.30,1.11,-0.31,1.10,-1.07,-1.03,-1.29,-1.38,-1.38,-1.41
482.91,-0.32,1.13,-0.32,1.12,-1.09,-1.03,-1.29,-1.41,-1.41,-1.45
487.74,-0.34,1.11,-0.34,1.12,-1.10,-1.02,-1.30,-1.44,-1.44,-1.45
492.62,-0.36,1.09,-0.36,1.10,-1.10,-1.02,-1.30,-1.46,-1.46,-1.45
497.55,-0.38,1.08,-0.38,1.08,-1.09,-1.01,-1.29,-1.46,-1.46,-1.45
502.52,-0.39,1.06,-0.39,1.06,-1.07,-1.00,-1.29,-1.47,-1.47,-1.45
507.55,-0.41,1.04,-0.41,1.04,-1.05,-1.00,-1.28,-1.46,-1.46,-1.45
512.62,-0.43,1.02,-0.43,1.02,-1.03,-0.99,-1.28,-1.46,-1.46,-1.45
517.75,-0.45,1.01,-0.45,1.01,-1.01,-0.98,-1.27,-1.45,-1.45,-1.45
522.93,-0.46,0.99,-0.46,0.99,-0.99,-0.98,-1.25,-1.45,-1.45,-1.45
528.16,-0.48,0.97,-0.48,0.97,-0.97,-0.97,-1.24,-1.45,-1.45,-1.45
