frequency,raw,error,smoothed,error_smoothed,equalization,parametric_eq,fixed_band_eq,equalized_raw,equalized_smoothed,target
20.00,2.85,-6.17,2.85,-6.17,5.99,6.10,2.48,8.84,8.84,9.02
20.20,2.88,-6.14,2.88,-6.14,6.00,6.20,2.55,8.88,8.88,9.02
20.40,2.91,-6.11,2.91,-6.11,6.01,6.31,2.62,8.92,8.92,9.02
20.61,2.94,-6.08,2.93,-6.09,6.01,6.33,2.70,8.95,8.94,9.02
20.81,2.96,-6.06,2.96,-6.06,6.01,6.35,2.78,8.96,8.96,9.02
21.02,2.97,-6.04,2.97,-6.04,6.01,6.31,2.86,8.98,8.98,9.01
21.23,2.99,-6.03,2.99,-6.03,6.00,6.26,2.94,8.99,8.99,9.01
21.44,3.00,-6.01,3.00,-6.01,5.99,6.18,3.03,8.99,8.99,9.01
21.66,3.01,-5.99,3.01,-5.99,5.98,6.09,3.11,8.99,8.99,9.00
21.87,3.03,-5.97,3.03,-5.97,5.96,6.01,3.20,8.99,8.99,9.00
22.09,3.04,-5.95,3.04,-5.95,5.94,5.93,3.30,8.99,8.99,8.99
22.31,3.06,-5.92,3.06,-5.92,5.92,5.86,3.39,8.98,8.98,8.98
22.54,3.08,-5.89,3.08,-5.89,5.90,5.79,3.49,8.98,8.98,8.98
22.76,3.10,-5.86,3.10,-5.87,5.87,5.73,3.59,8.97,8.97,8.97
22.99,3.12,-5.84,3.12,-5.84,5.85,5.68,3.69,8.97,8.97,8.96
23.22,3.14,-5.82,3.14,-5.82,5.82,5.65,3.79,8.96,8.96,8.95
23.45,3.15,-5.80,3.15,-5.80,5.80,5.61,3.90,8.95,8.95,8.95
23.69,3.15,-5.78,3.15,-5.78,5.79,5.58,4.01,8.94,8.94,8.94
23.92,3.16,-5.77,3.16,-5.77,5.77,5.56,4.12,8.93,8.93,8.93
24.16,3.17,-5.76,3.17,-5.76,5.76,5.54,4.23,8.92,8.92,8.93
24.40,3.17,-5.75,3.17,-5.75,5.74,5.53,4.35,8.91,8.91,8.92
24.65,3.18,-5.73,3.18,-5.73,5.73,5.51,4.47,8.91,8.91,8.91
24.89,3.18,-5.72,3.18,-5.72,5.71,5.50,4.58,8.90,8.90,8.90
25.14,3.19,-5.70,3.19,-5.70,5.70,5.50,4.70,8.89,8.89,8.89
25.39,3.20,-5.68,3.20,-5.68,5.68,5.49,4.82,8.88,8.88,8.88
25.65,3.21,-5.66,3.21,-5.66,5.66,5.48,4.95,8.87,8.87,8.87
25.91,3.21,-5.65,3.21,-5.65,5.65,5.47,5.07,8.86,8.86,8.86
26.16,3.22,-5.63,3.22,-5.63,5.63,5.47,5.19,8.85,8.85,8.85
26.43,3.23,-5.61,3.23,-5.61,5.61,5.46,5.31,8.84,8.84,8.84
26.69,3.23,-5.60,3.23,-5.60,5.59,5.46,5.43,8.83,8.83,8.83
26.96,3.24,-5.58,3.24,-5.58,5.58,5.45,5.55,8.82,8.82,8.82
27.23,3.25,-5.56,3.25,-5.56,5.56,5.44,5.66,8.81,8.81,8.81
27.50,3.25,-5.55,3.25,-5.55,5.55,5.44,5.78,8.80,8.80,8.80
27.77,3.26,-5.53,3.26,-5.53,5.53,5.43,5.88,8.79,8.79,8.78
28.05,3.26,-5.51,3.26,-5.51,5.52,5.42,5.99,8.77,8.77,8.77
28.33,3.26,-5.50,3.26,-5.50,5.50,5.41,6.09,8.76,8.76,8.75
28.62,3.25,-5.49,3.25,-5.49,5.49,5.40,6.18,8.74,8.74,8.74
28.90,3.25,-5.47,3.25,-5.47,5.47,5.39,6.27,8.72,8.72,8.72
29.19,3.25,-5.46,3.25,-5.46,5.46,5.37,6.35,8.71,8.71,8.71
29.48,3.25,-5.45,3.25,-5.44,5.44,5.36,6.42,8.69,8.69,8.69
29.78,3.25,-5.42,3.25,-5.43,5.42,5.35,6.49,8.67,8.67,8.68
30.08,3.26,-5.40,3.26,-5.40,5.40,5.33,6.54,8.66,8.66,8.66
30.38,3.27,-5.38,3.27,-5.38,5.37,5.32,6.59,8.65,8.65,8.65
30.68,3.28,-5.35,3.28,-5.35,5.35,5.30,6.62,8.63,8.63,8.63
30.99,3.29,-5.32,3.29,-5.32,5.32,5.28,6.65,8.62,8.62,8.61
31.30,3.30,-5.29,3.30,-5.29,5.30,5.26,6.66,8.60,8.60,8.60
31.61,3.31,-5.27,3.31,-5.27,5.27,5.24,6.66,8.58,8.58,8.58
31.93,3.31,-5.25,3.31,-5.25,5.24,5.22,6.66,8.55,8.55,8.56
32.24,3.31,-5.22,3.31,-5.22,5.22,5.20,6.64,8.53,8.53,8.53
32.57,3.32,-5.19,3.32,-5.19,5.19,5.18,6.61,8.50,8.50,8.51
32.89,3.32,-5.16,3.32,-5.16,5.16,5.15,6.58,8.48,8.48,8.49
33.22,3.33,-5.13,3.33,-5.13,5.13,5.13,6.53,8.46,8.46,8.46
33.55,3.34,-5.10,3.34,-5.10,5.10,5.10,6.48,8.44,8.44,8.44
33.89,3.35,-5.07,3.35,-5.07,5.07,5.08,6.42,8.42,8.42,8.41
34.23,3.35,-5.04,3.35,-5.04,5.05,5.05,6.36,8.40,8.40,8.39
34.57,3.35,-5.02,3.35,-5.02,5.03,5.03,6.28,8.37,8.37,8.37
34.92,3.34,-5.00,3.34,-5.00,5.00,5.00,6.21,8.35,8.35,8.35
35.27,3.34,-4.99,3.34,-4.98,4.98,4.97,6.12,8.32,8.32,8.33
35.62,3.34,-4.97,3.34,-4.96,4.96,4.95,6.04,8.30,8.30,8.30
35.97,3.34,-4.94,3.34,-4.94,4.94,4.92,5.95,8.27,8.27,8.28
36.33,3.34,-4.91,3.34,-4.91,4.91,4.89,5.85,8.25,8.25,8.25
36.70,3.34,-4.89,3.34,-4.89,4.89,4.86,5.76,8.22,8.22,8.22
37.06,3.34,-4.86,3.34,-4.86,4.86,4.83,5.67,8.19,8.19,8.19
37.43,3.34,-4.83,3.34,-4.83,4.83,4.80,5.57,8.17,8.17,8.17
37.81,3.34,-4.80,3.34,-4.80,4.80,4.77,5.48,8.14,8.14,8.14
38.19,3.34,-4.77,3.34,-4.77,4.77,4.75,5.38,8.11,8.11,8.11
38.57,3.34,-4.74,3.34,-4.74,4.75,4.72,5.29,8.08,8.08,8.08
38.95,3.34,-4.72,3.34,-4.72,4.72,4.69,5.19,8.05,8.05,8.05
39.34,3.34,-4.69,3.34,-4.69,4.69,4.66,5.10,8.03,8.03,8.03
39.74,3.33,-4.66,3.33,-4.66,4.66,4.63,5.01,8.00,8.00,8.00
40.14,3.33,-4.64,3.33,-4.64,4.64,4.60,4.93,7.97,7.97,7.97
40.54,3.33,-4.61,3.33,-4.61,4.61,4.57,4.84,7.94,7.94,7.94
40.94,3.33,-4.59,3.33,-4.59,4.58,4.54,4.76,7.91,7.91,7.92
41.35,3.33,-4.56,3.33,-4.56,4.56,4.52,4.68,7.89,7.89,7.89
41.76,3.33,-4.53,3.33,-4.53,4.53,4.49,4.60,7.86,7.86,7.86
42.18,3.33,-4.50,3.33,-4.50,4.50,4.46,4.53,7.84,7.84,7.83
42.60,3.33,-4.47,3.33,-4.47,4.48,4.43,4.46,7.81,7.81,7.81
43.03,3.33,-4.45,3.33,-4.45,4.45,4.40,4.39,7.78,7.78,7.78
43.46,3.33,-4.42,3.33,-4.42,4.42,4.38,4.33,7.75,7.75,7.75
43.90,3.33,-4.39,3.33,-4.39,4.39,4.35,4.27,7.72,7.72,7.73
44.33,3.33,-4.37,3.33,-4.36,4.36,4.32,4.21,7.69,7.69,7.70
44.78,3.33,-4.33,3.33,-4.33,4.33,4.30,4.15,7.66,7.66,7.66
45.23,3.32,-4.30,3.32,-4.30,4.30,4.27,4.10,7.63,7.63,7.63
45.68,3.32,-4.27,3.32,-4.27,4.27,4.24,4.06,7.59,7.59,7.59
46.13,3.32,-4.24,3.32,-4.24,4.24,4.22,4.01,7.56,7.55,7.55
46.60,3.31,-4.20,3.31,-4.20,4.21,4.19,3.97,7.52,7.52,7.52
47.06,3.31,-4.17,3.31,-4.17,4.17,4.17,3.93,7.48,7.48,7.48
47.53,3.31,-4.14,3.31,-4.14,4.14,4.14,3.89,7.45,7.45,7.45
48.01,3.30,-4.11,3.30,-4.11,4.11,4.11,3.86,7.41,7.41,7.41
48.49,3.30,-4.08,3.30,-4.08,4.07,4.09,3.83,7.38,7.38,7.38
48.97,3.30,-4.04,3.30,-4.04,4.04,4.06,3.80,7.34,7.34,7.34
49.46,3.30,-4.01,3.30,-4.01,4.01,4.04,3.78,7.30,7.30,7.31
49.96,3.30,-3.97,3.30,-3.97,3.97,4.01,3.75,7.27,7.27,7.27
50.46,3.30,-3.93,3.30,-3.93,3.94,3.99,3.73,7.23,7.23,7.23
50.96,3.30,-3.90,3.30,-3.90,3.90,3.96,3.72,7.20,7.20,7.19
51.47,3.29,-3.86,3.29,-3.86,3.87,3.94,3.70,7.16,7.16,7.16
51.99,3.29,-3.83,3.29,-3.83,3.83,3.91,3.68,7.12,7.12,7.12
52.51,3.28,-3.80,3.28,-3.80,3.80,3.88,3.67,7.08,7.08,7.08
53.03,3.28,-3.77,3.28,-3.77,3.77,3.86,3.66,7.05,7.05,7.05
53.56,3.28,-3.74,3.28,-3.74,3.74,3.83,3.64,7.01,7.01,7.01
54.10,3.27,-3.70,3.27,-3.70,3.70,3.80,3.63,6.97,6.97,6.98
54.64,3.27,-3.67,3.27,-3.67,3.67,3.77,3.62,6.94,6.94,6.94
55.18,3.26,-3.64,3.26,-3.64,3.64,3.74,3.61,6.90,6.90,6.90
55.74,3.26,-3.60,3.26,-3.60,3.60,3.71,3.60,6.86,6.86,6.86
56.29,3.26,-3.56,3.26,-3.56,3.57,3.68,3.59,6.82,6.82,6.82
56.86,3.25,-3.53,3.25,-3.53,3.53,3.65,3.58,6.78,6.78,6.78
57.42,3.25,-3.49,3.24,-3.49,3.49,3.62,3.57,6.74,6.74,6.74
58.00,3.24,-3.46,3.24,-3.46,3.46,3.59,3.55,6.70,6.70,6.70
58.58,3.23,-3.42,3.23,-3.42,3.42,3.55,3.54,6.65,6.65,6.65
59.16,3.22,-3.39,3.22,-3.39,3.39,3.52,3.52,6.61,6.61,6.61
59.76,3.21,-3.36,3.21,-3.36,3.36,3.49,3.50,6.57,6.57,6.57
60.35,3.21,-3.32,3.21,-3.32,3.32,3.45,3.48,6.53,6.53,6.53
60.96,3.20,-3.29,3.20,-3.29,3.29,3.41,3.46,6.49,6.49,6.49
61.57,3.20,-3.25,3.20,-3.25,3.25,3.37,3.43,6.45,6.45,6.45
62.18,3.19,-3.22,3.19,-3.22,3.22,3.33,3.41,6.41,6.41,6.41
62.80,3.19,-3.18,3.19,-3.18,3.18,3.29,3.38,6.37,6.37,6.37
63.43,3.18,-3.15,3.18,-3.15,3.15,3.25,3.34,6.33,6.33,6.33
64.07,3.17,-3.11,3.17,-3.11,3.11,3.21,3.31,6.28,6.28,6.28
64.71,3.17,-3.07,3.17,-3.07,3.07,3.17,3.27,6.24,6.24,6.24
65.35,3.16,-3.04,3.16,-3.04,3.03,3.13,3.23,6.19,6.19,6.19
66.01,3.15,-3.00,3.15,-3.00,3.00,3.08,3.19,6.14,6.14,6.14
66.67,3.14,-2.95,3.14,-2.95,2.96,3.04,3.15,6.10,6.10,6.09
67.33,3.13,-2.91,3.13,-2.91,2.91,2.99,3.10,6.05,6.05,6.05
68.01,3.12,-2.87,3.12,-2.87,2.87,2.95,3.05,6.00,6.00,6.00
68.69,3.12,-2.83,3.12,-2.83,2.83,2.90,3.00,5.95,5.95,5.95
69.37,3.11,-2.79,3.11,-2.79,2.79,2.86,2.95,5.90,5.90,5.90
70.07,3.10,-2.75,3.10,-2.75,2.75,2.81,2.90,5.85,5.85,5.85
70.77,3.09,-2.71,3.09,-2.71,2.71,2.76,2.85,5.80,5.80,5.80
71.48,3.09,-2.67,3.09,-2.67,2.67,2.72,2.79,5.75,5.75,5.75
72.19,3.08,-2.63,3.08,-2.63,2.63,2.67,2.74,5.71,5.71,5.70
72.91,3.07,-2.59,3.07,-2.59,2.59,2.62,2.68,5.66,5.66,5.66
73.64,3.06,-2.56,3.06,-2.56,2.56,2.57,2.63,5.62,5.62,5.61
74.38,3.05,-2.52,3.05,-2.52,2.52,2.53,2.57,5.57,5.57,5.57
75.12,3.04,-2.48,3.04,-2.48,2.49,2.48,2.52,5.53,5.53,5.52
75.87,3.03,-2.45,3.03,-2.45,2.45,2.43,2.46,5.48,5.48,5.48
76.63,3.02,-2.42,3.02,-2.42,2.42,2.39,2.41,5.43,5.43,5.43
77.40,3.00,-2.38,3.01,-2.38,2.38,2.34,2.35,5.39,5.39,5.39
78.17,2.99,-2.35,2.99,-2.35,2.35,2.29,2.30,5.34,5.34,5.34
78.95,2.98,-2.31,2.98,-2.31,2.31,2.25,2.24,5.29,5.29,5.29
79.74,2.97,-2.27,2.97,-2.27,2.27,2.20,2.19,5.24,5.24,5.24
80.54,2.96,-2.23,2.96,-2.23,2.23,2.16,2.14,5.19,5.19,5.19
81.35,2.95,-2.18,2.95,-2.18,2.18,2.11,2.09,5.13,5.13,5.14
82.16,2.94,-2.14,2.94,-2.14,2.14,2.07,2.04,5.08,5.08,5.08
82.98,2.93,-2.10,2.93,-2.10,2.09,2.02,1.99,5.02,5.02,5.02
83.81,2.91,-2.05,2.91,-2.05,2.05,1.98,1.95,4.96,4.96,4.96
84.65,2.90,-2.00,2.90,-2.00,2.00,1.93,1.90,4.90,4.90,4.90
85.50,2.88,-1.95,2.88,-1.95,1.96,1.89,1.86,4.84,4.84,4.84
86.35,2.87,-1.91,2.87,-1.91,1.92,1.85,1.81,4.79,4.79,4.78
87.22,2.85,-1.87,2.85,-1.87,1.88,1.81,1.77,4.74,4.74,4.72
88.09,2.84,-1.84,2.84,-1.84,1.85,1.77,1.73,4.68,4.68,4.68
88.97,2.82,-1.81,2.82,-1.81,1.81,1.73,1.69,4.63,4.63,4.63
89.86,2.80,-1.79,2.80,-1.79,1.78,1.69,1.66,4.58,4.58,4.59
90.76,2.79,-1.76,2.79,-1.76,1.74,1.65,1.62,4.53,4.53,4.55
91.66,2.78,-1.72,2.78,-1.72,1.70,1.61,1.58,4.48,4.48,4.49
92.58,2.77,-1.67,2.77,-1.67,1.67,1.57,1.55,4.43,4.43,4.44
93.51,2.76,-1.62,2.76,-1.62,1.63,1.53,1.52,4.39,4.39,4.38
94.44,2.75,-1.58,2.75,-1.58,1.59,1.50,1.49,4.34,4.34,4.33
95.39,2.74,-1.54,2.74,-1.54,1.55,1.46,1.45,4.29,4.29,4.28
96.34,2.72,-1.50,2.72,-1.50,1.51,1.42,1.42,4.23,4.23,4.22
97.30,2.70,-1.47,2.70,-1.47,1.47,1.39,1.40,4.17,4.17,4.17
98.28,2.68,-1.44,2.68,-1.44,1.44,1.35,1.37,4.11,4.11,4.12
99.26,2.65,-1.41,2.65,-1.41,1.40,1.32,1.34,4.05,4.05,4.06
100.25,2.64,-1.37,2.64,-1.37,1.36,1.28,1.32,3.99,4.00,4.00
101.25,2.62,-1.32,2.62,-1.32,1.32,1.25,1.29,3.94,3.94,3.95
102.27,2.61,-1.28,2.61,-1.28,1.27,1.22,1.27,3.89,3.89,3.89
103.29,2.60,-1.23,2.60,-1.23,1.23,1.19,1.24,3.83,3.83,3.83
104.32,2.59,-1.18,2.59,-1.18,1.19,1.15,1.22,3.78,3.78,3.77
105.37,2.58,-1.14,2.58,-1.14,1.14,1.12,1.20,3.72,3.72,3.71
106.42,2.56,-1.09,2.56,-1.09,1.10,1.09,1.18,3.66,3.66,3.65
107.48,2.54,-1.06,2.54,-1.06,1.06,1.06,1.16,3.60,3.60,3.60
108.56,2.52,-1.03,2.52,-1.03,1.03,1.03,1.14,3.55,3.55,3.55
109.64,2.50,-1.00,2.50,-1.00,1.00,1.00,1.12,3.50,3.50,3.50
110.74,2.48,-0.97,2.48,-0.97,0.97,0.97,1.10,3.44,3.44,3.44
111.85,2.46,-0.93,2.46,-0.93,0.93,0.94,1.08,3.39,3.39,3.39
112.97,2.44,-0.90,2.44,-0.90,0.90,0.91,1.06,3.34,3.34,3.34
114.10,2.42,-0.87,2.42,-0.87,0.86,0.89,1.04,3.28,3.28,3.29
115.24,2.40,-0.83,2.40,-0.83,0.82,0.86,1.02,3.23,3.23,3.24
116.39,2.39,-0.79,2.39,-0.78,0.78,0.83,1.00,3.17,3.17,3.17
117.55,2.37,-0.73,2.37,-0.73,0.74,0.80,0.98,3.11,3.11,3.10
118.73,2.35,-0.68,2.35,-0.69,0.70,0.78,0.96,3.05,3.05,3.03
119.92,2.33,-0.65,2.33,-0.65,0.66,0.75,0.94,2.99,2.99,2.98
121.12,2.31,-0.63,2.31,-0.63,0.63,0.72,0.92,2.93,2.93,2.94
122.33,2.28,-0.60,2.29,-0.60,0.59,0.70,0.89,2.88,2.88,2.89
123.55,2.26,-0.57,2.26,-0.57,0.56,0.67,0.87,2.83,2.83,2.83
124.79,2.24,-0.53,2.24,-0.54,0.54,0.64,0.85,2.78,2.78,2.78
126.03,2.22,-0.51,2.22,-0.51,0.51,0.62,0.83,2.73,2.73,2.73
127.29,2.20,-0.49,2.20,-0.49,0.49,0.59,0.80,2.69,2.69,2.69
128.57,2.17,-0.47,2.17,-0.46,0.46,0.57,0.78,2.64,2.64,2.64
129.85,2.15,-0.44,2.15,-0.44,0.44,0.54,0.76,2.59,2.59,2.59
131.15,2.13,-0.41,2.13,-0.41,0.42,0.52,0.73,2.54,2.54,2.54
132.46,2.10,-0.39,2.10,-0.39,0.39,0.49,0.70,2.50,2.50,2.49
133.79,2.08,-0.37,2.08,-0.37,0.37,0.47,0.68,2.44,2.44,2.44
135.12,2.05,-0.35,2.05,-0.35,0.34,0.44,0.65,2.39,2.39,2.40
136.48,2.02,-0.32,2.03,-0.32,0.30,0.42,0.62,2.33,2.33,2.35
137.84,2.00,-0.28,2.00,-0.28,0.27,0.39,0.60,2.27,2.27,2.28
139.22,1.98,-0.23,1.98,-0.23,0.23,0.37,0.57,2.21,2.21,2.21
140.61,1.95,-0.18,1.95,-0.19,0.20,0.34,0.54,2.15,2.15,2.14
142.02,1.93,-0.15,1.93,-0.15,0.16,0.32,0.51,2.09,2.09,2.08
143.44,1.90,-0.12,1.90,-0.12,0.13,0.30,0.48,2.03,2.03,2.02
144.87,1.88,-0.09,1.88,-0.09,0.10,0.27,0.45,1.98,1.98,1.97
146.32,1.85,-0.08,1.85,-0.08,0.07,0.25,0.42,1.93,1.93,1.93
147.78,1.83,-0.06,1.83,-0.06,0.05,0.22,0.39,1.88,1.88,1.89
149.26,1.80,-0.04,1.80,-0.04,0.03,0.20,0.36,1.84,1.84,1.84
150.75,1.78,-0.02,1.78,-0.02,0.02,0.17,0.33,1.79,1.79,1.80
152.26,1.75,0.00,1.75,0.00,-0.00,0.15,0.30,1.75,1.75,1.75
153.78,1.73,0.02,1.73,0.02,-0.02,0.12,0.27,1.71,1.71,1.71
155.32,1.70,0.03,1.70,0.03,-0.03,0.10,0.24,1.67,1.67,1.67
156.88,1.67,0.04,1.67,0.04,-0.04,0.07,0.20,1.63,1.63,1.63
158.44,1.65,0.05,1.65,0.05,-0.05,0.05,0.17,1.60,1.60,1.60
160.03,1.62,0.06,1.62,0.06,-0.05,0.02,0.14,1.57,1.57,1.56
161.63,1.59,0.06,1.59,0.06,-0.05,-0.01,0.11,1.54,1.54,1.53
163.24,1.56,0.06,1.56,0.06,-0.05,-0.03,0.08,1.51,1.51,1.50
164.88,1.53,0.05,1.53,0.05,-0.04,-0.06,0.04,1.48,1.48,1.48
166.53,1.50,0.04,1.50,0.04,-0.04,-0.08,0.01,1.46,1.46,1.46
168.19,1.47,0.03,1.47,0.03,-0.04,-0.11,-0.02,1.43,1.43,1.43
169.87,1.43,0.03,1.43,0.03,-0.04,-0.14,-0.06,1.39,1.39,1.40
171.57,1.40,0.04,1.40,0.04,-0.05,-0.16,-0.09,1.35,1.34,1.36
173.29,1.36,0.06,1.36,0.06,-0.07,-0.19,-0.12,1.29,1.29,1.30
175.02,1.32,0.09,1.32,0.09,-0.10,-0.22,-0.16,1.22,1.22,1.23
176.77,1.27,0.13,1.27,0.13,-0.13,-0.25,-0.19,1.14,1.14,1.15
178.54,1.23,0.17,1.23,0.17,-0.17,-0.27,-0.23,1.06,1.06,1.06
180.32,1.19,0.21,1.19,0.21,-0.21,-0.30,-0.26,0.99,0.99,0.98
182.13,1.16,0.26,1.16,0.26,-0.25,-0.33,-0.30,0.91,0.91,0.90
183.95,1.13,0.29,1.13,0.29,-0.28,-0.36,-0.33,0.85,0.85,0.83
185.79,1.09,0.32,1.09,0.32,-0.31,-0.38,-0.37,0.78,0.78,0.77
187.65,1.05,0.34,1.05,0.34,-0.33,-0.41,-0.40,0.72,0.72,0.71
189.52,1.01,0.35,1.01,0.36,-0.36,-0.44,-0.44,0.65,0.66,0.66
191.42,0.97,0.37,0.97,0.37,-0.37,-0.46,-0.47,0.60,0.60,0.60
193.33,0.93,0.38,0.93,0.38,-0.39,-0.49,-0.51,0.54,0.54,0.55
195.27,0.90,0.40,0.90,0.40,-0.41,-0.52,-0.55,0.49,0.49,0.50
197.22,0.86,0.42,0.86,0.42,-0.42,-0.54,-0.58,0.44,0.44,0.44
199.19,0.83,0.44,0.83,0.44,-0.44,-0.57,-0.62,0.39,0.39,0.39
201.18,0.80,0.47,0.80,0.46,-0.46,-0.60,-0.65,0.34,0.34,0.34
203.19,0.78,0.49,0.78,0.49,-0.49,-0.62,-0.69,0.29,0.29,0.29
205.23,0.76,0.52,0.76,0.51,-0.52,-0.65,-0.72,0.24,0.24,0.24
207.28,0.74,0.55,0.74,0.55,-0.56,-0.67,-0.76,0.19,0.19,0.20
209.35,0.73,0.58,0.74,0.58,-0.59,-0.69,-0.79,0.14,0.14,0.15
211.44,0.74,0.63,0.74,0.63,-0.64,-0.72,-0.83,0.10,0.10,0.11
213.56,0.75,0.68,0.75,0.68,-0.68,-0.74,-0.86,0.07,0.07,0.07
215.69,0.76,0.73,0.76,0.73,-0.73,-0.76,-0.89,0.03,0.03,0.03
217.85,0.77,0.78,0.76,0.78,-0.77,-0.78,-0.92,-0.00,-0.00,-0.01
220.03,0.77,0.82,0.76,0.82,-0.81,-0.80,-0.96,-0.04,-0.05,-0.06
222.23,0.75,0.85,0.75,0.85,-0.84,-0.82,-0.98,-0.09,-0.09,-0.10
224.45,0.73,0.87,0.73,0.87,-0.87,-0.83,-1.01,-0.14,-0.14,-0.14
226.70,0.71,0.89,0.71,0.89,-0.89,-0.85,-1.04,-0.18,-0.19,-0.18
228.96,0.68,0.91,0.68,0.91,-0.91,-0.87,-1.06,-0.23,-0.23,-0.23
231.25,0.65,0.93,0.65,0.92,-0.92,-0.88,-1.09,-0.27,-0.27,-0.27
233.57,0.62,0.93,0.62,0.93,-0.93,-0.89,-1.11,-0.31,-0.31,-0.31
235.90,0.60,0.93,0.60,0.94,-0.94,-0.91,-1.13,-0.34,-0.34,-0.34
238.26,0.57,0.94,0.57,0.94,-0.94,-0.92,-1.15,-0.37,-0.37,-0.37
240.64,0.54,0.94,0.54,0.94,-0.94,-0.93,-1.16,-0.41,-0.41,-0.40
243.05,0.51,0.95,0.51,0.94,-0.94,-0.94,-1.17,-0.44,-0.44,-0.44
245.48,0.47,0.94,0.47,0.94,-0.94,-0.95,-1.18,-0.47,-0.47,-0.47
247.93,0.44,0.94,0.44,0.94,-0.94,-0.95,-1.19,-0.50,-0.50,-0.50
250.41,0.41,0.94,0.41,0.94,-0.94,-0.96,-1.20,-0.53,-0.53,-0.53
252.92,0.38,0.94,0.38,0.94,-0.94,-0.97,-1.20,-0.56,-0.56,-0.56
255.45,0.35,0.93,0.35,0.93,-0.94,-0.97,-1.20,-0.59,-0.59,-0.59
258.00,0.31,0.93,0.31,0.93,-0.93,-0.98,-1.20,-0.62,-0.62,-0.62
260.58,0.28,0.93,0.28,0.93,-0.93,-0.98,-1.20,-0.65,-0.65,-0.65
263.19,0.25,0.93,0.25,0.93,-0.93,-0.99,-1.19,-0.69,-0.69,-0.68
265.82,0.21,0.93,0.21,0.93,-0.93,-0.99,-1.18,-0.72,-0.72,-0.72
268.48,0.18,0.93,0.18,0.93,-0.93,-0.99,-1.17,-0.75,-0.75,-0.75
271.16,0.15,0.93,0.15,0.93,-0.93,-0.99,-1.16,-0.78,-0.78,-0.78
273.87,0.12,0.93,0.12,0.93,-0.93,-0.99,-1.15,-0.81,-0.81,-0.81
276.61,0.09,0.93,0.09,0.93,-0.93,-0.99,-1.13,-0.84,-0.84,-0.83
279.38,0.06,0.93,0.06,0.92,-0.92,-0.99,-1.12,-0.86,-0.86,-0.86
282.17,0.03,0.92,0.03,0.92,-0.92,-0.99,-1.10,-0.89,-0.89,-0.89
284.99,-0.01,0.92,-0.01,0.92,-0.91,-0.99,-1.08,-0.92,-0.92,-0.92
287.84,-0.04,0.91,-0.04,0.91,-0.90,-0.99,-1.06,-0.95,-0.95,-0.95
290.72,-0.08,0.90,-0.08,0.90,-0.90,-0.98,-1.04,-0.98,-0.97,-0.97
293.63,-0.11,0.88,-0.11,0.89,-0.89,-0.98,-1.01,-1.00,-1.00,-1.00
296.57,-0.14,0.88,-0.14,0.88,-0.88,-0.97,-0.99,-1.03,-1.03,-1.02
299.53,-0.17,0.87,-0.17,0.87,-0.87,-0.96,-0.97,-1.05,-1.05,-1.05
302.53,-0.20,0.87,-0.20,0.87,-0.87,-0.96,-0.95,-1.07,-1.07,-1.07
305.55,-0.23,0.86,-0.23,0.86,-0.86,-0.95,-0.92,-1.09,-1.09,-1.09
308.61,-0.25,0.86,-0.25,0.86,-0.86,-0.94,-0.90,-1.11,-1.11,-1.11
311.69,-0.28,0.85,-0.28,0.85,-0.85,-0.93,-0.87,-1.13,-1.13,-1.13
314.81,-0.30,0.85,-0.30,0.85,-0.85,-0.92,-0.85,-1.15,-1.15,-1.15
317.96,-0.33,0.84,-0.33,0.84,-0.84,-0.90,-0.83,-1.17,-1.17,-1.17
321.14,-0.36,0.83,-0.36,0.83,-0.83,-0.89,-0.80,-1.19,-1.19,-1.19
324.35,-0.39,0.82,-0.39,0.82,-0.82,-0.88,-0.78,-1.20,-1.20,-1.21
327.59,-0.42,0.80,-0.42,0.80,-0.80,-0.86,-0.76,-1.22,-1.22,-1.22
330.87,-0.45,0.79,-0.45,0.79,-0.79,-0.84,-0.74,-1.23,-1.23,-1.23
334.18,-0.48,0.77,-0.48,0.77,-0.77,-0.83,-0.71,-1.25,-1.25,-1.25
337.52,-0.50,0.76,-0.50,0.76,-0.76,-0.81,-0.69,-1.26,-1.26,-1.26
340.90,-0.53,0.74,-0.53,0.74,-0.74,-0.79,-0.67,-1.28,-1.28,-1.28
344.30,-0.56,0.73,-0.56,0.73,-0.73,-0.77,-0.65,-1.29,-1.29,-1.29
347.75,-0.59,0.72,-0.59,0.72,-0.72,-0.75,-0.63,-1.31,-1.31,-1.31
351.23,-0.62,0.70,-0.62,0.70,-0.70,-0.74,-0.61,-1.32,-1.32,-1.33
354.74,-0.65,0.69,-0.65,0.69,-0.69,-0.72,-0.59,-1.34,-1.34,-1.34
358.28,-0.68,0.68,-0.68,0.68,-0.68,-0.70,-0.57,-1.36,-1.36,-1.36
361.87,-0.71,0.66,-0.71,0.66,-0.66,-0.68,-0.55,-1.37,-1.37,-1.37
365.49,-0.73,0.65,-0.73,0.65,-0.65,-0.66,-0.53,-1.38,-1.38,-1.38
369.14,-0.76,0.63,-0.76,0.63,-0.63,-0.64,-0.52,-1.39,-1.39,-1.39
372.83,-0.79,0.62,-0.79,0.62,-0.62,-0.62,-0.50,-1.41,-1.41,-1.41
376.56,-0.81,0.61,-0.81,0.61,-0.61,-0.60,-0.48,-1.42,-1.42,-1.42
380.33,-0.84,0.59,-0.84,0.59,-0.59,-0.58,-0.47,-1.43,-1.43,-1.43
384.13,-0.87,0.58,-0.87,0.58,-0.58,-0.56,-0.45,-1.44,-1.44,-1.44
387.97,-0.89,0.56,-0.89,0.56,-0.56,-0.54,-0.43,-1.45,-1.45,-1.45
391.85,-0.92,0.55,-0.92,0.55,-0.55,-0.52,-0.42,-1.47,-1.47,-1.46
395.77,-0.95,0.53,-0.95,0.53,-0.53,-0.50,-0.41,-1.48,-1.48,-1.48
399.73,-0.97,0.51,-0.97,0.51,-0.51,-0.48,-0.39,-1.48,-1.48,-1.49
403.72,-1.00,0.50,-1.00,0.50,-0.50,-0.46,-0.38,-1.49,-1.49,-1.49
407.76,-1.02,0.48,-1.02,0.48,-0.48,-0.44,-0.36,-1.50,-1.50,-1.50
411.84,-1.05,0.46,-1.05,0.46,-0.46,-0.43,-0.35,-1.51,-1.51,-1.51
415.96,-1.07,0.44,-1.07,0.44,-0.44,-0.41,-0.34,-1.51,-1.51,-1.51
420.12,-1.10,0.42,-1.10,0.42,-0.42,-0.39,-0.33,-1.52,-1.52,-1.52
424.32,-1.12,0.40,-1.12,0.40,-0.40,-0.37,-0.31,-1.52,-1.52,-1.52
428.56,-1.15,0.37,-1.15,0.37,-0.37,-0.36,-0.30,-1.52,-1.52,-1.52
432.85,-1.17,0.35,-1.17,0.35,-0.35,-0.34,-0.29,-1.52,-1.52,-1.52
437.18,-1.19,0.33,-1.19,0.33,-0.33,-0.33,-0.28,-1.52,-1.52,-1.52
441.55,-1.22,0.30,-1.22,0.30,-0.30,-0.31,-0.27,-1.52,-1.52,-1.52
445.96,-1.24,0.28,-1.24,0.28,-0.28,-0.30,-0.26,-1.52,-1.52,-1.52
450.42,-1.26,0.25,-1.26,0.25,-0.25,-0.28,-0.25,-1.51,-1.51,-1.51
454.93,-1.29,0.22,-1.29,0.22,-0.22,-0.27,-0.23,-1.51,-1.51,-1.51
459.48,-1.31,0.20,-1.31,0.20,-0.20,-0.25,-0.22,-1.50,-1.50,-1.50
464.07,-1.33,0.17,-1.33,0.17,-0.17,-0.24,-0.21,-1.50,-1.50,-1.50
468.71,-1.35,0.14,-1.35,0.14,-0.14,-0.23,-0.20,-1.49,-1.49,-1.49
473.40,-1.37,0.11,-1.37,0.11,-0.11,-0.21,-0.19,-1.48,-1.49,-1.48
478.13,-1.39,0.08,-1.39,0.08,-0.08,-0.20,-0.18,-1.48,-1.48,-1.48
482.91,-1.41,0.06,-1.41,0.06,-0.06,-0.19,-0.17,-1.47,-1.47,-1.47
487.74,-1.43,0.03,-1.43,0.03,-0.03,-0.18,-0.16,-1.46,-1.47,-1.47
492.62,-1.45,0.01,-1.45,0.01,-0.00,-0.16,-0.15,-1.46,-1.46,-1.46
497.55,-1.47,-0.02,-1.47,-0.02,0.02,-0.15,-0.14,-1.45,-1.45,-1.45
502.52,-1.49,-0.05,-1.49,-0.05,0.05,-0.14,-0.13,-1.45,-1.45,-1.45
507.55,-1.51,-0.07,-1.51,-0.07,0.07,-0.13,-0.12,-1.44,-1.44,-1.44
512.62,-1.53,-0.10,-1.53,-0.10,0.10,-0.12,-0.11,-1.43,-1.43,-1.43
517.75,-1.55,-0.12,-1.55,-0.12,0.12,-0.11,-0.10,-1.43,-1.43,-1.43
522.93,-1.57,-0.15,-1.57,-0.15,0.15,-0.10,-0.09,-1.42,-1.42,-1.42
528.16,-1.59,-0.17,-1.59,-0.17,0.17,-0.09,-0.07,-1.41,-1.41,-1.41
