frequency,raw,error,smoothed,error_smoothed,equalization,parametric_eq,fixed_band_eq,equalized_raw,equalized_smoothed,target
20.00,7.42,-5.30,7.42,-5.30,5.31,0.00,1.97,12.73,12.73,12.72
20.20,7.44,-5.30,7.44,-5.31,5.31,0.00,2.03,12.75,12.75,12.75
20.40,7.46,-5.31,7.46,-5.31,5.30,0.00,2.08,12.76,12.76,12.77
20.61,7.48,-5.31,7.48,-5.30,5.30,0.00,2.15,12.77,12.77,12.78
20.81,7.49,-5.30,7.49,-5.30,5.29,0.00,2.21,12.78,12.78,12.79
21.02,7.51,-5.28,7.51,-5.28,5.27,0.00,2.27,12.78,12.78,12.79
21.23,7.52,-5.26,7.52,-5.26,5.26,0.00,2.34,12.78,12.78,12.78
21.44,7.53,-5.24,7.53,-5.24,5.24,0.00,2.41,12.77,12.77,12.77
21.66,7.55,-5.21,7.55,-5.21,5.21,0.00,2.48,12.76,12.76,12.76
21.87,7.56,-5.18,7.56,-5.18,5.18,0.00,2.55,12.74,12.74,12.74
22.09,7.57,-5.15,7.57,-5.15,5.15,0.00,2.63,12.73,12.73,12.73
22.31,7.59,-5.12,7.59,-5.12,5.12,0.00,2.70,12.71,12.71,12.71
22.54,7.60,-5.09,7.60,-5.09,5.10,0.00,2.78,12.70,12.70,12.69
22.76,7.62,-5.06,7.62,-5.06,5.07,0.00,2.86,12.68,12.68,12.68
22.99,7.63,-5.04,7.63,-5.04,5.04,0.00,2.95,12.67,12.67,12.66
23.22,7.64,-5.01,7.64,-5.01,5.01,0.00,3.03,12.65,12.65,12.65
23.45,7.65,-4.98,7.65,-4.98,4.98,0.00,3.12,12.63,12.63,12.63
23.69,7.66,-4.95,7.66,-4.95,4.95,0.00,3.21,12.60,12.60,12.61
23.92,7.66,-4.92,7.66,-4.92,4.91,0.00,3.30,12.58,12.58,12.58
24.16,7.67,-4.88,7.67,-4.88,4.88,0.00,3.39,12.55,12.55,12.55
24.40,7.68,-4.84,7.68,-4.84,4.84,0.00,3.48,12.52,12.52,12.52
24.65,7.68,-4.80,7.68,-4.80,4.80,0.00,3.58,12.48,12.48,12.48
24.89,7.69,-4.75,7.69,-4.75,4.76,0.00,3.67,12.45,12.45,12.45
25.14,7.70,-4.71,7.70,-4.71,4.72,0.00,3.77,12.42,12.42,12.42
25.39,7.71,-4.68,7.71,-4.68,4.69,0.00,3.86,12.40,12.40,12.39
25.65,7.72,-4.64,7.72,-4.64,4.65,0.00,3.96,12.37,12.37,12.36
25.91,7.73,-4.61,7.73,-4.61,4.61,0.00,4.06,12.34,12.34,12.34
26.16,7.74,-4.58,7.74,-4.58,4.58,0.00,4.15,12.32,12.32,12.32
26.43,7.75,-4.55,7.75,-4.54,4.54,0.00,4.25,12.28,12.29,12.29
26.69,7.76,-4.50,7.76,-4.50,4.49,0.00,4.35,12.25,12.25,12.26
26.96,7.77,-4.46,7.77,-4.46,4.45,0.00,4.44,12.22,12.22,12.22
27.23,7.78,-4.41,7.78,-4.41,4.40,0.00,4.53,12.18,12.18,12.18
27.50,7.78,-4.35,7.78,-4.35,4.35,0.00,4.62,12.14,12.14,12.14
27.77,7.79,-4.30,7.79,-4.30,4.31,0.00,4.70,12.10,12.10,12.09
28.05,7.80,-4.25,7.80,-4.25,4.26,0.00,4.79,12.06,12.06,12.05
28.33,7.81,-4.21,7.81,-4.21,4.22,0.00,4.86,12.03,12.03,12.02
28.62,7.82,-4.17,7.82,-4.17,4.18,0.00,4.94,11.99,11.99,11.99
28.90,7.82,-4.14,7.82,-4.14,4.14,0.00,5.00,11.96,11.96,11.96
29.19,7.82,-4.10,7.82,-4.10,4.10,0.00,5.06,11.92,11.92,11.93
29.48,7.82,-4.07,7.82,-4.07,4.07,0.00,5.12,11.89,11.89,11.89
29.78,7.82,-4.04,7.82,-4.04,4.03,0.00,5.17,11.85,11.85,11.86
30.08,7.82,-4.00,7.82,-4.00,4.00,0.00,5.20,11.82,11.82,11.82
30.38,7.81,-3.97,7.81,-3.97,3.97,0.00,5.24,11.78,11.78,11.78
30.68,7.81,-3.93,7.81,-3.93,3.94,0.00,5.26,11.74,11.74,11.74
30.99,7.80,-3.90,7.81,-3.90,3.90,0.00,5.28,11.71,11.71,11.71
31.30,7.80,-3.87,7.80,-3.87,3.87,0.00,5.28,11.67,11.67,11.68
31.61,7.80,-3.84,7.80,-3.84,3.84,0.00,5.29,11.64,11.64,11.64
31.93,7.80,-3.81,7.80,-3.81,3.81,0.00,5.28,11.61,11.61,11.61
32.24,7.79,-3.78,7.79,-3.78,3.78,0.00,5.26,11.57,11.57,11.58
32.57,7.79,-3.75,7.79,-3.75,3.75,0.00,5.23,11.54,11.54,11.54
32.89,7.79,-3.72,7.79,-3.72,3.72,0.00,5.20,11.51,11.51,11.51
33.22,7.79,-3.69,7.79,-3.69,3.69,0.00,5.16,11.48,11.48,11.48
33.55,7.79,-3.67,7.79,-3.67,3.67,0.00,5.12,11.46,11.46,11.45
33.89,7.78,-3.65,7.78,-3.65,3.65,0.00,5.06,11.43,11.43,11.43
34.23,7.78,-3.63,7.78,-3.63,3.63,0.00,5.01,11.41,11.41,11.41
34.57,7.78,-3.61,7.78,-3.61,3.62,0.00,4.94,11.40,11.40,11.40
34.92,7.78,-3.60,7.78,-3.60,3.60,0.00,4.87,11.38,11.38,11.38
35.27,7.77,-3.59,7.77,-3.59,3.59,0.00,4.80,11.36,11.36,11.37
35.62,7.77,-3.58,7.77,-3.58,3.58,0.00,4.73,11.35,11.35,11.35
35.97,7.76,-3.57,7.76,-3.57,3.57,0.00,4.65,11.33,11.33,11.33
36.33,7.75,-3.56,7.75,-3.56,3.56,0.00,4.57,11.31,11.31,11.31
36.70,7.75,-3.55,7.75,-3.55,3.55,0.00,4.48,11.30,11.30,11.30
37.06,7.74,-3.54,7.74,-3.54,3.54,0.00,4.40,11.28,11.28,11.28
37.43,7.73,-3.53,7.73,-3.53,3.53,0.00,4.31,11.26,11.26,11.26
37.81,7.72,-3.52,7.72,-3.52,3.52,0.00,4.23,11.24,11.24,11.24
38.19,7.71,-3.51,7.71,-3.51,3.51,0.00,4.14,11.22,11.22,11.22
38.57,7.70,-3.50,7.70,-3.50,3.50,0.00,4.06,11.20,11.20,11.20
38.95,7.69,-3.49,7.69,-3.49,3.48,0.00,3.97,11.17,11.17,11.17
39.34,7.68,-3.47,7.68,-3.47,3.47,0.00,3.89,11.15,11.15,11.15
39.74,7.67,-3.46,7.67,-3.46,3.46,0.00,3.81,11.13,11.12,11.12
40.14,7.66,-3.44,7.66,-3.44,3.44,0.00,3.73,11.10,11.10,11.10
40.54,7.65,-3.42,7.65,-3.42,3.43,0.00,3.65,11.07,11.07,11.07
40.94,7.63,-3.41,7.63,-3.41,3.41,0.00,3.57,11.04,11.04,11.04
41.35,7.62,-3.39,7.62,-3.39,3.40,0.00,3.50,11.01,11.01,11.01
41.76,7.60,-3.38,7.60,-3.38,3.38,0.00,3.42,10.98,10.98,10.98
42.18,7.59,-3.36,7.59,-3.36,3.36,0.00,3.35,10.95,10.95,10.95
42.60,7.57,-3.34,7.57,-3.34,3.34,0.00,3.28,10.91,10.91,10.91
43.03,7.56,-3.32,7.56,-3.32,3.32,0.00,3.22,10.88,10.88,10.88
43.46,7.54,-3.30,7.54,-3.30,3.30,0.00,3.15,10.84,10.84,10.84
43.90,7.53,-3.27,7.53,-3.27,3.27,0.00,3.09,10.80,10.80,10.81
44.33,7.52,-3.25,7.52,-3.25,3.24,0.00,3.03,10.77,10.77,10.77
44.78,7.51,-3.22,7.51,-3.22,3.21,0.00,2.97,10.72,10.72,10.73
45.23,7.50,-3.18,7.50,-3.18,3.18,0.00,2.92,10.68,10.68,10.68
45.68,7.49,-3.15,7.49,-3.15,3.14,0.00,2.87,10.64,10.64,10.64
46.13,7.48,-3.11,7.48,-3.11,3.11,0.00,2.81,10.59,10.59,10.59
46.60,7.47,-3.07,7.47,-3.07,3.07,0.00,2.77,10.55,10.55,10.54
47.06,7.46,-3.03,7.46,-3.03,3.04,0.00,2.72,10.50,10.50,10.49
47.53,7.44,-3.00,7.44,-3.00,3.01,0.00,2.68,10.45,10.45,10.44
48.01,7.42,-2.97,7.42,-2.97,2.97,0.00,2.64,10.39,10.39,10.39
48.49,7.40,-2.94,7.40,-2.94,2.94,0.00,2.60,10.34,10.34,10.34
48.97,7.38,-2.91,7.38,-2.91,2.91,0.00,2.56,10.29,10.29,10.29
49.46,7.36,-2.88,7.36,-2.88,2.88,0.00,2.52,10.24,10.24,10.24
49.96,7.35,-2.85,7.35,-2.85,2.85,0.00,2.49,10.19,10.19,10.19
50.46,7.33,-2.81,7.33,-2.81,2.81,0.00,2.46,10.14,10.14,10.14
50.96,7.31,-2.78,7.31,-2.78,2.78,0.00,2.43,10.09,10.09,10.09
51.47,7.29,-2.74,7.29,-2.74,2.74,0.00,2.40,10.03,10.03,10.03
51.99,7.26,-2.71,7.26,-2.71,2.71,0.00,2.37,9.97,9.97,9.97
52.51,7.24,-2.68,7.24,-2.67,2.67,0.00,2.34,9.91,9.91,9.91
53.03,7.22,-2.64,7.22,-2.64,2.63,0.00,2.32,9.85,9.85,9.85
53.56,7.19,-2.59,7.19,-2.59,2.59,0.00,2.29,9.79,9.79,9.79
54.10,7.17,-2.55,7.17,-2.55,2.55,0.00,2.27,9.72,9.72,9.72
54.64,7.15,-2.51,7.15,-2.51,2.51,0.00,2.25,9.66,9.66,9.66
55.18,7.12,-2.47,7.12,-2.47,2.47,0.00,2.22,9.59,9.59,9.59
55.74,7.10,-2.42,7.10,-2.42,2.42,0.00,2.20,9.52,9.52,9.52
56.29,7.08,-2.38,7.08,-2.38,2.38,0.00,2.18,9.46,9.46,9.46
56.86,7.06,-2.33,7.06,-2.33,2.33,0.00,2.16,9.39,9.39,9.39
57.42,7.04,-2.28,7.04,-2.28,2.29,0.00,2.14,9.33,9.33,9.32
58.00,7.02,-2.24,7.02,-2.24,2.24,0.00,2.12,9.26,9.26,9.26
58.58,6.99,-2.20,6.99,-2.20,2.20,0.00,2.09,9.20,9.20,9.20
59.16,6.97,-2.16,6.97,-2.16,2.16,0.00,2.07,9.13,9.13,9.13
59.76,6.95,-2.12,6.95,-2.12,2.12,0.00,2.05,9.07,9.07,9.07
60.35,6.92,-2.08,6.92,-2.08,2.08,0.00,2.03,9.00,9.00,9.00
60.96,6.90,-2.04,6.90,-2.04,2.04,0.00,2.00,8.93,8.93,8.94
61.57,6.87,-2.00,6.87,-2.00,1.99,0.00,1.98,8.87,8.87,8.87
62.18,6.85,-1.95,6.85,-1.95,1.95,0.00,1.95,8.80,8.80,8.80
62.80,6.82,-1.91,6.82,-1.91,1.91,0.00,1.93,8.73,8.73,8.73
63.43,6.80,-1.86,6.80,-1.86,1.86,0.00,1.90,8.66,8.66,8.66
64.07,6.77,-1.82,6.77,-1.82,1.82,0.00,1.87,8.59,8.59,8.59
64.71,6.75,-1.78,6.75,-1.78,1.78,0.00,1.84,8.52,8.52,8.52
65.35,6.72,-1.74,6.72,-1.74,1.74,0.00,1.81,8.45,8.45,8.45
66.01,6.69,-1.70,6.69,-1.70,1.70,0.00,1.78,8.38,8.38,8.38
66.67,6.65,-1.66,6.65,-1.66,1.66,0.00,1.75,8.31,8.31,8.31
67.33,6.62,-1.62,6.62,-1.62,1.62,0.00,1.72,8.24,8.24,8.24
68.01,6.59,-1.58,6.59,-1.58,1.58,0.00,1.69,8.17,8.17,8.17
68.69,6.56,-1.54,6.56,-1.54,1.54,0.00,1.65,8.10,8.10,8.10
69.37,6.53,-1.50,6.53,-1.50,1.50,0.00,1.62,8.03,8.03,8.03
70.07,6.50,-1.46,6.50,-1.46,1.46,0.00,1.58,7.96,7.96,7.96
70.77,6.47,-1.42,6.47,-1.42,1.42,0.00,1.55,7.89,7.89,7.89
71.48,6.44,-1.39,6.44,-1.39,1.38,0.00,1.51,7.83,7.83,7.83
72.19,6.41,-1.35,6.41,-1.35,1.34,0.00,1.48,7.75,7.75,7.76
72.91,6.38,-1.31,6.38,-1.31,1.30,0.00,1.44,7.68,7.68,7.69
73.64,6.35,-1.26,6.35,-1.26,1.26,0.00,1.41,7.60,7.60,7.61
74.38,6.31,-1.22,6.31,-1.22,1.21,0.00,1.37,7.52,7.52,7.53
75.12,6.28,-1.17,6.28,-1.17,1.17,0.00,1.34,7.44,7.44,7.45
75.87,6.24,-1.12,6.24,-1.12,1.12,0.00,1.30,7.36,7.36,7.37
76.63,6.21,-1.08,6.21,-1.08,1.08,0.00,1.27,7.28,7.28,7.29
77.40,6.17,-1.03,6.18,-1.03,1.04,0.00,1.24,7.21,7.21,7.21
78.17,6.14,-0.99,6.14,-0.99,1.00,0.00,1.20,7.14,7.14,7.14
78.95,6.11,-0.96,6.11,-0.96,0.97,0.00,1.17,7.08,7.08,7.07
79.74,6.07,-0.94,6.07,-0.94,0.95,0.00,1.13,7.02,7.02,7.01
80.54,6.03,-0.92,6.03,-0.92,0.94,0.00,1.10,6.97,6.97,6.95
81.35,5.99,-0.92,5.99,-0.92,0.92,0.00,1.07,6.91,6.91,6.91
82.16,5.95,-0.92,5.95,-0.92,0.92,0.00,1.04,6.86,6.86,6.87
82.98,5.91,-0.92,5.91,-0.92,0.91,0.00,1.01,6.82,6.82,6.82
83.81,5.87,-0.91,5.87,-0.91,0.89,0.00,0.98,6.76,6.76,6.78
84.65,5.83,-0.90,5.83,-0.90,0.88,0.00,0.95,6.71,6.71,6.73
85.50,5.80,-0.87,5.80,-0.87,0.86,0.00,0.92,6.66,6.66,6.67
86.35,5.77,-0.84,5.77,-0.84,0.84,0.00,0.89,6.60,6.60,6.61
87.22,5.73,-0.81,5.73,-0.81,0.81,0.00,0.86,6.54,6.54,6.54
88.09,5.69,-0.77,5.69,-0.77,0.79,0.00,0.83,6.48,6.48,6.46
88.97,5.65,-0.75,5.65,-0.75,0.77,0.00,0.81,6.42,6.42,6.40
89.86,5.60,-0.74,5.60,-0.74,0.76,0.00,0.78,6.36,6.36,6.34
90.76,5.55,-0.74,5.55,-0.74,0.75,0.00,0.75,6.30,6.30,6.29
91.66,5.51,-0.74,5.51,-0.74,0.74,0.00,0.73,6.25,6.25,6.25
92.58,5.47,-0.74,5.47,-0.74,0.73,0.00,0.70,6.20,6.20,6.21
93.51,5.43,-0.73,5.43,-0.73,0.71,0.00,0.68,6.14,6.14,6.16
94.44,5.39,-0.71,5.39,-0.71,0.69,0.00,0.66,6.08,6.08,6.10
95.39,5.35,-0.68,5.35,-0.68,0.66,0.00,0.63,6.01,6.01,6.03
96.34,5.30,-0.64,5.30,-0.64,0.63,0.00,0.61,5.93,5.93,5.95
97.30,5.26,-0.60,5.26,-0.59,0.59,0.00,0.59,5.85,5.85,5.85
98.28,5.21,-0.55,5.21,-0.55,0.57,0.00,0.57,5.77,5.77,5.76
99.26,5.16,-0.51,5.16,-0.51,0.54,0.00,0.55,5.70,5.71,5.67
100.25,5.12,-0.50,5.12,-0.50,0.53,0.00,0.52,5.65,5.65,5.61
101.25,5.07,-0.51,5.07,-0.51,0.52,0.00,0.50,5.60,5.60,5.58
102.27,5.03,-0.53,5.03,-0.53,0.53,0.00,0.48,5.56,5.56,5.56
103.29,4.99,-0.55,4.99,-0.55,0.53,0.00,0.47,5.52,5.52,5.54
104.32,4.95,-0.56,4.95,-0.56,0.55,0.00,0.45,5.50,5.50,5.51
105.37,4.91,-0.57,4.91,-0.57,0.56,0.00,0.43,5.47,5.47,5.48
106.42,4.87,-0.57,4.87,-0.57,0.57,0.00,0.41,5.43,5.43,5.44
107.48,4.83,-0.57,4.82,-0.57,0.57,0.00,0.39,5.39,5.39,5.40
108.56,4.78,-0.57,4.78,-0.57,0.57,0.00,0.38,5.35,5.35,5.34
109.64,4.72,-0.56,4.72,-0.56,0.57,0.00,0.36,5.29,5.29,5.29
110.74,4.67,-0.56,4.67,-0.56,0.56,0.00,0.35,5.23,5.23,5.23
111.85,4.62,-0.55,4.62,-0.55,0.56,0.00,0.33,5.17,5.17,5.17
112.97,4.56,-0.55,4.56,-0.55,0.55,0.00,0.31,5.11,5.11,5.11
114.10,4.51,-0.54,4.51,-0.54,0.54,0.00,0.30,5.06,5.06,5.06
115.24,4.46,-0.54,4.46,-0.54,0.54,0.00,0.29,5.00,5.00,5.00
116.39,4.41,-0.53,4.41,-0.53,0.53,0.00,0.27,4.94,4.94,4.94
117.55,4.36,-0.52,4.36,-0.52,0.53,0.00,0.26,4.88,4.88,4.88
118.73,4.31,-0.51,4.31,-0.51,0.52,0.00,0.25,4.83,4.82,4.82
119.92,4.26,-0.50,4.26,-0.50,0.50,0.00,0.24,4.76,4.76,4.76
121.12,4.21,-0.49,4.21,-0.49,0.49,0.00,0.22,4.70,4.70,4.70
122.33,4.17,-0.47,4.17,-0.47,0.47,0.00,0.21,4.64,4.64,4.64
123.55,4.14,-0.45,4.14,-0.45,0.44,0.00,0.20,4.58,4.58,4.59
124.79,4.11,-0.42,4.12,-0.42,0.41,0.00,0.19,4.52,4.52,4.53
126.03,4.10,-0.38,4.10,-0.38,0.37,0.00,0.18,4.47,4.47,4.48
127.29,4.09,-0.33,4.09,-0.33,0.33,0.00,0.18,4.42,4.42,4.42
128.57,4.08,-0.28,4.08,-0.28,0.28,0.00,0.17,4.36,4.36,4.36
129.85,4.08,-0.23,4.08,-0.23,0.23,0.00,0.16,4.31,4.31,4.30
131.15,4.07,-0.18,4.07,-0.18,0.19,0.00,0.15,4.25,4.25,4.24
132.46,4.05,-0.13,4.05,-0.14,0.14,0.00,0.14,4.19,4.19,4.19
133.79,4.03,-0.10,4.03,-0.10,0.10,0.00,0.14,4.13,4.13,4.13
135.12,4.00,-0.07,4.00,-0.07,0.07,0.00,0.13,4.07,4.07,4.07
136.48,3.97,-0.04,3.97,-0.04,0.04,0.00,0.12,4.01,4.01,4.00
137.84,3.93,-0.01,3.93,-0.01,0.01,0.00,0.12,3.94,3.94,3.94
139.22,3.89,0.01,3.89,0.01,-0.01,0.00,0.11,3.88,3.88,3.88
140.61,3.85,0.03,3.85,0.03,-0.03,0.00,0.11,3.82,3.82,3.82
142.02,3.80,0.04,3.81,0.04,-0.04,0.00,0.10,3.76,3.76,3.76
143.44,3.76,0.06,3.76,0.06,-0.06,0.00,0.10,3.70,3.70,3.70
144.87,3.71,0.07,3.71,0.07,-0.07,0.00,0.09,3.64,3.64,3.64
146.32,3.66,0.08,3.66,0.08,-0.08,0.00,0.09,3.58,3.58,3.58
147.78,3.61,0.09,3.61,0.09,-0.09,0.00,0.09,3.53,3.53,3.52
149.26,3.56,0.09,3.56,0.09,-0.09,0.00,0.08,3.47,3.47,3.47
150.75,3.51,0.09,3.51,0.09,-0.09,0.00,0.08,3.42,3.42,3.42
152.26,3.46,0.09,3.46,0.09,-0.09,0.00,0.08,3.38,3.38,3.37
153.78,3.41,0.08,3.41,0.08,-0.08,0.00,0.07,3.33,3.33,3.33
155.32,3.36,0.07,3.36,0.07,-0.06,0.00,0.07,3.30,3.30,3.29
156.88,3.31,0.05,3.31,0.05,-0.05,0.00,0.07,3.26,3.26,3.26
158.44,3.26,0.03,3.26,0.03,-0.03,0.00,0.06,3.23,3.23,3.23
160.03,3.21,0.01,3.21,0.01,-0.01,0.00,0.06,3.20,3.20,3.20
161.63,3.16,-0.01,3.16,-0.01,0.01,0.00,0.06,3.17,3.17,3.17
163.24,3.11,-0.03,3.11,-0.03,0.03,0.00,0.05,3.13,3.13,3.14
164.88,3.06,-0.04,3.06,-0.04,0.04,0.00,0.05,3.10,3.10,3.10
166.53,3.00,-0.05,3.00,-0.05,0.05,0.00,0.05,3.06,3.06,3.06
168.19,2.95,-0.06,2.95,-0.06,0.06,0.00,0.05,3.01,3.01,3.01
169.87,2.90,-0.06,2.90,-0.06,0.06,0.00,0.04,2.97,2.97,2.97
171.57,2.85,-0.06,2.85,-0.06,0.06,0.00,0.04,2.92,2.92,2.91
173.29,2.80,-0.06,2.80,-0.06,0.06,0.00,0.04,2.86,2.86,2.86
175.02,2.75,-0.06,2.75,-0.06,0.06,0.00,0.03,2.81,2.81,2.81
176.77,2.70,-0.05,2.70,-0.05,0.05,0.00,0.03,2.75,2.75,2.75
178.54,2.66,-0.04,2.66,-0.04,0.04,0.00,0.03,2.69,2.69,2.69
180.32,2.61,-0.02,2.61,-0.02,0.02,0.00,0.02,2.63,2.63,2.63
182.13,2.57,-0.01,2.57,-0.01,0.01,0.00,0.02,2.57,2.57,2.57
183.95,2.52,0.01,2.52,0.01,-0.01,0.00,0.02,2.51,2.51,2.51
185.79,2.48,0.03,2.48,0.03,-0.03,0.00,0.02,2.45,2.45,2.45
187.65,2.44,0.05,2.44,0.05,-0.05,0.00,0.01,2.39,2.39,2.39
189.52,2.40,0.07,2.40,0.07,-0.07,0.00,0.01,2.32,2.32,2.33
191.42,2.36,0.09,2.36,0.09,-0.10,0.00,0.01,2.26,2.26,2.27
193.33,2.31,0.11,2.31,0.11,-0.12,0.00,0.00,2.20,2.20,2.20
195.27,2.27,0.14,2.27,0.14,-0.14,0.00,0.00,2.13,2.13,2.14
197.22,2.23,0.16,2.23,0.16,-0.16,0.00,-0.00,2.07,2.07,2.07
199.19,2.19,0.18,2.19,0.18,-0.17,0.00,-0.01,2.01,2.01,2.00
201.18,2.14,0.19,2.14,0.19,-0.18,0.00,-0.01,1.96,1.96,1.95
203.19,2.09,0.20,2.09,0.19,-0.19,0.00,-0.01,1.91,1.91,1.90
205.23,2.05,0.19,2.05,0.19,-0.19,0.00,-0.02,1.86,1.86,1.86
207.28,2.00,0.18,2.00,0.18,-0.18,0.00,-0.02,1.82,1.82,1.82
209.35,1.95,0.17,1.95,0.17,-0.17,0.00,-0.02,1.79,1.78,1.78
211.44,1.90,0.15,1.90,0.15,-0.15,0.01,-0.03,1.76,1.76,1.75
213.56,1.85,0.13,1.85,0.13,-0.13,0.01,-0.03,1.73,1.73,1.72
215.69,1.81,0.10,1.81,0.10,-0.10,0.01,-0.03,1.71,1.71,1.70
217.85,1.76,0.08,1.76,0.08,-0.08,0.01,-0.03,1.68,1.68,1.68
220.03,1.71,0.05,1.71,0.05,-0.05,0.01,-0.04,1.66,1.66,1.66
222.23,1.67,0.03,1.67,0.03,-0.03,0.01,-0.04,1.64,1.64,1.64
224.45,1.63,0.01,1.63,0.01,-0.02,0.01,-0.04,1.61,1.61,1.62
226.70,1.58,-0.00,1.58,-0.00,-0.00,0.01,-0.05,1.58,1.58,1.59
228.96,1.54,-0.01,1.54,-0.01,0.00,0.01,-0.05,1.54,1.54,1.55
231.25,1.50,-0.00,1.50,-0.00,0.00,0.01,-0.05,1.50,1.50,1.51
233.57,1.46,0.00,1.46,0.00,-0.00,0.01,-0.05,1.46,1.46,1.46
235.90,1.43,0.01,1.42,0.01,-0.01,0.01,-0.06,1.42,1.42,1.41
238.26,1.38,0.02,1.38,0.02,-0.02,0.01,-0.06,1.37,1.37,1.36
240.64,1.34,0.03,1.34,0.03,-0.02,0.01,-0.06,1.32,1.32,1.31
243.05,1.30,0.04,1.30,0.04,-0.03,0.01,-0.06,1.27,1.27,1.27
245.48,1.26,0.04,1.26,0.04,-0.04,0.01,-0.06,1.22,1.22,1.22
247.93,1.22,0.04,1.22,0.04,-0.04,0.01,-0.06,1.18,1.18,1.18
250.41,1.17,0.04,1.17,0.04,-0.04,0.01,-0.07,1.13,1.13,1.13
252.92,1.13,0.04,1.13,0.04,-0.04,0.01,-0.07,1.09,1.09,1.09
255.45,1.09,0.04,1.09,0.04,-0.04,0.01,-0.07,1.05,1.05,1.05
258.00,1.05,0.04,1.05,0.04,-0.05,0.01,-0.07,1.00,1.00,1.01
260.58,1.01,0.05,1.01,0.05,-0.05,0.01,-0.07,0.96,0.96,0.96
263.19,0.97,0.05,0.97,0.05,-0.05,0.01,-0.07,0.92,0.92,0.92
265.82,0.93,0.06,0.93,0.06,-0.05,0.01,-0.07,0.87,0.87,0.87
268.48,0.88,0.06,0.88,0.06,-0.06,0.01,-0.07,0.83,0.83,0.82
271.16,0.84,0.06,0.84,0.06,-0.06,0.01,-0.07,0.78,0.78,0.78
273.87,0.80,0.07,0.80,0.07,-0.07,0.01,-0.07,0.74,0.74,0.74
276.61,0.76,0.07,0.76,0.07,-0.07,0.01,-0.07,0.69,0.69,0.69
279.38,0.72,0.07,0.72,0.07,-0.07,0.01,-0.07,0.65,0.65,0.65
282.17,0.68,0.07,0.68,0.07,-0.07,0.01,-0.07,0.61,0.61,0.61
284.99,0.64,0.08,0.64,0.08,-0.08,0.01,-0.07,0.57,0.57,0.57
287.84,0.61,0.08,0.61,0.08,-0.08,0.01,-0.07,0.53,0.53,0.53
290.72,0.57,0.08,0.57,0.08,-0.08,0.01,-0.07,0.49,0.49,0.49
293.63,0.53,0.08,0.53,0.08,-0.08,0.01,-0.07,0.45,0.45,0.45
296.57,0.49,0.09,0.49,0.09,-0.09,0.01,-0.07,0.41,0.41,0.41
299.53,0.45,0.09,0.45,0.09,-0.09,0.01,-0.07,0.37,0.37,0.37
302.53,0.42,0.09,0.42,0.09,-0.09,0.01,-0.07,0.33,0.33,0.33
305.55,0.38,0.09,0.38,0.09,-0.09,0.01,-0.07,0.29,0.29,0.29
308.61,0.34,0.10,0.34,0.10,-0.10,0.01,-0.07,0.25,0.25,0.25
311.69,0.31,0.10,0.31,0.10,-0.10,0.01,-0.07,0.21,0.21,0.21
314.81,0.27,0.10,0.27,0.10,-0.10,0.01,-0.07,0.17,0.17,0.17
317.96,0.24,0.10,0.24,0.10,-0.10,0.02,-0.07,0.14,0.14,0.13
321.14,0.20,0.10,0.20,0.10,-0.10,0.02,-0.07,0.10,0.10,0.10
324.35,0.17,0.10,0.17,0.10,-0.10,0.02,-0.07,0.06,0.06,0.06
327.59,0.13,0.10,0.13,0.10,-0.10,0.02,-0.07,0.03,0.03,0.03
330.87,0.09,0.10,0.09,0.10,-0.10,0.02,-0.07,-0.01,-0.01,-0.01
334.18,0.06,0.10,0.06,0.10,-0.10,0.02,-0.07,-0.04,-0.04,-0.04
337.52,0.03,0.10,0.03,0.10,-0.10,0.02,-0.07,-0.08,-0.08,-0.08
340.90,-0.01,0.10,-0.01,0.10,-0.10,0.02,-0.07,-0.11,-0.11,-0.11
344.30,-0.04,0.11,-0.04,0.11,-0.10,0.02,-0.07,-0.14,-0.15,-0.15
347.75,-0.07,0.11,-0.07,0.11,-0.11,0.02,-0.07,-0.18,-0.18,-0.18
351.23,-0.11,0.11,-0.11,0.11,-0.11,0.02,-0.07,-0.21,-0.21,-0.21
354.74,-0.14,0.11,-0.14,0.11,-0.11,0.02,-0.07,-0.24,-0.24,-0.25
358.28,-0.17,0.11,-0.17,0.11,-0.10,0.02,-0.07,-0.28,-0.28,-0.28
361.87,-0.20,0.10,-0.20,0.10,-0.10,0.02,-0.07,-0.31,-0.31,-0.31
365.49,-0.24,0.10,-0.24,0.10,-0.10,0.02,-0.08,-0.34,-0.34,-0.34
369.14,-0.27,0.10,-0.27,0.10,-0.10,0.02,-0.08,-0.37,-0.37,-0.37
372.83,-0.30,0.10,-0.30,0.10,-0.10,0.02,-0.08,-0.40,-0.40,-0.39
376.56,-0.33,0.10,-0.33,0.10,-0.10,0.02,-0.08,-0.42,-0.42,-0.42
380.33,-0.36,0.09,-0.36,0.10,-0.10,0.02,-0.08,-0.45,-0.45,-0.45
384.13,-0.39,0.09,-0.39,0.10,-0.10,0.02,-0.08,-0.48,-0.48,-0.48
387.97,-0.42,0.10,-0.42,0.10,-0.10,0.02,-0.08,-0.51,-0.51,-0.51
391.85,-0.45,0.10,-0.45,0.10,-0.10,0.03,-0.08,-0.54,-0.54,-0.54
395.77,-0.47,0.10,-0.47,0.10,-0.10,0.03,-0.08,-0.57,-0.57,-0.57
399.73,-0.50,0.10,-0.50,0.10,-0.10,0.03,-0.09,-0.60,-0.60,-0.60
403.72,-0.53,0.10,-0.53,0.10,-0.10,0.03,-0.09,-0.63,-0.63,-0.63
407.76,-0.56,0.10,-0.56,0.10,-0.10,0.03,-0.09,-0.65,-0.65,-0.65
411.84,-0.58,0.09,-0.58,0.09,-0.09,0.03,-0.09,-0.68,-0.68,-0.68
415.96,-0.61,0.09,-0.61,0.09,-0.09,0.03,-0.09,-0.70,-0.70,-0.70
420.12,-0.64,0.09,-0.64,0.09,-0.09,0.03,-0.09,-0.73,-0.73,-0.73
424.32,-0.66,0.09,-0.66,0.09,-0.09,0.03,-0.09,-0.75,-0.75,-0.75
428.56,-0.69,0.09,-0.69,0.09,-0.09,0.03,-0.10,-0.77,-0.77,-0.77
432.85,-0.71,0.09,-0.71,0.09,-0.09,0.03,-0.10,-0.80,-0.80,-0.80
437.18,-0.74,0.09,-0.74,0.09,-0.08,0.03,-0.10,-0.82,-0.82,-0.82
441.55,-0.76,0.08,-0.76,0.08,-0.08,0.03,-0.10,-0.84,-0.84,-0.84
445.96,-0.78,0.08,-0.78,0.08,-0.08,0.03,-0.10,-0.87,-0.87,-0.87
450.42,-0.81,0.08,-0.81,0.08,-0.08,0.03,-0.10,-0.89,-0.89,-0.89
454.93,-0.83,0.08,-0.83,0.08,-0.08,0.03,-0.10,-0.91,-0.91,-0.91
459.48,-0.85,0.07,-0.85,0.07,-0.07,0.03,-0.10,-0.93,-0.93,-0.93
464.07,-0.88,0.07,-0.88,0.07,-0.07,0.03,-0.10,-0.95,-0.95,-0.95
468.71,-0.90,0.07,-0.90,0.07,-0.07,0.04,-0.10,-0.97,-0.97,-0.97
473.40,-0.92,0.06,-0.92,0.06,-0.06,0.04,-0.10,-0.99,-0.99,-0.99
478.13,-0.94,0.06,-0.94,0.06,-0.06,0.04,-0.10,-1.00,-1.01,-1.00
482.91,-0.96,0.06,-0.96,0.06,-0.06,0.04,-0.10,-1.02,-1.02,-1.02
487.74,-0.99,0.05,-0.99,0.06,-0.06,0.04,-0.10,-1.04,-1.04,-1.04
492.62,-1.01,0.05,-1.01,0.05,-0.05,0.04,-0.10,-1.06,-1.06,-1.06
497.55,-1.02,0.05,-1.02,0.05,-0.05,0.04,-0.10,-1.07,-1.07,-1.07
502.52,-1.04,0.05,-1.04,0.05,-0.05,0.04,-0.09,-1.09,-1.09,-1.09
507.55,-1.06,0.04,-1.06,0.04,-0.04,0.04,-0.09,-1.10,-1.10,-1.10
512.62,-1.08,0.04,-1.08,0.04,-0.04,0.04,-0.09,-1.12,-1.12,-1.12
517.75,-1.10,0.03,-1.10,0.03,-0.03,0.05,-0.09,-1.13,-1.13,-1.13
522.93,-1.11,0.03,-1.11,0.03,-0.03,0.05,-0.09,-1.15,-1.15,-1.15
528.16,-1.13,0.03,-1.13,0.03,-0.03,0.05,-0.08,-1.16,-1.16,-1.16
