frequency,raw,error,smoothed,error_smoothed,equalization,parametric_eq,fixed_band_eq,equalized_raw,equalized_smoothed,target
20.00,10.40,3.97,10.40,3.97,-3.98,-3.93,-1.79,6.42,6.42,6.43
20.20,10.42,3.98,10.42,3.98,-3.98,-3.98,-1.85,6.45,6.45,6.45
20.40,10.44,3.98,10.44,3.98,-3.98,-4.04,-1.90,6.47,6.47,6.46
20.61,10.46,3.99,10.46,3.98,-3.98,-4.06,-1.96,6.49,6.49,6.48
20.81,10.48,3.98,10.48,3.98,-3.98,-4.08,-2.01,6.50,6.50,6.50
21.02,10.49,3.98,10.49,3.98,-3.98,-4.08,-2.07,6.52,6.52,6.51
21.23,10.51,3.98,10.51,3.98,-3.98,-4.07,-2.13,6.53,6.53,6.53
21.44,10.52,3.98,10.52,3.98,-3.98,-4.04,-2.20,6.54,6.54,6.54
21.66,10.53,3.98,10.53,3.98,-3.98,-4.01,-2.26,6.55,6.55,6.55
21.87,10.54,3.98,10.54,3.98,-3.98,-3.97,-2.33,6.56,6.56,6.56
22.09,10.55,3.98,10.55,3.98,-3.98,-3.93,-2.39,6.57,6.57,6.57
22.31,10.56,3.99,10.56,3.99,-3.99,-3.91,-2.46,6.58,6.58,6.58
22.54,10.58,3.99,10.58,3.99,-3.99,-3.89,-2.54,6.59,6.59,6.58
22.76,10.59,4.00,10.59,4.00,-4.00,-3.89,-2.61,6.60,6.60,6.59
22.99,10.61,4.00,10.61,4.00,-4.00,-3.90,-2.68,6.61,6.61,6.61
23.22,10.62,4.01,10.62,4.01,-4.01,-3.94,-2.76,6.61,6.61,6.62
23.45,10.64,4.02,10.64,4.02,-4.02,-3.97,-2.84,6.62,6.62,6.62
23.69,10.65,4.02,10.65,4.02,-4.03,-4.01,-2.92,6.62,6.62,6.63
23.92,10.66,4.03,10.66,4.03,-4.03,-4.05,-3.00,6.63,6.63,6.63
24.16,10.67,4.04,10.67,4.04,-4.04,-4.09,-3.09,6.63,6.63,6.63
24.40,10.68,4.05,10.68,4.05,-4.05,-4.12,-3.17,6.63,6.63,6.63
24.65,10.69,4.06,10.69,4.06,-4.06,-4.14,-3.26,6.64,6.64,6.63
24.89,10.70,4.06,10.70,4.06,-4.06,-4.16,-3.34,6.64,6.64,6.64
25.14,10.71,4.06,10.71,4.06,-4.06,-4.17,-3.43,6.65,6.65,6.65
25.39,10.72,4.06,10.72,4.06,-4.06,-4.17,-3.52,6.66,6.66,6.66
25.65,10.73,4.06,10.73,4.06,-4.06,-4.17,-3.61,6.67,6.67,6.67
25.91,10.74,4.06,10.74,4.06,-4.06,-4.16,-3.70,6.68,6.68,6.68
26.16,10.74,4.05,10.74,4.05,-4.06,-4.15,-3.78,6.69,6.69,6.69
26.43,10.75,4.05,10.75,4.05,-4.05,-4.13,-3.87,6.70,6.70,6.70
26.69,10.76,4.05,10.76,4.05,-4.05,-4.12,-3.96,6.70,6.70,6.71
26.96,10.76,4.05,10.76,4.05,-4.05,-4.10,-4.04,6.71,6.71,6.71
27.23,10.76,4.05,10.76,4.05,-4.05,-4.08,-4.13,6.71,6.71,6.72
27.50,10.77,4.05,10.77,4.05,-4.05,-4.07,-4.21,6.72,6.72,6.72
27.77,10.77,4.05,10.77,4.05,-4.05,-4.05,-4.29,6.72,6.72,6.72
28.05,10.78,4.05,10.78,4.05,-4.05,-4.03,-4.36,6.73,6.73,6.72
28.33,10.78,4.05,10.78,4.05,-4.05,-4.02,-4.43,6.73,6.73,6.73
28.62,10.79,4.05,10.79,4.05,-4.05,-4.00,-4.50,6.73,6.73,6.73
28.90,10.79,4.05,10.79,4.05,-4.05,-3.99,-4.57,6.74,6.74,6.74
29.19,10.79,4.05,10.79,4.05,-4.05,-3.98,-4.63,6.75,6.75,6.75
29.48,10.80,4.04,10.80,4.04,-4.04,-3.97,-4.68,6.75,6.75,6.75
29.78,10.80,4.04,10.80,4.04,-4.04,-3.96,-4.73,6.76,6.76,6.76
30.08,10.80,4.04,10.80,4.04,-4.03,-3.95,-4.77,6.77,6.77,6.77
30.38,10.81,4.03,10.81,4.03,-4.03,-3.94,-4.80,6.78,6.78,6.78
30.68,10.81,4.02,10.81,4.02,-4.02,-3.94,-4.83,6.79,6.79,6.79
30.99,10.81,4.02,10.81,4.02,-4.02,-3.93,-4.86,6.79,6.79,6.80
31.30,10.82,4.01,10.82,4.01,-4.02,-3.93,-4.87,6.80,6.80,6.80
31.61,10.82,4.01,10.82,4.01,-4.02,-3.92,-4.88,6.80,6.80,6.81
31.93,10.82,4.01,10.82,4.01,-4.01,-3.92,-4.88,6.81,6.81,6.81
32.24,10.83,4.01,10.83,4.01,-4.01,-3.92,-4.87,6.81,6.81,6.81
32.57,10.83,4.02,10.83,4.01,-4.01,-3.92,-4.86,6.82,6.82,6.81
32.89,10.83,4.01,10.83,4.01,-4.01,-3.92,-4.85,6.82,6.82,6.82
33.22,10.83,4.01,10.83,4.01,-4.00,-3.92,-4.82,6.82,6.82,6.82
33.55,10.83,4.00,10.83,4.00,-4.00,-3.92,-4.79,6.83,6.83,6.83
33.89,10.83,3.99,10.83,3.99,-3.99,-3.92,-4.76,6.83,6.83,6.84
34.23,10.82,3.98,10.82,3.98,-3.99,-3.92,-4.72,6.84,6.84,6.84
34.57,10.82,3.98,10.82,3.98,-3.98,-3.92,-4.68,6.84,6.84,6.84
34.92,10.82,3.98,10.82,3.98,-3.98,-3.92,-4.63,6.84,6.84,6.84
35.27,10.82,3.97,10.82,3.97,-3.97,-3.92,-4.58,6.85,6.85,6.85
35.62,10.81,3.97,10.81,3.97,-3.96,-3.92,-4.53,6.85,6.85,6.85
35.97,10.81,3.96,10.81,3.96,-3.96,-3.92,-4.47,6.85,6.85,6.85
36.33,10.80,3.95,10.80,3.95,-3.94,-3.92,-4.42,6.86,6.86,6.85
36.70,10.80,3.94,10.80,3.94,-3.93,-3.92,-4.36,6.87,6.87,6.86
37.06,10.79,3.92,10.79,3.92,-3.92,-3.92,-4.30,6.87,6.87,6.87
37.43,10.79,3.90,10.79,3.90,-3.90,-3.91,-4.25,6.88,6.88,6.89
37.81,10.78,3.88,10.78,3.88,-3.89,-3.91,-4.19,6.89,6.89,6.90
38.19,10.77,3.87,10.77,3.87,-3.87,-3.91,-4.13,6.90,6.90,6.91
38.57,10.77,3.86,10.77,3.86,-3.86,-3.91,-4.07,6.91,6.91,6.91
38.95,10.76,3.85,10.76,3.85,-3.85,-3.90,-4.02,6.91,6.91,6.91
39.34,10.75,3.84,10.75,3.84,-3.84,-3.90,-3.96,6.92,6.92,6.91
39.74,10.75,3.83,10.75,3.83,-3.83,-3.89,-3.91,6.92,6.92,6.92
40.14,10.74,3.82,10.74,3.82,-3.82,-3.89,-3.86,6.92,6.92,6.92
40.54,10.73,3.81,10.73,3.81,-3.81,-3.88,-3.81,6.92,6.92,6.92
40.94,10.73,3.80,10.73,3.80,-3.80,-3.88,-3.76,6.93,6.93,6.92
41.35,10.72,3.79,10.72,3.79,-3.79,-3.87,-3.72,6.93,6.93,6.93
41.76,10.72,3.78,10.72,3.78,-3.78,-3.86,-3.68,6.94,6.94,6.94
42.18,10.72,3.77,10.72,3.77,-3.77,-3.85,-3.64,6.95,6.95,6.95
42.60,10.72,3.75,10.71,3.76,-3.76,-3.84,-3.60,6.95,6.95,6.96
43.03,10.71,3.75,10.71,3.75,-3.75,-3.83,-3.56,6.96,6.96,6.96
43.46,10.70,3.74,10.70,3.74,-3.74,-3.82,-3.53,6.96,6.96,6.96
43.90,10.69,3.73,10.69,3.73,-3.73,-3.81,-3.50,6.96,6.96,6.96
44.33,10.68,3.72,10.68,3.72,-3.72,-3.79,-3.48,6.96,6.96,6.96
44.78,10.67,3.71,10.67,3.71,-3.71,-3.78,-3.45,6.96,6.96,6.96
45.23,10.66,3.70,10.66,3.70,-3.69,-3.77,-3.43,6.97,6.97,6.96
45.68,10.65,3.68,10.65,3.68,-3.68,-3.75,-3.41,6.97,6.97,6.97
46.13,10.63,3.66,10.63,3.66,-3.66,-3.74,-3.40,6.97,6.97,6.97
46.60,10.62,3.64,10.62,3.64,-3.65,-3.72,-3.38,6.97,6.97,6.98
47.06,10.61,3.63,10.61,3.63,-3.63,-3.70,-3.37,6.97,6.97,6.98
47.53,10.59,3.62,10.59,3.62,-3.62,-3.68,-3.36,6.98,6.98,6.97
48.01,10.58,3.60,10.58,3.60,-3.60,-3.67,-3.36,6.98,6.98,6.98
48.49,10.57,3.58,10.57,3.58,-3.58,-3.65,-3.35,6.99,6.99,6.99
48.97,10.56,3.56,10.56,3.56,-3.56,-3.63,-3.35,7.00,7.00,7.00
49.46,10.55,3.54,10.55,3.54,-3.55,-3.61,-3.35,7.00,7.00,7.01
49.96,10.54,3.52,10.54,3.52,-3.53,-3.58,-3.35,7.01,7.01,7.01
50.46,10.52,3.51,10.52,3.51,-3.51,-3.56,-3.36,7.01,7.01,7.01
50.96,10.51,3.49,10.51,3.49,-3.49,-3.54,-3.36,7.02,7.02,7.02
51.47,10.50,3.48,10.50,3.48,-3.47,-3.52,-3.37,7.02,7.02,7.02
51.99,10.49,3.47,10.48,3.46,-3.46,-3.49,-3.38,7.03,7.03,7.02
52.51,10.47,3.45,10.47,3.44,-3.44,-3.47,-3.39,7.03,7.03,7.03
53.03,10.47,3.42,10.47,3.42,-3.43,-3.44,-3.40,7.03,7.03,7.05
53.56,10.46,3.40,10.46,3.40,-3.42,-3.42,-3.41,7.04,7.04,7.06
54.10,10.46,3.39,10.46,3.40,-3.40,-3.39,-3.42,7.05,7.05,7.06
54.64,10.45,3.40,10.45,3.40,-3.39,-3.37,-3.43,7.06,7.06,7.05
55.18,10.44,3.39,10.43,3.39,-3.37,-3.34,-3.44,7.07,7.07,7.04
55.74,10.41,3.36,10.41,3.36,-3.34,-3.32,-3.44,7.07,7.07,7.05
56.29,10.38,3.32,10.38,3.32,-3.32,-3.29,-3.45,7.07,7.07,7.06
56.86,10.35,3.28,10.35,3.28,-3.29,-3.26,-3.46,7.06,7.06,7.07
57.42,10.32,3.25,10.32,3.25,-3.26,-3.24,-3.46,7.06,7.06,7.07
58.00,10.29,3.22,10.29,3.22,-3.23,-3.21,-3.47,7.06,7.06,7.07
58.58,10.27,3.20,10.26,3.19,-3.20,-3.18,-3.47,7.06,7.06,7.07
59.16,10.24,3.17,10.24,3.16,-3.18,-3.15,-3.46,7.06,7.06,7.07
59.76,10.22,3.14,10.22,3.14,-3.15,-3.13,-3.46,7.07,7.07,7.08
60.35,10.19,3.12,10.19,3.13,-3.13,-3.10,-3.45,7.07,7.07,7.07
60.96,10.17,3.12,10.17,3.12,-3.10,-3.07,-3.44,7.07,7.07,7.05
61.57,10.15,3.11,10.15,3.10,-3.08,-3.04,-3.43,7.07,7.07,7.04
62.18,10.13,3.05,10.13,3.06,-3.05,-3.01,-3.41,7.07,7.07,7.07
62.80,10.10,3.00,10.10,3.01,-3.03,-2.98,-3.39,7.08,7.08,7.10
63.43,10.08,2.98,10.08,2.98,-3.00,-2.96,-3.37,7.08,7.08,7.10
64.07,10.06,2.97,10.06,2.96,-2.98,-2.93,-3.34,7.08,7.08,7.09
64.71,10.04,2.95,10.04,2.95,-2.95,-2.90,-3.31,7.08,7.08,7.09
65.35,10.02,2.94,10.02,2.94,-2.93,-2.87,-3.28,7.08,7.08,7.08
66.01,9.99,2.92,9.99,2.92,-2.91,-2.84,-3.24,7.08,7.08,7.08
66.67,9.97,2.90,9.97,2.90,-2.89,-2.81,-3.20,7.08,7.08,7.07
67.33,9.94,2.87,9.94,2.87,-2.87,-2.79,-3.16,7.07,7.07,7.07
68.01,9.91,2.85,9.91,2.85,-2.84,-2.76,-3.12,7.07,7.07,7.07
68.69,9.88,2.82,9.88,2.82,-2.81,-2.73,-3.07,7.07,7.07,7.07
69.37,9.85,2.79,9.85,2.79,-2.79,-2.70,-3.02,7.07,7.07,7.07
70.07,9.82,2.75,9.82,2.75,-2.76,-2.67,-2.97,7.07,7.07,7.07
70.77,9.79,2.72,9.79,2.72,-2.73,-2.65,-2.92,7.07,7.07,7.07
71.48,9.76,2.69,9.76,2.69,-2.70,-2.62,-2.86,7.07,7.07,7.07
72.19,9.73,2.67,9.73,2.67,-2.67,-2.59,-2.81,7.06,7.06,7.07
72.91,9.71,2.65,9.71,2.65,-2.64,-2.56,-2.75,7.06,7.06,7.05
73.64,9.68,2.62,9.68,2.62,-2.62,-2.53,-2.70,7.06,7.06,7.05
74.38,9.65,2.59,9.65,2.59,-2.59,-2.51,-2.64,7.06,7.06,7.06
75.12,9.62,2.55,9.62,2.56,-2.56,-2.48,-2.59,7.06,7.06,7.07
75.87,9.59,2.54,9.59,2.53,-2.54,-2.45,-2.53,7.06,7.06,7.06
76.63,9.57,2.51,9.57,2.51,-2.51,-2.42,-2.48,7.06,7.06,7.06
77.40,9.54,2.47,9.54,2.48,-2.48,-2.40,-2.42,7.06,7.06,7.06
78.17,9.51,2.45,9.51,2.45,-2.45,-2.37,-2.37,7.06,7.07,7.06
78.95,9.48,2.42,9.48,2.42,-2.41,-2.34,-2.31,7.07,7.07,7.06
79.74,9.45,2.38,9.45,2.38,-2.38,-2.31,-2.26,7.07,7.07,7.07
80.54,9.42,2.34,9.42,2.35,-2.35,-2.29,-2.21,7.07,7.07,7.07
81.35,9.38,2.31,9.38,2.31,-2.31,-2.26,-2.16,7.07,7.07,7.07
82.16,9.34,2.27,9.34,2.27,-2.27,-2.23,-2.11,7.07,7.07,7.07
82.98,9.30,2.23,9.30,2.23,-2.23,-2.20,-2.06,7.07,7.07,7.07
83.81,9.26,2.19,9.26,2.19,-2.19,-2.17,-2.01,7.07,7.07,7.06
84.65,9.21,2.15,9.21,2.15,-2.15,-2.15,-1.96,7.07,7.07,7.06
85.50,9.17,2.11,9.17,2.10,-2.10,-2.12,-1.92,7.06,7.06,7.06
86.35,9.12,2.06,9.12,2.06,-2.06,-2.09,-1.88,7.06,7.06,7.06
87.22,9.07,2.01,9.07,2.02,-2.02,-2.06,-1.83,7.05,7.05,7.06
88.09,9.03,1.97,9.03,1.97,-1.98,-2.03,-1.79,7.05,7.05,7.05
88.97,8.98,1.94,8.98,1.93,-1.94,-2.00,-1.75,7.05,7.05,7.05
89.86,8.94,1.90,8.94,1.90,-1.90,-1.97,-1.72,7.05,7.05,7.04
90.76,8.90,1.85,8.90,1.85,-1.85,-1.94,-1.68,7.05,7.05,7.04
91.66,8.85,1.81,8.85,1.81,-1.81,-1.91,-1.64,7.04,7.04,7.04
92.58,8.80,1.77,8.80,1.76,-1.76,-1.88,-1.61,7.04,7.04,7.04
93.51,8.75,1.72,8.75,1.71,-1.71,-1.85,-1.58,7.04,7.04,7.03
94.44,8.69,1.66,8.69,1.66,-1.65,-1.82,-1.55,7.04,7.04,7.03
95.39,8.63,1.61,8.63,1.60,-1.60,-1.78,-1.52,7.03,7.03,7.02
96.34,8.57,1.55,8.57,1.55,-1.55,-1.75,-1.49,7.02,7.02,7.02
97.30,8.51,1.49,8.51,1.49,-1.50,-1.72,-1.46,7.01,7.01,7.02
98.28,8.46,1.44,8.46,1.44,-1.46,-1.68,-1.43,7.00,7.00,7.02
99.26,8.42,1.40,8.42,1.41,-1.43,-1.65,-1.41,6.99,6.99,7.01
100.25,8.40,1.39,8.40,1.39,-1.40,-1.62,-1.38,7.00,7.00,7.01
101.25,8.39,1.39,8.39,1.38,-1.38,-1.58,-1.36,7.01,7.00,7.00
102.27,8.38,1.38,8.38,1.38,-1.37,-1.55,-1.34,7.01,7.01,7.00
103.29,8.36,1.37,8.36,1.37,-1.36,-1.51,-1.31,7.00,7.00,6.99
104.32,8.34,1.35,8.35,1.36,-1.35,-1.48,-1.29,6.99,6.99,6.99
105.37,8.33,1.35,8.33,1.35,-1.35,-1.44,-1.27,6.98,6.99,6.98
106.42,8.32,1.34,8.32,1.34,-1.33,-1.41,-1.25,6.98,6.98,6.98
107.48,8.30,1.33,8.30,1.32,-1.32,-1.37,-1.23,6.99,6.98,6.98
108.56,8.28,1.31,8.28,1.31,-1.30,-1.33,-1.21,6.98,6.98,6.97
109.64,8.25,1.28,8.25,1.28,-1.28,-1.30,-1.19,6.97,6.97,6.97
110.74,8.22,1.25,8.21,1.25,-1.26,-1.26,-1.17,6.96,6.96,6.96
111.85,8.18,1.22,8.18,1.23,-1.24,-1.22,-1.15,6.94,6.95,6.96
112.97,8.15,1.20,8.15,1.20,-1.22,-1.19,-1.13,6.94,6.94,6.95
114.10,8.13,1.19,8.13,1.19,-1.20,-1.15,-1.11,6.93,6.93,6.94
115.24,8.12,1.18,8.12,1.18,-1.18,-1.11,-1.08,6.93,6.94,6.94
116.39,8.10,1.17,8.10,1.17,-1.16,-1.07,-1.06,6.94,6.94,6.93
117.55,8.09,1.16,8.08,1.15,-1.15,-1.03,-1.04,6.94,6.94,6.93
118.73,8.06,1.13,8.06,1.13,-1.12,-1.00,-1.02,6.93,6.93,6.92
119.92,8.02,1.10,8.02,1.10,-1.10,-0.96,-0.99,6.92,6.93,6.92
121.12,7.98,1.07,7.98,1.07,-1.06,-0.92,-0.97,6.92,6.91,6.91
122.33,7.93,1.02,7.93,1.03,-1.03,-0.88,-0.94,6.90,6.91,6.91
123.55,7.88,0.98,7.88,0.98,-0.98,-0.84,-0.91,6.90,6.90,6.90
124.79,7.83,0.94,7.83,0.94,-0.94,-0.80,-0.89,6.89,6.89,6.89
126.03,7.78,0.89,7.78,0.89,-0.89,-0.77,-0.86,6.88,6.88,6.88
127.29,7.72,0.84,7.72,0.85,-0.85,-0.73,-0.83,6.88,6.88,6.88
128.57,7.67,0.80,7.67,0.80,-0.80,-0.69,-0.80,6.87,6.87,6.87
129.85,7.62,0.75,7.62,0.75,-0.75,-0.65,-0.76,6.86,6.86,6.86
131.15,7.56,0.71,7.56,0.71,-0.71,-0.61,-0.73,6.85,6.85,6.86
132.46,7.51,0.66,7.51,0.66,-0.66,-0.57,-0.69,6.85,6.85,6.85
133.79,7.46,0.62,7.46,0.62,-0.62,-0.53,-0.66,6.84,6.84,6.84
135.12,7.41,0.58,7.41,0.58,-0.58,-0.50,-0.62,6.83,6.83,6.83
136.48,7.36,0.53,7.36,0.53,-0.53,-0.46,-0.58,6.82,6.82,6.82
137.84,7.30,0.49,7.30,0.49,-0.49,-0.42,-0.54,6.81,6.81,6.82
139.22,7.25,0.45,7.25,0.45,-0.45,-0.38,-0.50,6.80,6.80,6.80
140.61,7.20,0.40,7.20,0.40,-0.40,-0.34,-0.46,6.80,6.80,6.80
142.02,7.15,0.36,7.15,0.36,-0.36,-0.30,-0.42,6.79,6.79,6.79
143.44,7.09,0.32,7.09,0.32,-0.31,-0.26,-0.38,6.78,6.78,6.78
144.87,7.04,0.27,7.04,0.27,-0.26,-0.23,-0.33,6.77,6.77,6.77
146.32,6.98,0.22,6.98,0.22,-0.22,-0.19,-0.29,6.76,6.76,6.76
147.78,6.92,0.17,6.92,0.17,-0.17,-0.15,-0.24,6.75,6.75,6.75
149.26,6.86,0.12,6.86,0.12,-0.12,-0.11,-0.20,6.74,6.74,6.74
150.75,6.79,0.07,6.79,0.07,-0.07,-0.07,-0.15,6.73,6.73,6.73
152.26,6.73,0.02,6.73,0.02,-0.02,-0.03,-0.10,6.71,6.71,6.72
153.78,6.68,-0.03,6.68,-0.03,0.03,0.01,-0.06,6.70,6.70,6.71
155.32,6.62,-0.07,6.62,-0.07,0.07,0.04,-0.01,6.69,6.69,6.69
156.88,6.56,-0.12,6.56,-0.12,0.12,0.08,0.04,6.68,6.68,6.68
158.44,6.51,-0.16,6.51,-0.16,0.16,0.12,0.09,6.67,6.67,6.67
160.03,6.45,-0.21,6.45,-0.21,0.21,0.16,0.14,6.66,6.66,6.66
161.63,6.40,-0.25,6.40,-0.25,0.25,0.20,0.19,6.65,6.65,6.65
163.24,6.34,-0.30,6.34,-0.30,0.30,0.24,0.24,6.64,6.64,6.63
164.88,6.28,-0.34,6.28,-0.34,0.35,0.28,0.29,6.63,6.62,6.62
166.53,6.21,-0.39,6.21,-0.40,0.40,0.32,0.34,6.61,6.61,6.61
168.19,6.15,-0.44,6.15,-0.45,0.44,0.36,0.39,6.59,6.59,6.59
169.87,6.09,-0.49,6.09,-0.49,0.49,0.40,0.44,6.58,6.58,6.58
171.57,6.03,-0.54,6.02,-0.54,0.54,0.44,0.49,6.56,6.56,6.56
173.29,5.97,-0.58,5.97,-0.58,0.58,0.48,0.55,6.55,6.55,6.55
175.02,5.91,-0.62,5.91,-0.62,0.62,0.52,0.60,6.53,6.53,6.53
176.77,5.86,-0.66,5.86,-0.66,0.66,0.56,0.65,6.51,6.51,6.52
178.54,5.81,-0.69,5.81,-0.69,0.69,0.60,0.71,6.50,6.50,6.50
180.32,5.76,-0.72,5.76,-0.72,0.71,0.64,0.76,6.48,6.48,6.48
182.13,5.72,-0.74,5.72,-0.74,0.74,0.68,0.82,6.46,6.46,6.46
183.95,5.68,-0.76,5.68,-0.76,0.76,0.72,0.88,6.44,6.44,6.44
185.79,5.65,-0.78,5.65,-0.78,0.77,0.77,0.93,6.42,6.42,6.42
187.65,5.61,-0.79,5.61,-0.79,0.78,0.81,0.99,6.39,6.39,6.40
189.52,5.58,-0.80,5.58,-0.80,0.79,0.85,1.05,6.37,6.37,6.38
191.42,5.54,-0.81,5.54,-0.81,0.80,0.90,1.11,6.34,6.34,6.35
193.33,5.51,-0.82,5.51,-0.82,0.81,0.94,1.16,6.32,6.32,6.33
195.27,5.48,-0.83,5.48,-0.83,0.83,0.98,1.22,6.30,6.31,6.31
197.22,5.44,-0.84,5.44,-0.85,0.86,1.03,1.28,6.30,6.30,6.28
199.19,5.40,-0.87,5.40,-0.88,0.90,1.07,1.34,6.29,6.29,6.27
201.18,5.34,-0.93,5.34,-0.93,0.96,1.12,1.40,6.30,6.30,6.27
203.19,5.28,-1.00,5.28,-1.00,1.03,1.17,1.46,6.31,6.31,6.28
205.23,5.22,-1.10,5.22,-1.10,1.11,1.21,1.52,6.33,6.33,6.31
207.28,5.15,-1.21,5.15,-1.21,1.21,1.26,1.58,6.36,6.36,6.36
209.35,5.09,-1.32,5.09,-1.32,1.30,1.31,1.64,6.39,6.39,6.41
211.44,5.02,-1.43,5.02,-1.42,1.40,1.36,1.70,6.42,6.42,6.45
213.56,4.96,-1.52,4.96,-1.51,1.49,1.41,1.75,6.45,6.45,6.48
215.69,4.90,-1.58,4.90,-1.59,1.57,1.46,1.81,6.46,6.46,6.48
217.85,4.84,-1.64,4.84,-1.65,1.63,1.51,1.87,6.47,6.47,6.48
220.03,4.78,-1.70,4.78,-1.69,1.69,1.56,1.92,6.47,6.47,6.47
222.23,4.72,-1.73,4.72,-1.73,1.73,1.61,1.98,6.45,6.45,6.45
224.45,4.66,-1.77,4.66,-1.77,1.77,1.66,2.03,6.44,6.44,6.43
226.70,4.61,-1.80,4.61,-1.80,1.81,1.71,2.08,6.42,6.41,6.41
228.96,4.55,-1.84,4.55,-1.84,1.84,1.76,2.13,6.39,6.39,6.38
231.25,4.49,-1.88,4.49,-1.88,1.88,1.81,2.18,6.37,6.37,6.36
233.57,4.43,-1.92,4.43,-1.91,1.92,1.86,2.23,6.35,6.35,6.35
235.90,4.37,-1.95,4.37,-1.95,1.95,1.91,2.27,6.32,6.32,6.32
238.26,4.31,-1.99,4.31,-1.99,1.99,1.96,2.31,6.30,6.30,6.30
240.64,4.25,-2.03,4.25,-2.03,2.03,2.01,2.35,6.28,6.28,6.28
243.05,4.19,-2.07,4.19,-2.07,2.07,2.06,2.38,6.26,6.26,6.26
245.48,4.12,-2.11,4.12,-2.11,2.11,2.11,2.42,6.23,6.23,6.24
247.93,4.06,-2.15,4.06,-2.15,2.15,2.16,2.45,6.21,6.21,6.21
250.41,4.00,-2.19,4.00,-2.19,2.19,2.21,2.48,6.19,6.19,6.19
252.92,3.94,-2.23,3.94,-2.23,2.23,2.26,2.50,6.16,6.16,6.16
255.45,3.88,-2.27,3.88,-2.27,2.27,2.30,2.52,6.14,6.14,6.14
258.00,3.81,-2.30,3.81,-2.30,2.30,2.35,2.55,6.12,6.12,6.12
260.58,3.75,-2.34,3.75,-2.34,2.34,2.39,2.56,6.09,6.09,6.09
263.19,3.69,-2.38,3.69,-2.38,2.38,2.43,2.58,6.07,6.07,6.07
265.82,3.63,-2.42,3.63,-2.42,2.42,2.47,2.59,6.05,6.05,6.05
268.48,3.57,-2.45,3.57,-2.45,2.45,2.51,2.60,6.02,6.02,6.02
271.16,3.51,-2.49,3.51,-2.49,2.49,2.55,2.61,6.00,6.00,6.00
273.87,3.45,-2.53,3.45,-2.53,2.53,2.59,2.62,5.98,5.98,5.98
276.61,3.39,-2.56,3.39,-2.56,2.56,2.62,2.63,5.95,5.95,5.95
279.38,3.33,-2.60,3.33,-2.60,2.60,2.65,2.64,5.93,5.93,5.93
282.17,3.27,-2.64,3.27,-2.64,2.64,2.69,2.64,5.91,5.91,5.90
284.99,3.21,-2.67,3.21,-2.67,2.67,2.72,2.64,5.88,5.88,5.88
287.84,3.15,-2.71,3.15,-2.71,2.71,2.75,2.65,5.85,5.85,5.85
290.72,3.09,-2.74,3.09,-2.74,2.74,2.78,2.65,5.83,5.83,5.83
293.63,3.03,-2.78,3.03,-2.78,2.77,2.80,2.66,5.80,5.80,5.81
296.57,2.97,-2.81,2.97,-2.81,2.81,2.83,2.66,5.78,5.78,5.78
299.53,2.91,-2.84,2.91,-2.84,2.84,2.86,2.67,5.75,5.75,5.75
302.53,2.85,-2.87,2.85,-2.87,2.87,2.88,2.67,5.73,5.73,5.73
305.55,2.80,-2.90,2.80,-2.90,2.90,2.91,2.68,5.70,5.70,5.70
308.61,2.74,-2.94,2.74,-2.94,2.94,2.94,2.68,5.67,5.67,5.67
311.69,2.68,-2.97,2.68,-2.97,2.97,2.96,2.69,5.65,5.65,5.65
314.81,2.62,-3.00,2.62,-3.00,3.00,2.99,2.70,5.62,5.62,5.62
317.96,2.57,-3.03,2.57,-3.03,3.03,3.01,2.71,5.59,5.59,5.59
321.14,2.51,-3.06,2.51,-3.06,3.06,3.04,2.73,5.57,5.57,5.57
324.35,2.45,-3.08,2.45,-3.08,3.08,3.07,2.74,5.54,5.54,5.54
327.59,2.40,-3.11,2.40,-3.11,3.11,3.09,2.76,5.51,5.51,5.51
330.87,2.34,-3.14,2.34,-3.14,3.14,3.12,2.78,5.48,5.48,5.48
334.18,2.28,-3.17,2.28,-3.17,3.17,3.14,2.80,5.45,5.45,5.45
337.52,2.22,-3.19,2.22,-3.19,3.19,3.17,2.82,5.42,5.42,5.42
340.90,2.17,-3.22,2.17,-3.22,3.22,3.20,2.85,5.39,5.39,5.39
344.30,2.11,-3.25,2.11,-3.25,3.25,3.22,2.87,5.35,5.35,5.36
347.75,2.05,-3.27,2.05,-3.27,3.27,3.25,2.90,5.32,5.32,5.32
351.23,1.99,-3.30,1.99,-3.30,3.29,3.28,2.94,5.29,5.29,5.29
354.74,1.94,-3.32,1.94,-3.32,3.32,3.30,2.97,5.25,5.25,5.25
358.28,1.88,-3.34,1.88,-3.34,3.34,3.33,3.01,5.22,5.22,5.22
361.87,1.82,-3.36,1.82,-3.36,3.36,3.36,3.05,5.19,5.19,5.19
365.49,1.77,-3.39,1.77,-3.39,3.39,3.38,3.09,5.16,5.16,5.16
369.14,1.71,-3.42,1.71,-3.42,3.42,3.41,3.13,5.14,5.14,5.13
372.83,1.66,-3.45,1.66,-3.45,3.46,3.44,3.18,5.12,5.12,5.11
376.56,1.60,-3.48,1.60,-3.49,3.49,3.47,3.22,5.10,5.10,5.09
380.33,1.55,-3.53,1.55,-3.53,3.53,3.49,3.27,5.08,5.08,5.08
384.13,1.50,-3.57,1.50,-3.57,3.57,3.52,3.33,5.07,5.07,5.07
387.97,1.44,-3.62,1.44,-3.62,3.61,3.55,3.38,5.05,5.05,5.06
391.85,1.39,-3.65,1.39,-3.66,3.65,3.57,3.44,5.03,5.03,5.04
395.77,1.33,-3.69,1.33,-3.69,3.68,3.60,3.49,5.01,5.01,5.02
399.73,1.28,-3.71,1.28,-3.71,3.70,3.62,3.55,4.98,4.98,4.99
403.72,1.23,-3.73,1.23,-3.73,3.73,3.65,3.61,4.95,4.95,4.95
407.76,1.17,-3.75,1.17,-3.75,3.75,3.67,3.67,4.92,4.92,4.92
411.84,1.12,-3.76,1.12,-3.76,3.76,3.69,3.73,4.88,4.88,4.88
415.96,1.07,-3.77,1.07,-3.77,3.78,3.72,3.80,4.85,4.85,4.85
420.12,1.02,-3.79,1.02,-3.79,3.79,3.74,3.86,4.81,4.81,4.81
424.32,0.97,-3.80,0.97,-3.80,3.81,3.76,3.92,4.78,4.78,4.77
428.56,0.92,-3.82,0.92,-3.82,3.82,3.78,3.98,4.74,4.74,4.74
432.85,0.87,-3.84,0.87,-3.84,3.84,3.80,4.04,4.71,4.71,4.71
437.18,0.82,-3.86,0.82,-3.85,3.86,3.82,4.10,4.67,4.67,4.67
441.55,0.77,-3.87,0.77,-3.87,3.87,3.84,4.16,4.64,4.64,4.64
445.96,0.72,-3.89,0.72,-3.89,3.89,3.86,4.21,4.61,4.61,4.61
450.42,0.67,-3.90,0.67,-3.90,3.90,3.88,4.27,4.57,4.57,4.57
454.93,0.62,-3.92,0.62,-3.92,3.92,3.89,4.32,4.54,4.54,4.54
459.48,0.57,-3.93,0.57,-3.93,3.93,3.91,4.36,4.50,4.50,4.50
464.07,0.53,-3.94,0.53,-3.94,3.94,3.92,4.41,4.46,4.46,4.46
468.71,0.48,-3.94,0.48,-3.94,3.95,3.94,4.44,4.42,4.42,4.42
473.40,0.43,-3.95,0.43,-3.95,3.95,3.95,4.48,4.39,4.39,4.38
478.13,0.39,-3.96,0.39,-3.96,3.96,3.96,4.51,4.35,4.35,4.34
482.91,0.34,-3.96,0.34,-3.96,3.96,3.97,4.53,4.30,4.30,4.30
487.74,0.30,-3.97,0.30,-3.97,3.97,3.98,4.55,4.26,4.26,4.26
492.62,0.25,-3.97,0.25,-3.97,3.97,3.99,4.56,4.22,4.22,4.22
497.55,0.21,-3.97,0.21,-3.97,3.97,3.99,4.57,4.18,4.18,4.18
502.52,0.16,-3.97,0.16,-3.97,3.97,4.00,4.57,4.14,4.14,4.14
507.55,0.12,-3.98,0.12,-3.98,3.98,4.00,4.56,4.10,4.10,4.10
512.62,0.08,-3.98,0.08,-3.98,3.98,4.01,4.55,4.05,4.05,4.06
517.75,0.04,-3.98,0.04,-3.98,3.98,4.01,4.54,4.01,4.01,4.01
522.93,-0.00,-3.97,-0.01,-3.97,3.97,4.01,4.51,3.97,3.97,3.97
528.16,-0.05,-3.97,-0.05,-3.97,3.97,4.01,4.49,3.93,3.93,3.93
533.44,-0.09,-3.97,-0.09,-3.97,3.97,4.01,4.46,3.88,3.88,3.88
