frequency,raw,error,smoothed,error_smoothed,equalization,parametric_eq,fixed_band_eq,equalized_raw,equalized_smoothed,target
20.00,9.51,0.29,9.51,0.30,-0.30,0.40,0.30,9.21,9.21,9.21
20.20,9.48,0.27,9.48,0.26,-0.26,0.41,0.30,9.21,9.21,9.21
20.40,9.45,0.23,9.45,0.23,-0.23,0.41,0.31,9.22,9.22,9.22
20.61,9.42,0.20,9.42,0.20,-0.19,0.42,0.32,9.23,9.23,9.22
20.81,9.39,0.16,9.39,0.16,-0.16,0.43,0.33,9.23,9.23,9.23
21.02,9.36,0.12,9.36,0.12,-0.12,0.44,0.34,9.23,9.23,9.23
21.23,9.33,0.09,9.33,0.09,-0.09,0.45,0.35,9.23,9.24,9.24
21.44,9.30,0.05,9.30,0.05,-0.06,0.46,0.35,9.24,9.24,9.25
21.66,9.28,0.02,9.28,0.02,-0.03,0.46,0.36,9.25,9.25,9.25
21.87,9.26,-0.00,9.26,-0.00,0.01,0.47,0.37,9.26,9.26,9.26
22.09,9.24,-0.03,9.24,-0.03,0.04,0.48,0.38,9.27,9.27,9.27
22.31,9.22,-0.06,9.22,-0.06,0.07,0.49,0.39,9.28,9.28,9.28
22.54,9.19,-0.09,9.19,-0.09,0.10,0.50,0.40,9.29,9.29,9.29
22.76,9.17,-0.13,9.17,-0.13,0.13,0.51,0.41,9.30,9.30,9.30
22.99,9.14,-0.16,9.14,-0.16,0.16,0.52,0.42,9.30,9.30,9.30
23.22,9.12,-0.19,9.12,-0.19,0.18,0.53,0.43,9.30,9.30,9.31
23.45,9.09,-0.22,9.09,-0.22,0.21,0.54,0.45,9.30,9.30,9.31
23.69,9.08,-0.24,9.08,-0.24,0.22,0.55,0.46,9.30,9.30,9.31
23.92,9.06,-0.25,9.06,-0.25,0.24,0.56,0.47,9.30,9.30,9.31
24.16,9.05,-0.26,9.05,-0.26,0.25,0.57,0.48,9.30,9.30,9.31
24.40,9.05,-0.26,9.05,-0.26,0.26,0.58,0.49,9.31,9.31,9.31
24.65,9.04,-0.27,9.04,-0.27,0.28,0.60,0.51,9.32,9.32,9.31
24.89,9.03,-0.28,9.03,-0.28,0.29,0.61,0.52,9.33,9.33,9.31
25.14,9.02,-0.30,9.02,-0.30,0.31,0.62,0.53,9.33,9.33,9.32
25.39,9.00,-0.33,9.00,-0.33,0.34,0.63,0.54,9.34,9.33,9.33
25.65,8.97,-0.36,8.97,-0.36,0.36,0.64,0.56,9.33,9.34,9.33
25.91,8.94,-0.40,8.94,-0.40,0.39,0.65,0.57,9.33,9.33,9.34
26.16,8.91,-0.43,8.91,-0.43,0.42,0.67,0.59,9.33,9.33,9.35
26.43,8.89,-0.46,8.89,-0.46,0.45,0.68,0.60,9.33,9.34,9.35
26.69,8.86,-0.48,8.86,-0.48,0.47,0.69,0.61,9.34,9.34,9.35
26.96,8.84,-0.50,8.85,-0.50,0.50,0.70,0.63,9.34,9.34,9.35
27.23,8.83,-0.51,8.83,-0.51,0.52,0.72,0.64,9.35,9.35,9.34
27.50,8.81,-0.53,8.81,-0.53,0.54,0.73,0.66,9.35,9.35,9.34
27.77,8.78,-0.55,8.78,-0.55,0.56,0.75,0.67,9.34,9.34,9.33
28.05,8.75,-0.58,8.75,-0.58,0.58,0.76,0.69,9.33,9.33,9.32
28.33,8.71,-0.60,8.71,-0.60,0.60,0.77,0.70,9.31,9.31,9.31
28.62,8.67,-0.63,8.67,-0.63,0.63,0.79,0.72,9.29,9.29,9.30
28.90,8.62,-0.66,8.63,-0.66,0.65,0.80,0.73,9.28,9.28,9.29
29.19,8.59,-0.69,8.59,-0.69,0.68,0.82,0.74,9.27,9.27,9.27
29.48,8.56,-0.71,8.56,-0.71,0.71,0.83,0.76,9.27,9.27,9.27
29.78,8.53,-0.74,8.53,-0.74,0.75,0.85,0.77,9.27,9.27,9.26
30.08,8.49,-0.77,8.49,-0.77,0.79,0.86,0.79,9.28,9.28,9.27
30.38,8.46,-0.82,8.46,-0.82,0.83,0.88,0.80,9.29,9.29,9.28
30.68,8.42,-0.87,8.42,-0.87,0.88,0.90,0.82,9.29,9.29,9.29
30.99,8.37,-0.92,8.37,-0.92,0.92,0.91,0.83,9.29,9.29,9.30
31.30,8.33,-0.98,8.33,-0.98,0.97,0.93,0.85,9.29,9.29,9.30
31.61,8.28,-1.02,8.28,-1.02,1.01,0.95,0.86,9.29,9.29,9.30
31.93,8.24,-1.06,8.24,-1.06,1.05,0.96,0.88,9.28,9.28,9.30
32.24,8.20,-1.09,8.20,-1.09,1.08,0.98,0.89,9.28,9.28,9.29
32.57,8.17,-1.11,8.17,-1.11,1.11,1.00,0.90,9.27,9.27,9.27
32.89,8.13,-1.13,8.13,-1.13,1.13,1.02,0.92,9.27,9.27,9.26
33.22,8.11,-1.15,8.11,-1.15,1.15,1.04,0.93,9.26,9.26,9.25
33.55,8.08,-1.17,8.08,-1.17,1.17,1.05,0.95,9.25,9.25,9.25
33.89,8.06,-1.19,8.06,-1.19,1.19,1.07,0.96,9.25,9.25,9.25
34.23,8.03,-1.21,8.03,-1.21,1.21,1.09,0.98,9.25,9.25,9.24
34.57,8.00,-1.23,8.00,-1.23,1.24,1.11,0.99,9.24,9.24,9.24
34.92,7.97,-1.26,7.97,-1.26,1.26,1.13,1.01,9.23,9.23,9.23
35.27,7.94,-1.28,7.94,-1.28,1.28,1.15,1.03,9.22,9.22,9.22
35.62,7.90,-1.31,7.90,-1.31,1.30,1.17,1.04,9.21,9.21,9.21
35.97,7.87,-1.33,7.87,-1.33,1.32,1.19,1.06,9.19,9.20,9.20
36.33,7.84,-1.35,7.85,-1.35,1.34,1.21,1.08,9.19,9.19,9.20
36.70,7.82,-1.37,7.82,-1.37,1.37,1.24,1.10,9.19,9.19,9.19
37.06,7.80,-1.39,7.80,-1.39,1.39,1.26,1.12,9.19,9.19,9.19
37.43,7.78,-1.40,7.77,-1.41,1.41,1.28,1.13,9.19,9.19,9.18
37.81,7.74,-1.43,7.74,-1.43,1.44,1.30,1.16,9.18,9.18,9.17
38.19,7.70,-1.46,7.70,-1.46,1.47,1.32,1.18,9.17,9.17,9.16
38.57,7.65,-1.50,7.65,-1.50,1.50,1.35,1.20,9.15,9.15,9.15
38.95,7.60,-1.54,7.60,-1.54,1.54,1.37,1.22,9.14,9.14,9.14
39.34,7.55,-1.58,7.55,-1.58,1.58,1.39,1.25,9.13,9.13,9.13
39.74,7.50,-1.61,7.50,-1.61,1.61,1.42,1.27,9.12,9.12,9.12
40.14,7.46,-1.65,7.46,-1.65,1.65,1.44,1.30,9.10,9.10,9.11
40.54,7.41,-1.68,7.41,-1.68,1.68,1.46,1.32,9.09,9.09,9.09
40.94,7.37,-1.71,7.37,-1.71,1.70,1.49,1.35,9.08,9.08,9.08
41.35,7.34,-1.73,7.34,-1.73,1.73,1.51,1.38,9.06,9.06,9.07
41.76,7.31,-1.75,7.31,-1.75,1.75,1.54,1.41,9.06,9.06,9.06
42.18,7.28,-1.76,7.28,-1.77,1.77,1.56,1.44,9.05,9.05,9.05
42.60,7.26,-1.78,7.25,-1.78,1.78,1.59,1.47,9.04,9.04,9.04
43.03,7.23,-1.80,7.23,-1.80,1.80,1.62,1.51,9.03,9.03,9.02
43.46,7.20,-1.81,7.20,-1.81,1.82,1.64,1.54,9.02,9.02,9.01
43.90,7.17,-1.83,7.17,-1.83,1.84,1.67,1.58,9.01,9.01,9.00
44.33,7.14,-1.85,7.13,-1.86,1.87,1.70,1.61,9.00,9.00,8.99
44.78,7.09,-1.88,7.09,-1.88,1.89,1.72,1.65,8.99,8.99,8.98
45.23,7.05,-1.92,7.05,-1.92,1.92,1.75,1.69,8.97,8.97,8.97
45.68,7.00,-1.96,7.00,-1.96,1.95,1.78,1.73,8.95,8.95,8.96
46.13,6.95,-2.00,6.95,-2.00,1.98,1.81,1.78,8.93,8.93,8.95
46.60,6.91,-2.03,6.91,-2.03,2.02,1.83,1.82,8.92,8.92,8.93
47.06,6.87,-2.05,6.87,-2.05,2.05,1.86,1.86,8.92,8.92,8.92
47.53,6.84,-2.07,6.84,-2.07,2.08,1.89,1.91,8.92,8.92,8.91
48.01,6.80,-2.10,6.80,-2.10,2.11,1.92,1.96,8.91,8.91,8.89
48.49,6.75,-2.13,6.75,-2.13,2.14,1.95,2.00,8.89,8.89,8.88
48.97,6.70,-2.16,6.70,-2.17,2.17,1.98,2.05,8.87,8.86,8.86
49.46,6.65,-2.20,6.65,-2.20,2.19,2.00,2.10,8.84,8.84,8.85
49.96,6.60,-2.23,6.60,-2.23,2.22,2.03,2.15,8.82,8.82,8.83
50.46,6.56,-2.25,6.56,-2.25,2.24,2.06,2.20,8.80,8.80,8.81
50.96,6.53,-2.27,6.53,-2.27,2.26,2.09,2.25,8.79,8.79,8.80
51.47,6.50,-2.28,6.50,-2.28,2.28,2.12,2.30,8.78,8.78,8.78
51.99,6.47,-2.30,6.46,-2.30,2.30,2.15,2.35,8.77,8.77,8.76
52.51,6.43,-2.31,6.43,-2.31,2.32,2.18,2.40,8.75,8.75,8.74
53.03,6.38,-2.34,6.38,-2.34,2.35,2.21,2.46,8.73,8.73,8.72
53.56,6.33,-2.37,6.33,-2.37,2.37,2.24,2.51,8.71,8.71,8.70
54.10,6.28,-2.40,6.28,-2.40,2.41,2.27,2.56,8.69,8.69,8.68
54.64,6.23,-2.44,6.23,-2.44,2.44,2.30,2.60,8.67,8.67,8.67
55.18,6.17,-2.48,6.17,-2.48,2.48,2.33,2.65,8.65,8.65,8.65
55.74,6.12,-2.52,6.12,-2.52,2.51,2.36,2.70,8.63,8.63,8.63
56.29,6.06,-2.55,6.06,-2.55,2.55,2.39,2.74,8.61,8.61,8.61
56.86,6.00,-2.59,6.00,-2.59,2.58,2.42,2.79,8.58,8.58,8.59
57.42,5.95,-2.61,5.95,-2.61,2.60,2.44,2.83,8.56,8.55,8.56
58.00,5.90,-2.63,5.91,-2.63,2.62,2.47,2.86,8.53,8.53,8.54
58.58,5.87,-2.64,5.87,-2.64,2.64,2.50,2.90,8.51,8.51,8.51
59.16,5.84,-2.65,5.84,-2.65,2.65,2.53,2.93,8.49,8.49,8.49
59.76,5.82,-2.65,5.82,-2.65,2.65,2.56,2.96,8.47,8.47,8.47
60.35,5.79,-2.65,5.79,-2.65,2.65,2.58,2.99,8.45,8.45,8.44
60.96,5.77,-2.65,5.77,-2.65,2.66,2.61,3.01,8.42,8.42,8.42
61.57,5.74,-2.66,5.74,-2.66,2.66,2.64,3.03,8.40,8.40,8.40
62.18,5.71,-2.67,5.71,-2.66,2.66,2.66,3.05,8.37,8.37,8.37
62.80,5.68,-2.67,5.68,-2.67,2.67,2.69,3.06,8.35,8.35,8.35
63.43,5.65,-2.68,5.65,-2.68,2.68,2.71,3.07,8.33,8.33,8.33
64.07,5.61,-2.69,5.61,-2.69,2.69,2.73,3.08,8.30,8.30,8.30
64.71,5.57,-2.70,5.58,-2.70,2.70,2.75,3.09,8.28,8.28,8.28
65.35,5.54,-2.71,5.54,-2.71,2.71,2.78,3.09,8.25,8.25,8.25
66.01,5.50,-2.73,5.50,-2.73,2.73,2.80,3.08,8.22,8.22,8.22
66.67,5.45,-2.74,5.45,-2.74,2.74,2.82,3.08,8.20,8.20,8.20
67.33,5.41,-2.76,5.41,-2.76,2.76,2.83,3.07,8.17,8.17,8.17
68.01,5.36,-2.77,5.36,-2.78,2.78,2.85,3.06,8.14,8.14,8.14
68.69,5.31,-2.80,5.31,-2.80,2.80,2.87,3.05,8.11,8.11,8.11
69.37,5.26,-2.82,5.26,-2.82,2.82,2.88,3.03,8.08,8.08,8.08
70.07,5.20,-2.85,5.20,-2.85,2.84,2.89,3.02,8.05,8.05,8.05
70.77,5.15,-2.87,5.15,-2.87,2.87,2.91,3.00,8.02,8.02,8.02
71.48,5.09,-2.90,5.09,-2.90,2.90,2.92,2.98,7.99,7.99,7.98
72.19,5.02,-2.93,5.02,-2.93,2.94,2.93,2.97,7.96,7.96,7.95
72.91,4.96,-2.97,4.96,-2.97,2.97,2.93,2.95,7.93,7.93,7.92
73.64,4.89,-3.00,4.89,-3.00,3.01,2.94,2.93,7.90,7.90,7.89
74.38,4.82,-3.04,4.82,-3.04,3.04,2.95,2.91,7.86,7.86,7.86
75.12,4.75,-3.08,4.76,-3.08,3.07,2.96,2.89,7.83,7.83,7.83
75.87,4.70,-3.11,4.70,-3.11,3.10,2.96,2.87,7.79,7.79,7.80
76.63,4.64,-3.13,4.64,-3.12,3.11,2.97,2.85,7.75,7.75,7.77
77.40,4.60,-3.13,4.60,-3.13,3.12,2.98,2.84,7.72,7.72,7.73
78.17,4.57,-3.13,4.57,-3.13,3.11,2.99,2.82,7.69,7.69,7.70
78.95,4.55,-3.11,4.55,-3.11,3.10,3.00,2.81,7.65,7.65,7.67
79.74,4.54,-3.09,4.54,-3.09,3.09,3.01,2.79,7.63,7.63,7.63
80.54,4.53,-3.07,4.53,-3.07,3.07,3.03,2.78,7.59,7.59,7.59
81.35,4.51,-3.05,4.51,-3.05,3.06,3.05,2.77,7.56,7.56,7.55
82.16,4.48,-3.05,4.48,-3.04,3.05,3.07,2.76,7.53,7.53,7.53
82.98,4.44,-3.05,4.44,-3.05,3.06,3.08,2.76,7.50,7.50,7.49
83.81,4.39,-3.06,4.39,-3.07,3.09,3.11,2.75,7.48,7.48,7.46
84.65,4.32,-3.10,4.32,-3.11,3.14,3.13,2.75,7.46,7.46,7.42
85.50,4.23,-3.17,4.23,-3.17,3.21,3.15,2.75,7.43,7.43,7.39
86.35,4.12,-3.25,4.11,-3.25,3.29,3.17,2.75,7.40,7.40,7.37
87.22,3.99,-3.35,3.99,-3.35,3.36,3.19,2.76,7.35,7.35,7.33
88.09,3.85,-3.44,3.85,-3.45,3.43,3.21,2.76,7.28,7.28,7.30
88.97,3.74,-3.53,3.74,-3.53,3.48,3.23,2.77,7.21,7.21,7.26
89.86,3.64,-3.60,3.66,-3.58,3.50,3.25,2.78,7.14,7.16,7.24
90.76,3.62,-3.58,3.63,-3.57,3.50,3.27,2.79,7.12,7.13,7.20
91.66,3.65,-3.51,3.65,-3.50,3.47,3.28,2.81,7.12,7.12,7.15
92.58,3.69,-3.40,3.69,-3.41,3.42,3.30,2.82,7.12,7.11,7.10
93.51,3.73,-3.32,3.73,-3.32,3.36,3.31,2.84,7.09,7.09,7.05
94.44,3.76,-3.25,3.76,-3.25,3.29,3.32,2.86,7.05,7.05,7.01
95.39,3.78,-3.20,3.78,-3.19,3.22,3.33,2.89,6.99,6.99,6.97
96.34,3.78,-3.15,3.78,-3.15,3.16,3.33,2.91,6.93,6.94,6.93
97.30,3.77,-3.11,3.77,-3.11,3.11,3.33,2.94,6.88,6.88,6.88
98.28,3.75,-3.08,3.76,-3.08,3.09,3.34,2.97,6.84,6.84,6.84
99.26,3.73,-3.07,3.73,-3.07,3.08,3.34,2.99,6.81,6.81,6.80
100.25,3.70,-3.07,3.69,-3.07,3.08,3.34,3.03,6.78,6.77,6.77
101.25,3.64,-3.08,3.64,-3.08,3.09,3.33,3.06,6.73,6.73,6.72
102.27,3.57,-3.10,3.57,-3.10,3.11,3.33,3.09,6.68,6.68,6.67
103.29,3.49,-3.12,3.49,-3.12,3.12,3.32,3.12,6.62,6.62,6.61
104.32,3.42,-3.15,3.42,-3.15,3.14,3.32,3.16,6.56,6.56,6.57
105.37,3.35,-3.18,3.35,-3.18,3.16,3.31,3.19,6.52,6.52,6.53
106.42,3.30,-3.20,3.30,-3.19,3.18,3.30,3.22,6.47,6.47,6.49
107.48,3.24,-3.20,3.25,-3.19,3.18,3.29,3.26,6.43,6.43,6.44
108.56,3.20,-3.18,3.20,-3.19,3.19,3.28,3.29,6.39,6.39,6.38
109.64,3.16,-3.17,3.16,-3.18,3.18,3.26,3.32,6.35,6.35,6.34
110.74,3.13,-3.17,3.13,-3.17,3.17,3.25,3.35,6.30,6.30,6.30
111.85,3.10,-3.17,3.09,-3.16,3.15,3.23,3.38,6.25,6.25,6.26
112.97,3.06,-3.15,3.06,-3.15,3.14,3.22,3.41,6.20,6.20,6.21
114.10,3.02,-3.13,3.02,-3.13,3.13,3.20,3.44,6.15,6.15,6.15
115.24,2.98,-3.10,2.98,-3.10,3.12,3.19,3.46,6.10,6.10,6.09
116.39,2.94,-3.09,2.94,-3.09,3.12,3.17,3.48,6.06,6.06,6.03
117.55,2.90,-3.09,2.90,-3.09,3.12,3.15,3.49,6.02,6.02,5.99
118.73,2.85,-3.11,2.85,-3.11,3.12,3.13,3.51,5.97,5.97,5.96
119.92,2.81,-3.13,2.81,-3.13,3.12,3.11,3.52,5.93,5.93,5.94
121.12,2.76,-3.15,2.76,-3.14,3.12,3.09,3.53,5.88,5.88,5.91
122.33,2.71,-3.15,2.71,-3.14,3.12,3.07,3.53,5.83,5.83,5.86
123.55,2.66,-3.13,2.66,-3.13,3.11,3.06,3.52,5.77,5.77,5.79
124.79,2.61,-3.10,2.61,-3.10,3.09,3.04,3.52,5.71,5.71,5.71
126.03,2.57,-3.07,2.57,-3.07,3.07,3.02,3.51,5.64,5.64,5.64
127.29,2.53,-3.04,2.53,-3.04,3.04,3.00,3.49,5.57,5.57,5.57
128.57,2.50,-3.01,2.50,-3.01,3.02,2.98,3.47,5.51,5.51,5.50
129.85,2.46,-2.99,2.46,-2.98,2.99,2.97,3.45,5.46,5.46,5.45
131.15,2.43,-2.96,2.43,-2.97,2.98,2.95,3.42,5.41,5.41,5.40
132.46,2.40,-2.95,2.40,-2.95,2.97,2.94,3.39,5.37,5.37,5.35
133.79,2.36,-2.95,2.36,-2.95,2.96,2.93,3.36,5.32,5.32,5.31
135.12,2.32,-2.96,2.32,-2.96,2.96,2.92,3.32,5.28,5.28,5.27
136.48,2.27,-2.97,2.27,-2.97,2.96,2.91,3.28,5.23,5.23,5.23
137.84,2.21,-2.98,2.21,-2.98,2.97,2.91,3.23,5.18,5.18,5.19
139.22,2.16,-2.98,2.16,-2.98,2.97,2.90,3.19,5.13,5.13,5.14
140.61,2.11,-2.98,2.11,-2.98,2.97,2.91,3.14,5.08,5.08,5.09
142.02,2.06,-2.98,2.06,-2.98,2.97,2.91,3.09,5.03,5.03,5.04
143.44,2.01,-2.97,2.01,-2.97,2.96,2.92,3.03,4.97,4.97,4.98
144.87,1.97,-2.95,1.97,-2.95,2.95,2.94,2.98,4.92,4.92,4.92
146.32,1.92,-2.94,1.92,-2.94,2.94,2.96,2.93,4.86,4.86,4.86
147.78,1.87,-2.93,1.87,-2.93,2.93,2.98,2.87,4.81,4.81,4.80
149.26,1.83,-2.92,1.83,-2.92,2.93,3.00,2.81,4.76,4.76,4.75
150.75,1.78,-2.92,1.78,-2.92,2.94,3.02,2.76,4.73,4.72,4.70
152.26,1.73,-2.93,1.73,-2.93,2.96,3.03,2.70,4.69,4.69,4.66
153.78,1.67,-2.95,1.67,-2.95,2.97,3.04,2.65,4.65,4.65,4.62
155.32,1.62,-2.98,1.62,-2.98,2.99,3.03,2.59,4.60,4.60,4.59
156.88,1.55,-3.00,1.55,-3.00,2.99,3.01,2.54,4.54,4.54,4.55
158.44,1.50,-3.00,1.50,-3.01,2.98,2.96,2.48,4.47,4.47,4.50
160.03,1.44,-3.00,1.44,-2.99,2.94,2.91,2.43,4.38,4.39,4.44
161.63,1.41,-2.93,1.41,-2.93,2.89,2.83,2.38,4.29,4.29,4.34
163.24,1.39,-2.83,1.39,-2.83,2.81,2.76,2.33,4.20,4.20,4.23
164.88,1.40,-2.71,1.41,-2.71,2.71,2.67,2.28,4.11,4.11,4.10
166.53,1.45,-2.57,1.45,-2.57,2.59,2.58,2.23,4.04,4.04,4.02
168.19,1.52,-2.43,1.52,-2.44,2.45,2.50,2.18,3.97,3.97,3.96
169.87,1.61,-2.31,1.61,-2.31,2.30,2.41,2.14,3.92,3.92,3.93
171.57,1.71,-2.19,1.71,-2.18,2.16,2.33,2.09,3.87,3.87,3.90
173.29,1.79,-2.05,1.79,-2.04,2.03,2.25,2.05,3.83,3.83,3.85
175.02,1.87,-1.91,1.86,-1.91,1.92,2.19,2.01,3.79,3.78,3.77
176.77,1.90,-1.78,1.90,-1.79,1.84,2.12,1.97,3.74,3.74,3.69
178.54,1.92,-1.71,1.92,-1.72,1.78,2.06,1.93,3.70,3.70,3.63
180.32,1.92,-1.69,1.92,-1.70,1.74,2.00,1.90,3.66,3.66,3.61
182.13,1.90,-1.72,1.90,-1.72,1.72,1.94,1.86,3.62,3.62,3.62
183.95,1.87,-1.76,1.87,-1.75,1.73,1.89,1.83,3.60,3.60,3.63
185.79,1.84,-1.79,1.84,-1.78,1.75,1.84,1.80,3.59,3.59,3.63
187.65,1.80,-1.80,1.80,-1.80,1.79,1.79,1.77,3.59,3.59,3.61
189.52,1.76,-1.82,1.76,-1.82,1.82,1.75,1.74,3.58,3.58,3.58
191.42,1.71,-1.84,1.71,-1.85,1.85,1.70,1.71,3.57,3.57,3.56
193.33,1.66,-1.87,1.65,-1.87,1.88,1.66,1.68,3.53,3.53,3.53
195.27,1.59,-1.89,1.59,-1.89,1.89,1.62,1.66,3.48,3.48,3.49
197.22,1.53,-1.91,1.53,-1.91,1.89,1.58,1.63,3.41,3.41,3.43
199.19,1.47,-1.90,1.47,-1.90,1.87,1.54,1.61,3.34,3.35,3.37
201.18,1.43,-1.87,1.44,-1.87,1.85,1.51,1.59,3.29,3.29,3.31
203.19,1.41,-1.83,1.41,-1.83,1.82,1.47,1.57,3.24,3.24,3.25
205.23,1.40,-1.78,1.40,-1.78,1.79,1.43,1.55,3.19,3.19,3.18
207.28,1.39,-1.73,1.39,-1.73,1.74,1.40,1.53,3.13,3.13,3.12
209.35,1.37,-1.68,1.37,-1.68,1.70,1.37,1.51,3.07,3.07,3.05
211.44,1.35,-1.64,1.35,-1.64,1.66,1.33,1.49,3.00,3.00,2.99
213.56,1.32,-1.61,1.32,-1.61,1.61,1.30,1.47,2.93,2.93,2.93
215.69,1.29,-1.58,1.29,-1.58,1.58,1.27,1.46,2.86,2.86,2.86
217.85,1.26,-1.55,1.26,-1.55,1.54,1.24,1.44,2.80,2.80,2.80
220.03,1.23,-1.51,1.23,-1.51,1.51,1.21,1.42,2.74,2.74,2.74
222.23,1.20,-1.48,1.20,-1.48,1.48,1.18,1.41,2.68,2.68,2.68
224.45,1.17,-1.45,1.17,-1.45,1.45,1.15,1.39,2.62,2.61,2.62
226.70,1.14,-1.41,1.14,-1.41,1.41,1.12,1.37,2.55,2.55,2.55
228.96,1.11,-1.38,1.11,-1.38,1.38,1.09,1.36,2.49,2.49,2.49
231.25,1.09,-1.34,1.09,-1.34,1.34,1.06,1.34,2.43,2.43,2.43
233.57,1.06,-1.31,1.06,-1.31,1.31,1.03,1.32,2.37,2.37,2.37
235.90,1.04,-1.27,1.04,-1.27,1.27,1.00,1.30,2.31,2.31,2.31
238.26,1.01,-1.23,1.01,-1.24,1.23,0.97,1.28,2.25,2.25,2.25
240.64,0.98,-1.20,0.99,-1.20,1.20,0.95,1.26,2.18,2.18,2.18
243.05,0.96,-1.16,0.96,-1.16,1.16,0.92,1.24,2.12,2.12,2.12
245.48,0.94,-1.12,0.94,-1.12,1.12,0.89,1.22,2.06,2.06,2.06
247.93,0.92,-1.08,0.92,-1.08,1.08,0.87,1.19,2.00,2.00,2.00
250.41,0.90,-1.04,0.90,-1.04,1.04,0.84,1.17,1.94,1.94,1.94
252.92,0.87,-1.00,0.87,-1.00,1.00,0.81,1.15,1.88,1.88,1.88
255.45,0.85,-0.97,0.85,-0.97,0.97,0.79,1.12,1.82,1.82,1.82
258.00,0.83,-0.93,0.83,-0.93,0.93,0.76,1.09,1.76,1.76,1.76
260.58,0.80,-0.89,0.80,-0.89,0.89,0.73,1.06,1.70,1.70,1.70
263.19,0.78,-0.86,0.78,-0.86,0.86,0.71,1.03,1.64,1.64,1.64
265.82,0.76,-0.82,0.76,-0.82,0.82,0.68,1.00,1.58,1.58,1.58
268.48,0.73,-0.79,0.73,-0.79,0.79,0.66,0.97,1.52,1.52,1.52
271.16,0.71,-0.76,0.71,-0.76,0.75,0.63,0.94,1.46,1.46,1.46
273.87,0.68,-0.72,0.68,-0.72,0.72,0.61,0.91,1.41,1.41,1.41
276.61,0.66,-0.69,0.66,-0.69,0.69,0.58,0.87,1.35,1.35,1.35
279.38,0.64,-0.65,0.64,-0.65,0.66,0.56,0.84,1.29,1.29,1.29
282.17,0.61,-0.62,0.61,-0.62,0.62,0.53,0.80,1.23,1.23,1.23
284.99,0.59,-0.59,0.59,-0.59,0.59,0.51,0.76,1.18,1.18,1.18
287.84,0.56,-0.56,0.56,-0.56,0.56,0.48,0.73,1.12,1.12,1.12
290.72,0.53,-0.53,0.53,-0.53,0.53,0.46,0.69,1.06,1.07,1.07
293.63,0.51,-0.50,0.51,-0.50,0.50,0.43,0.65,1.01,1.01,1.01
296.57,0.48,-0.47,0.48,-0.47,0.47,0.41,0.61,0.95,0.95,0.95
299.53,0.45,-0.45,0.45,-0.45,0.44,0.38,0.57,0.90,0.90,0.90
302.53,0.43,-0.42,0.43,-0.42,0.42,0.35,0.53,0.84,0.84,0.84
305.55,0.40,-0.39,0.40,-0.39,0.39,0.33,0.49,0.78,0.79,0.79
308.61,0.37,-0.36,0.37,-0.36,0.36,0.30,0.45,0.73,0.73,0.73
311.69,0.34,-0.33,0.34,-0.33,0.33,0.28,0.41,0.67,0.67,0.67
314.81,0.32,-0.30,0.32,-0.30,0.30,0.25,0.37,0.62,0.62,0.62
317.96,0.29,-0.27,0.29,-0.27,0.27,0.23,0.33,0.56,0.56,0.56
321.14,0.26,-0.25,0.26,-0.25,0.25,0.20,0.29,0.51,0.51,0.51
324.35,0.23,-0.22,0.23,-0.22,0.23,0.18,0.25,0.46,0.46,0.45
327.59,0.20,-0.20,0.20,-0.20,0.20,0.15,0.20,0.41,0.40,0.40
330.87,0.17,-0.17,0.17,-0.17,0.18,0.13,0.16,0.35,0.35,0.35
334.18,0.14,-0.15,0.14,-0.15,0.16,0.10,0.12,0.30,0.30,0.29
337.52,0.11,-0.13,0.11,-0.13,0.13,0.07,0.08,0.24,0.24,0.24
340.90,0.08,-0.11,0.08,-0.11,0.10,0.05,0.04,0.18,0.18,0.19
344.30,0.07,-0.07,0.07,-0.07,0.06,0.02,-0.01,0.13,0.13,0.14
347.75,0.06,-0.03,0.06,-0.03,0.02,-0.00,-0.05,0.08,0.08,0.09
351.23,0.06,0.02,0.06,0.02,-0.03,-0.03,-0.09,0.02,0.03,0.04
354.74,0.07,0.08,0.07,0.08,-0.09,-0.06,-0.14,-0.02,-0.02,-0.01
358.28,0.09,0.15,0.09,0.15,-0.15,-0.08,-0.18,-0.07,-0.07,-0.06
361.87,0.11,0.22,0.11,0.22,-0.22,-0.11,-0.22,-0.11,-0.11,-0.11
365.49,0.13,0.29,0.13,0.29,-0.28,-0.14,-0.27,-0.15,-0.15,-0.16
369.14,0.15,0.36,0.15,0.36,-0.35,-0.17,-0.31,-0.20,-0.20,-0.21
372.83,0.16,0.41,0.16,0.41,-0.40,-0.19,-0.35,-0.25,-0.25,-0.26
376.56,0.16,0.46,0.16,0.46,-0.45,-0.22,-0.40,-0.30,-0.30,-0.30
380.33,0.15,0.50,0.15,0.50,-0.50,-0.25,-0.44,-0.35,-0.35,-0.35
384.13,0.14,0.54,0.14,0.54,-0.54,-0.28,-0.48,-0.40,-0.40,-0.40
387.97,0.13,0.57,0.13,0.57,-0.57,-0.31,-0.53,-0.45,-0.45,-0.44
391.85,0.11,0.60,0.11,0.60,-0.60,-0.34,-0.57,-0.49,-0.49,-0.49
395.77,0.10,0.63,0.10,0.63,-0.63,-0.36,-0.61,-0.53,-0.53,-0.53
399.73,0.08,0.65,0.08,0.65,-0.65,-0.39,-0.66,-0.58,-0.58,-0.58
403.72,0.05,0.67,0.05,0.67,-0.67,-0.42,-0.70,-0.62,-0.62,-0.62
407.76,0.03,0.70,0.03,0.70,-0.70,-0.45,-0.74,-0.66,-0.66,-0.66
411.84,0.01,0.71,0.01,0.71,-0.72,-0.48,-0.79,-0.71,-0.71,-0.71
415.96,-0.01,0.73,-0.01,0.73,-0.73,-0.51,-0.83,-0.75,-0.75,-0.75
420.12,-0.04,0.75,-0.04,0.75,-0.75,-0.54,-0.87,-0.79,-0.79,-0.79
424.32,-0.06,0.77,-0.06,0.77,-0.77,-0.57,-0.91,-0.83,-0.83,-0.83
428.56,-0.08,0.79,-0.08,0.79,-0.79,-0.59,-0.95,-0.87,-0.87,-0.87
432.85,-0.11,0.80,-0.11,0.80,-0.80,-0.62,-0.98,-0.91,-0.91,-0.91
437.18,-0.13,0.82,-0.13,0.82,-0.82,-0.65,-1.02,-0.95,-0.95,-0.95
441.55,-0.15,0.83,-0.15,0.83,-0.83,-0.68,-1.06,-0.98,-0.98,-0.98
445.96,-0.17,0.85,-0.17,0.85,-0.85,-0.70,-1.09,-1.02,-1.02,-1.02
450.42,-0.19,0.87,-0.19,0.87,-0.87,-0.73,-1.12,-1.06,-1.06,-1.06
454.93,-0.21,0.88,-0.21,0.88,-0.88,-0.76,-1.15,-1.09,-1.09,-1.09
459.48,-0.23,0.90,-0.23,0.90,-0.90,-0.78,-1.18,-1.13,-1.13,-1.13
464.07,-0.25,0.91,-0.25,0.91,-0.91,-0.81,-1.20,-1.16,-1.16,-1.16
468.71,-0.27,0.93,-0.27,0.93,-0.93,-0.83,-1.22,-1.19,-1.19,-1.19
473.40,-0.29,0.94,-0.29,0.94,-0.94,-0.86,-1.24,-1.23,-1.23,-1.23
478.13,-0.30,0.95,-0.31,0.95,-0.95,-0.88,-1.26,-1.26,-1.26,-1.26
482.91,-0.32,0.97,-0.32,0.97,-0.97,-0.90,-1.27,-1.29,-1.29,-1.29
487.74,-0.34,0.98,-0.34,0.98,-0.98,-0.92,-1.28,-1.32,-1.32,-1.32
492.62,-0.36,0.99,-0.36,0.99,-0.99,-0.94,-1.29,-1.35,-1.35,-1.35
497.55,-0.38,1.00,-0.38,1.00,-1.00,-0.96,-1.30,-1.38,-1.38,-1.38
502.52,-0.39,1.01,-0.39,1.01,-1.01,-0.97,-1.30,-1.40,-1.40,-1.40
507.55,-0.41,1.02,-0.41,1.02,-1.02,-0.99,-1.30,-1.43,-1.43,-1.43
512.62,-0.43,1.02,-0.43,1.02,-1.02,-1.00,-1.29,-1.45,-1.45,-1.45
517.75,-0.45,1.03,-0.45,1.03,-1.03,-1.01,-1.28,-1.48,-1.48,-1.48
522.93,-0.46,1.03,-0.46,1.03,-1.03,-1.02,-1.27,-1.50,-1.50,-1.50
528.16,-0.48,1.04,-0.48,1.04,-1.04,-1.03,-1.26,-1.52,-1.52,-1.52
533.44,-0.50,1.04,-0.50,1.04,-1.04,-1.04,-1.24,-1.54,-1.54,-1.54
538.77,-0.51,1.04,-0.52,1.04,-1.04,-1.05,-1.22,-1.56,-1.56,-1.56
544.16,-0.53,1.04,-0.53,1.04,-1.04,-1.05,-1.20,-1.58,-1.58,-1.58
549.60,-0.55,1.04,-0.55,1.04,-1.04,-1.05,-1.18,-1.59,-1.59,-1.59
555.10,-0.57,1.04,-0.57,1.04,-1.04,-1.05,-1.15,-1.61,-1.61,-1.61
