frequency,raw,error,smoothed,error_smoothed,equalization,parametric_eq,fixed_band_eq,equalized_raw,equalized_smoothed,target
20.00,5.38,-7.72,5.39,-7.72,6.00,6.19,2.69,11.38,11.39,13.11
20.20,5.40,-7.69,5.40,-7.69,6.00,6.20,2.77,11.40,11.40,13.09
20.40,5.42,-7.65,5.41,-7.66,6.00,6.20,2.85,11.42,11.41,13.07
20.61,5.43,-7.62,5.44,-7.61,6.00,6.19,2.93,11.43,11.44,13.05
20.81,5.48,-7.55,5.48,-7.55,6.00,6.17,3.01,11.48,11.48,13.03
21.02,5.52,-7.49,5.52,-7.49,6.00,6.15,3.10,11.52,11.52,13.01
21.23,5.57,-7.42,5.57,-7.42,6.00,6.13,3.19,11.57,11.57,12.99
21.44,5.62,-7.36,5.62,-7.36,6.00,6.10,3.28,11.62,11.62,12.98
21.66,5.66,-7.30,5.66,-7.30,6.00,6.08,3.37,11.66,11.66,12.97
21.87,5.71,-7.25,5.71,-7.25,6.00,6.07,3.47,11.71,11.71,12.96
22.09,5.75,-7.20,5.75,-7.20,6.00,6.05,3.57,11.75,11.75,12.95
22.31,5.79,-7.15,5.79,-7.15,6.00,6.04,3.67,11.79,11.79,12.95
22.54,5.84,-7.11,5.84,-7.11,6.00,6.02,3.77,11.84,11.84,12.94
22.76,5.88,-7.06,5.88,-7.06,6.00,6.01,3.88,11.88,11.88,12.94
22.99,5.92,-7.01,5.92,-7.01,6.00,6.00,3.99,11.92,11.92,12.93
23.22,5.97,-6.96,5.97,-6.96,6.00,5.99,4.10,11.97,11.97,12.92
23.45,6.01,-6.90,6.01,-6.90,6.00,5.98,4.22,12.01,12.01,12.91
23.69,6.05,-6.85,6.04,-6.85,6.00,5.97,4.34,12.05,12.04,12.90
23.92,6.08,-6.80,6.08,-6.80,6.00,5.97,4.45,12.08,12.08,12.89
24.16,6.12,-6.76,6.12,-6.76,6.00,5.96,4.58,12.12,12.12,12.87
24.40,6.15,-6.72,6.15,-6.72,6.00,5.95,4.70,12.15,12.15,12.87
24.65,6.18,-6.68,6.18,-6.68,6.00,5.94,4.83,12.18,12.18,12.86
24.89,6.21,-6.64,6.21,-6.64,6.00,5.93,4.95,12.21,12.21,12.85
25.14,6.24,-6.61,6.24,-6.61,6.00,5.92,5.08,12.24,12.24,12.85
25.39,6.27,-6.58,6.27,-6.58,6.00,5.91,5.21,12.27,12.27,12.85
25.65,6.30,-6.54,6.30,-6.54,6.00,5.90,5.35,12.30,12.30,12.84
25.91,6.33,-6.50,6.33,-6.50,6.00,5.88,5.48,12.33,12.33,12.83
26.16,6.36,-6.45,6.36,-6.45,6.00,5.87,5.61,12.36,12.36,12.82
26.43,6.40,-6.41,6.39,-6.41,6.00,5.86,5.74,12.40,12.39,12.80
26.69,6.43,-6.35,6.43,-6.35,6.00,5.84,5.87,12.43,12.43,12.78
26.96,6.45,-6.30,6.45,-6.30,6.01,5.83,5.99,12.46,12.46,12.75
27.23,6.48,-6.24,6.48,-6.24,6.01,5.81,6.12,12.49,12.49,12.73
27.50,6.51,-6.19,6.51,-6.19,6.01,5.80,6.24,12.52,12.52,12.70
27.77,6.54,-6.13,6.54,-6.13,6.00,5.78,6.36,12.55,12.55,12.68
28.05,6.58,-6.08,6.58,-6.08,5.99,5.76,6.47,12.57,12.57,12.65
28.33,6.61,-6.02,6.61,-6.02,5.97,5.74,6.58,12.58,12.58,12.63
28.62,6.64,-5.97,6.64,-5.97,5.95,5.72,6.68,12.59,12.59,12.61
28.90,6.67,-5.92,6.67,-5.92,5.91,5.70,6.77,12.58,12.58,12.59
29.19,6.71,-5.86,6.71,-5.86,5.87,5.68,6.86,12.57,12.57,12.57
29.48,6.73,-5.81,6.73,-5.81,5.82,5.66,6.94,12.55,12.55,12.55
29.78,6.76,-5.75,6.76,-5.75,5.76,5.64,7.01,12.52,12.52,12.52
30.08,6.79,-5.70,6.79,-5.70,5.70,5.61,7.06,12.49,12.49,12.49
30.38,6.81,-5.64,6.81,-5.64,5.65,5.59,7.11,12.46,12.46,12.46
30.68,6.84,-5.59,6.84,-5.59,5.60,5.56,7.15,12.43,12.43,12.43
30.99,6.86,-5.55,6.86,-5.55,5.55,5.54,7.17,12.41,12.41,12.40
31.30,6.88,-5.50,6.88,-5.50,5.51,5.51,7.18,12.39,12.39,12.38
31.61,6.90,-5.47,6.90,-5.47,5.47,5.49,7.19,12.37,12.37,12.37
31.93,6.93,-5.43,6.93,-5.43,5.44,5.46,7.17,12.36,12.36,12.36
32.24,6.95,-5.40,6.95,-5.40,5.40,5.43,7.15,12.35,12.35,12.35
32.57,6.97,-5.37,6.97,-5.37,5.37,5.40,7.12,12.34,12.34,12.34
32.89,6.99,-5.34,6.99,-5.34,5.34,5.37,7.08,12.33,12.32,12.33
33.22,7.01,-5.31,7.01,-5.31,5.30,5.34,7.02,12.31,12.31,12.32
33.55,7.02,-5.27,7.02,-5.27,5.27,5.31,6.96,12.29,12.29,12.30
33.89,7.04,-5.23,7.04,-5.23,5.23,5.28,6.89,12.27,12.27,12.28
34.23,7.06,-5.19,7.06,-5.19,5.19,5.25,6.81,12.25,12.25,12.25
34.57,7.08,-5.14,7.08,-5.14,5.14,5.21,6.72,12.22,12.22,12.22
34.92,7.10,-5.10,7.10,-5.10,5.10,5.18,6.63,12.20,12.20,12.19
35.27,7.12,-5.05,7.12,-5.05,5.06,5.15,6.53,12.17,12.17,12.17
35.62,7.13,-5.01,7.13,-5.01,5.02,5.11,6.43,12.15,12.15,12.15
35.97,7.15,-4.97,7.15,-4.97,4.98,5.08,6.33,12.13,12.13,12.13
36.33,7.17,-4.94,7.17,-4.94,4.94,5.04,6.22,12.11,12.11,12.11
36.70,7.18,-4.90,7.18,-4.90,4.90,5.01,6.11,12.09,12.09,12.09
37.06,7.20,-4.87,7.20,-4.87,4.87,4.97,6.00,12.06,12.06,12.07
37.43,7.21,-4.83,7.21,-4.83,4.83,4.94,5.89,12.04,12.04,12.04
37.81,7.22,-4.80,7.22,-4.80,4.80,4.90,5.78,12.02,12.02,12.02
38.19,7.24,-4.76,7.24,-4.76,4.76,4.86,5.67,12.00,12.00,12.00
38.57,7.25,-4.72,7.25,-4.72,4.72,4.83,5.56,11.97,11.97,11.97
38.95,7.26,-4.69,7.26,-4.69,4.69,4.79,5.45,11.95,11.95,11.95
39.34,7.27,-4.65,7.27,-4.65,4.65,4.75,5.34,11.92,11.92,11.92
39.74,7.29,-4.61,7.29,-4.61,4.61,4.71,5.24,11.89,11.89,11.90
40.14,7.30,-4.57,7.30,-4.57,4.57,4.67,5.14,11.87,11.87,11.87
40.54,7.31,-4.53,7.31,-4.53,4.53,4.64,5.04,11.84,11.84,11.84
40.94,7.32,-4.49,7.32,-4.49,4.49,4.60,4.94,11.81,11.81,11.81
41.35,7.32,-4.45,7.32,-4.45,4.45,4.56,4.84,11.78,11.78,11.78
41.76,7.33,-4.41,7.33,-4.41,4.41,4.52,4.75,11.75,11.75,11.74
42.18,7.34,-4.37,7.34,-4.37,4.38,4.48,4.66,11.71,11.71,11.71
42.60,7.35,-4.34,7.35,-4.34,4.34,4.44,4.57,11.68,11.68,11.68
43.03,7.35,-4.30,7.35,-4.30,4.30,4.40,4.49,11.65,11.65,11.65
43.46,7.36,-4.26,7.36,-4.26,4.26,4.36,4.41,11.62,11.62,11.62
43.90,7.37,-4.23,7.37,-4.23,4.22,4.32,4.34,11.59,11.59,11.59
44.33,7.38,-4.19,7.38,-4.19,4.19,4.28,4.26,11.56,11.56,11.57
44.78,7.38,-4.15,7.38,-4.15,4.15,4.24,4.19,11.53,11.53,11.53
45.23,7.39,-4.11,7.39,-4.11,4.11,4.20,4.13,11.50,11.50,11.50
45.68,7.39,-4.07,7.39,-4.07,4.07,4.16,4.06,11.46,11.46,11.46
46.13,7.39,-4.03,7.39,-4.03,4.03,4.12,4.00,11.42,11.42,11.42
46.60,7.39,-3.99,7.40,-3.99,3.99,4.08,3.94,11.38,11.38,11.38
47.06,7.40,-3.95,7.40,-3.95,3.95,4.04,3.89,11.34,11.34,11.34
47.53,7.40,-3.91,7.40,-3.91,3.90,4.00,3.84,11.30,11.30,11.31
48.01,7.40,-3.86,7.40,-3.86,3.86,3.95,3.79,11.26,11.26,11.27
48.49,7.41,-3.82,7.41,-3.82,3.82,3.91,3.74,11.22,11.22,11.22
48.97,7.41,-3.77,7.41,-3.77,3.78,3.87,3.70,11.18,11.18,11.18
49.46,7.41,-3.73,7.41,-3.73,3.74,3.83,3.66,11.15,11.15,11.14
49.96,7.41,-3.70,7.41,-3.70,3.70,3.79,3.62,11.11,11.11,11.10
50.46,7.41,-3.66,7.41,-3.66,3.67,3.75,3.59,11.07,11.08,11.07
50.96,7.41,-3.63,7.41,-3.63,3.63,3.71,3.55,11.04,11.04,11.04
51.47,7.41,-3.60,7.41,-3.60,3.60,3.67,3.52,11.01,11.01,11.01
51.99,7.41,-3.57,7.41,-3.57,3.57,3.63,3.49,10.98,10.98,10.98
52.51,7.40,-3.54,7.40,-3.54,3.54,3.59,3.46,10.94,10.94,10.95
53.03,7.40,-3.51,7.40,-3.51,3.51,3.55,3.44,10.91,10.91,10.91
53.56,7.39,-3.48,7.39,-3.48,3.48,3.51,3.41,10.87,10.87,10.87
54.10,7.39,-3.45,7.39,-3.45,3.45,3.47,3.39,10.83,10.83,10.84
54.64,7.38,-3.41,7.38,-3.41,3.41,3.43,3.36,10.79,10.80,10.80
55.18,7.38,-3.38,7.38,-3.38,3.38,3.39,3.34,10.76,10.76,10.76
55.74,7.37,-3.34,7.37,-3.34,3.35,3.35,3.32,10.72,10.72,10.72
56.29,7.37,-3.31,7.37,-3.31,3.31,3.31,3.29,10.68,10.68,10.68
56.86,7.37,-3.27,7.37,-3.28,3.28,3.27,3.27,10.64,10.64,10.64
57.42,7.36,-3.24,7.36,-3.24,3.24,3.24,3.25,10.60,10.60,10.60
58.00,7.35,-3.21,7.35,-3.21,3.21,3.20,3.23,10.56,10.56,10.56
58.58,7.35,-3.17,7.35,-3.17,3.17,3.16,3.21,10.52,10.52,10.52
59.16,7.34,-3.14,7.34,-3.14,3.13,3.12,3.18,10.47,10.47,10.48
59.76,7.33,-3.10,7.33,-3.10,3.10,3.08,3.16,10.43,10.43,10.43
60.35,7.32,-3.06,7.32,-3.06,3.06,3.05,3.13,10.39,10.39,10.39
60.96,7.31,-3.03,7.31,-3.03,3.03,3.01,3.11,10.34,10.34,10.34
61.57,7.30,-2.99,7.30,-2.99,3.00,2.97,3.08,10.30,10.30,10.30
62.18,7.29,-2.96,7.29,-2.96,2.96,2.93,3.05,10.26,10.26,10.26
62.80,7.28,-2.93,7.28,-2.93,2.93,2.90,3.02,10.21,10.21,10.21
63.43,7.28,-2.90,7.28,-2.90,2.89,2.86,2.99,10.17,10.17,10.17
64.07,7.27,-2.86,7.27,-2.86,2.86,2.82,2.95,10.13,10.13,10.13
64.71,7.26,-2.83,7.26,-2.83,2.83,2.79,2.92,10.08,10.08,10.08
65.35,7.24,-2.80,7.24,-2.80,2.80,2.75,2.88,10.04,10.04,10.04
66.01,7.23,-2.76,7.23,-2.76,2.76,2.72,2.85,10.00,9.99,9.99
66.67,7.22,-2.73,7.22,-2.73,2.73,2.68,2.81,9.95,9.95,9.95
67.33,7.21,-2.70,7.21,-2.70,2.70,2.65,2.77,9.90,9.90,9.90
68.01,7.19,-2.66,7.19,-2.66,2.66,2.61,2.73,9.86,9.86,9.86
68.69,7.18,-2.63,7.18,-2.63,2.63,2.58,2.69,9.81,9.81,9.81
69.37,7.16,-2.60,7.16,-2.60,2.60,2.55,2.65,9.76,9.76,9.76
70.07,7.15,-2.57,7.15,-2.57,2.57,2.51,2.61,9.71,9.71,9.71
70.77,7.13,-2.54,7.13,-2.54,2.54,2.48,2.56,9.67,9.67,9.67
71.48,7.11,-2.50,7.11,-2.50,2.50,2.45,2.52,9.62,9.62,9.62
72.19,7.10,-2.47,7.10,-2.47,2.47,2.41,2.48,9.57,9.57,9.57
72.91,7.08,-2.44,7.08,-2.44,2.44,2.38,2.43,9.52,9.52,9.52
73.64,7.06,-2.41,7.06,-2.41,2.41,2.35,2.39,9.47,9.47,9.47
74.38,7.04,-2.38,7.04,-2.38,2.38,2.32,2.35,9.42,9.42,9.42
75.12,7.02,-2.35,7.02,-2.35,2.35,2.29,2.31,9.37,9.37,9.37
75.87,7.00,-2.32,7.00,-2.32,2.32,2.26,2.26,9.32,9.32,9.32
76.63,6.98,-2.29,6.98,-2.29,2.29,2.23,2.22,9.27,9.27,9.27
77.40,6.96,-2.26,6.96,-2.26,2.26,2.19,2.18,9.22,9.22,9.22
78.17,6.94,-2.23,6.94,-2.23,2.23,2.16,2.14,9.17,9.17,9.17
78.95,6.92,-2.20,6.92,-2.20,2.20,2.14,2.10,9.12,9.12,9.11
79.74,6.90,-2.17,6.90,-2.17,2.17,2.11,2.07,9.07,9.07,9.06
80.54,6.87,-2.14,6.87,-2.14,2.14,2.08,2.03,9.01,9.01,9.01
81.35,6.85,-2.11,6.85,-2.11,2.11,2.05,1.99,8.96,8.96,8.96
82.16,6.83,-2.08,6.83,-2.08,2.08,2.02,1.96,8.91,8.91,8.91
82.98,6.81,-2.05,6.81,-2.05,2.05,1.99,1.93,8.86,8.86,8.86
83.81,6.78,-2.03,6.78,-2.03,2.02,1.96,1.89,8.81,8.80,8.81
84.65,6.76,-2.00,6.76,-2.00,1.99,1.94,1.86,8.75,8.75,8.75
85.50,6.73,-1.97,6.73,-1.97,1.96,1.91,1.83,8.70,8.70,8.70
86.35,6.71,-1.93,6.71,-1.93,1.94,1.88,1.81,8.64,8.64,8.64
87.22,6.68,-1.90,6.68,-1.90,1.91,1.86,1.78,8.59,8.59,8.58
88.09,6.65,-1.88,6.65,-1.88,1.88,1.83,1.75,8.53,8.53,8.53
88.97,6.62,-1.85,6.63,-1.85,1.86,1.81,1.73,8.48,8.48,8.48
89.86,6.60,-1.83,6.60,-1.83,1.84,1.78,1.70,8.43,8.43,8.43
90.76,6.57,-1.81,6.57,-1.81,1.82,1.76,1.68,8.38,8.38,8.38
91.66,6.54,-1.79,6.54,-1.79,1.79,1.73,1.66,8.33,8.33,8.33
92.58,6.51,-1.77,6.51,-1.77,1.77,1.71,1.64,8.28,8.28,8.28
93.51,6.48,-1.75,6.48,-1.75,1.73,1.68,1.62,8.21,8.21,8.22
94.44,6.45,-1.71,6.45,-1.71,1.69,1.66,1.61,8.14,8.14,8.16
95.39,6.41,-1.67,6.41,-1.67,1.64,1.64,1.59,8.06,8.06,8.08
96.34,6.38,-1.62,6.38,-1.61,1.59,1.62,1.57,7.97,7.97,8.00
97.30,6.35,-1.55,6.35,-1.55,1.54,1.59,1.56,7.89,7.89,7.89
98.28,6.31,-1.48,6.31,-1.48,1.49,1.57,1.55,7.80,7.80,7.79
99.26,6.27,-1.42,6.27,-1.42,1.45,1.55,1.53,7.73,7.73,7.69
100.25,6.24,-1.39,6.24,-1.39,1.43,1.53,1.52,7.66,7.66,7.62
101.25,6.20,-1.38,6.20,-1.38,1.41,1.51,1.51,7.61,7.61,7.58
102.27,6.16,-1.40,6.16,-1.40,1.41,1.49,1.50,7.57,7.57,7.56
103.29,6.12,-1.43,6.12,-1.42,1.42,1.47,1.49,7.54,7.54,7.55
104.32,6.08,-1.45,6.08,-1.45,1.44,1.45,1.49,7.52,7.52,7.53
105.37,6.04,-1.48,6.04,-1.48,1.46,1.43,1.48,7.50,7.50,7.51
106.42,5.99,-1.50,5.99,-1.50,1.49,1.41,1.47,7.49,7.49,7.49
107.48,5.95,-1.52,5.95,-1.52,1.52,1.39,1.46,7.47,7.47,7.47
108.56,5.90,-1.54,5.90,-1.54,1.55,1.37,1.46,7.45,7.45,7.44
109.64,5.85,-1.56,5.85,-1.56,1.56,1.35,1.45,7.42,7.42,7.42
110.74,5.81,-1.58,5.81,-1.58,1.58,1.33,1.44,7.39,7.39,7.39
111.85,5.77,-1.59,5.77,-1.59,1.59,1.32,1.44,7.36,7.36,7.36
112.97,5.73,-1.60,5.73,-1.60,1.59,1.30,1.43,7.32,7.32,7.33
114.10,5.70,-1.60,5.70,-1.60,1.59,1.28,1.43,7.28,7.28,7.29
115.24,5.66,-1.59,5.66,-1.58,1.58,1.27,1.42,7.24,7.24,7.25
116.39,5.64,-1.56,5.64,-1.57,1.56,1.25,1.41,7.20,7.19,7.20
117.55,5.61,-1.54,5.61,-1.54,1.54,1.23,1.41,7.15,7.15,7.15
118.73,5.59,-1.51,5.59,-1.51,1.51,1.22,1.40,7.10,7.10,7.09
119.92,5.56,-1.47,5.56,-1.47,1.48,1.20,1.39,7.04,7.04,7.03
121.12,5.54,-1.44,5.54,-1.44,1.45,1.19,1.38,6.99,6.98,6.98
122.33,5.51,-1.41,5.51,-1.41,1.41,1.17,1.37,6.92,6.92,6.92
123.55,5.48,-1.38,5.48,-1.38,1.38,1.16,1.36,6.86,6.86,6.86
124.79,5.45,-1.35,5.45,-1.35,1.34,1.15,1.35,6.80,6.80,6.80
126.03,5.42,-1.31,5.42,-1.31,1.31,1.13,1.34,6.73,6.73,6.73
127.29,5.39,-1.28,5.40,-1.28,1.27,1.12,1.33,6.67,6.67,6.67
128.57,5.37,-1.24,5.37,-1.24,1.23,1.11,1.32,6.61,6.61,6.61
129.85,5.36,-1.20,5.36,-1.20,1.19,1.09,1.31,6.55,6.55,6.55
131.15,5.34,-1.15,5.34,-1.15,1.15,1.08,1.29,6.49,6.49,6.49
132.46,5.33,-1.11,5.33,-1.11,1.11,1.07,1.28,6.44,6.44,6.43
133.79,5.31,-1.07,5.31,-1.07,1.07,1.06,1.27,6.38,6.38,6.38
135.12,5.29,-1.03,5.29,-1.03,1.03,1.05,1.25,6.32,6.32,6.32
136.48,5.27,-0.99,5.27,-0.99,1.00,1.03,1.24,6.26,6.26,6.26
137.84,5.24,-0.96,5.24,-0.96,0.96,1.02,1.22,6.20,6.20,6.20
139.22,5.20,-0.94,5.20,-0.94,0.94,1.01,1.20,6.14,6.14,6.14
140.61,5.17,-0.91,5.17,-0.91,0.91,1.00,1.19,6.08,6.08,6.08
142.02,5.13,-0.89,5.13,-0.89,0.89,0.99,1.17,6.02,6.02,6.02
143.44,5.08,-0.88,5.08,-0.88,0.88,0.98,1.15,5.96,5.96,5.96
144.87,5.04,-0.86,5.04,-0.86,0.86,0.97,1.14,5.90,5.90,5.90
146.32,4.99,-0.85,4.99,-0.85,0.85,0.96,1.12,5.84,5.84,5.84
147.78,4.95,-0.84,4.95,-0.84,0.84,0.95,1.10,5.78,5.78,5.78
149.26,4.90,-0.82,4.90,-0.82,0.82,0.95,1.09,5.72,5.72,5.72
150.75,4.85,-0.81,4.85,-0.81,0.81,0.94,1.07,5.67,5.67,5.67
152.26,4.80,-0.81,4.80,-0.81,0.80,0.93,1.06,5.61,5.61,5.61
153.78,4.76,-0.80,4.76,-0.80,0.80,0.92,1.04,5.55,5.55,5.55
155.32,4.71,-0.79,4.71,-0.79,0.79,0.91,1.02,5.50,5.50,5.50
156.88,4.66,-0.78,4.66,-0.78,0.78,0.91,1.01,5.44,5.44,5.44
158.44,4.61,-0.78,4.61,-0.78,0.78,0.90,0.99,5.39,5.39,5.39
160.03,4.56,-0.77,4.56,-0.77,0.77,0.89,0.98,5.33,5.33,5.33
161.63,4.51,-0.77,4.51,-0.77,0.77,0.89,0.97,5.28,5.28,5.28
163.24,4.46,-0.77,4.46,-0.77,0.77,0.88,0.95,5.23,5.23,5.23
164.88,4.41,-0.77,4.41,-0.77,0.77,0.88,0.94,5.18,5.18,5.18
166.53,4.36,-0.77,4.36,-0.77,0.78,0.87,0.93,5.14,5.14,5.14
168.19,4.31,-0.78,4.31,-0.78,0.78,0.87,0.92,5.09,5.09,5.09
169.87,4.26,-0.78,4.26,-0.78,0.78,0.86,0.91,5.04,5.04,5.04
171.57,4.21,-0.78,4.21,-0.78,0.78,0.86,0.90,4.99,4.99,4.99
173.29,4.16,-0.79,4.16,-0.79,0.78,0.85,0.89,4.94,4.94,4.94
175.02,4.11,-0.78,4.11,-0.78,0.78,0.85,0.88,4.89,4.89,4.89
176.77,4.06,-0.78,4.06,-0.78,0.78,0.84,0.87,4.84,4.84,4.84
178.54,4.01,-0.78,4.01,-0.78,0.78,0.84,0.86,4.79,4.79,4.78
180.32,3.96,-0.77,3.96,-0.77,0.77,0.84,0.85,4.73,4.73,4.73
182.13,3.91,-0.77,3.91,-0.77,0.77,0.83,0.85,4.68,4.68,4.68
183.95,3.86,-0.76,3.86,-0.76,0.76,0.83,0.84,4.62,4.62,4.62
185.79,3.82,-0.75,3.82,-0.75,0.75,0.83,0.83,4.56,4.56,4.57
187.65,3.77,-0.74,3.77,-0.74,0.73,0.82,0.83,4.51,4.51,4.51
189.52,3.73,-0.72,3.73,-0.72,0.72,0.82,0.83,4.45,4.45,4.45
191.42,3.69,-0.70,3.69,-0.70,0.70,0.82,0.82,4.39,4.39,4.39
193.33,3.65,-0.68,3.65,-0.68,0.68,0.82,0.82,4.33,4.33,4.33
195.27,3.61,-0.66,3.61,-0.66,0.66,0.82,0.82,4.27,4.27,4.27
197.22,3.57,-0.64,3.57,-0.64,0.65,0.81,0.81,4.21,4.21,4.21
199.19,3.52,-0.63,3.52,-0.63,0.63,0.81,0.81,4.15,4.15,4.15
201.18,3.48,-0.61,3.48,-0.61,0.61,0.81,0.81,4.09,4.09,4.09
203.19,3.44,-0.60,3.44,-0.60,0.60,0.81,0.81,4.03,4.03,4.04
205.23,3.39,-0.59,3.39,-0.59,0.58,0.81,0.81,3.97,3.97,3.98
207.28,3.35,-0.57,3.35,-0.57,0.57,0.81,0.81,3.91,3.91,3.92
209.35,3.30,-0.56,3.30,-0.56,0.56,0.81,0.81,3.85,3.85,3.86
211.44,3.25,-0.55,3.25,-0.55,0.55,0.81,0.81,3.80,3.80,3.80
213.56,3.20,-0.54,3.20,-0.54,0.54,0.81,0.81,3.74,3.74,3.74
215.69,3.15,-0.54,3.15,-0.54,0.54,0.81,0.81,3.69,3.69,3.69
217.85,3.10,-0.54,3.10,-0.54,0.55,0.81,0.81,3.65,3.65,3.64
220.03,3.05,-0.55,3.05,-0.55,0.56,0.82,0.82,3.61,3.61,3.61
222.23,3.00,-0.58,3.00,-0.58,0.58,0.82,0.82,3.59,3.59,3.58
224.45,2.95,-0.60,2.95,-0.61,0.62,0.82,0.82,3.57,3.57,3.56
226.70,2.90,-0.64,2.90,-0.64,0.65,0.82,0.82,3.55,3.55,3.54
228.96,2.85,-0.69,2.85,-0.69,0.69,0.82,0.82,3.54,3.54,3.54
231.25,2.80,-0.74,2.80,-0.74,0.73,0.83,0.83,3.54,3.54,3.54
233.57,2.75,-0.78,2.75,-0.78,0.77,0.83,0.83,3.53,3.53,3.54
235.90,2.71,-0.82,2.71,-0.82,0.81,0.83,0.83,3.51,3.51,3.53
238.26,2.66,-0.85,2.66,-0.85,0.84,0.83,0.83,3.50,3.50,3.50
240.64,2.61,-0.87,2.61,-0.87,0.86,0.84,0.83,3.47,3.47,3.48
243.05,2.56,-0.88,2.56,-0.88,0.88,0.84,0.84,3.44,3.44,3.44
245.48,2.51,-0.89,2.51,-0.89,0.89,0.84,0.84,3.41,3.41,3.40
247.93,2.46,-0.90,2.46,-0.90,0.90,0.85,0.84,3.36,3.36,3.36
250.41,2.41,-0.90,2.41,-0.90,0.90,0.85,0.84,3.32,3.32,3.32
252.92,2.36,-0.90,2.36,-0.90,0.91,0.86,0.84,3.27,3.27,3.27
255.45,2.31,-0.91,2.31,-0.91,0.91,0.86,0.84,3.22,3.22,3.22
258.00,2.26,-0.91,2.26,-0.91,0.91,0.86,0.85,3.17,3.17,3.17
260.58,2.21,-0.91,2.21,-0.91,0.91,0.87,0.85,3.12,3.12,3.12
263.19,2.16,-0.91,2.16,-0.91,0.91,0.87,0.85,3.07,3.07,3.07
265.82,2.11,-0.91,2.11,-0.91,0.91,0.88,0.85,3.02,3.02,3.02
268.48,2.06,-0.91,2.06,-0.91,0.91,0.89,0.85,2.97,2.97,2.97
271.16,2.01,-0.91,2.01,-0.91,0.91,0.89,0.85,2.93,2.93,2.93
273.87,1.97,-0.91,1.97,-0.91,0.91,0.90,0.85,2.88,2.88,2.88
276.61,1.92,-0.92,1.92,-0.92,0.92,0.90,0.85,2.83,2.83,2.83
279.38,1.87,-0.92,1.87,-0.92,0.92,0.91,0.86,2.79,2.79,2.79
282.17,1.82,-0.93,1.82,-0.93,0.93,0.91,0.86,2.74,2.74,2.74
284.99,1.77,-0.93,1.77,-0.93,0.93,0.92,0.86,2.70,2.70,2.70
287.84,1.72,-0.94,1.72,-0.94,0.94,0.93,0.86,2.66,2.66,2.66
290.72,1.67,-0.95,1.67,-0.95,0.95,0.93,0.86,2.61,2.61,2.61
293.63,1.62,-0.95,1.62,-0.95,0.95,0.94,0.87,2.57,2.57,2.57
296.57,1.57,-0.96,1.57,-0.96,0.96,0.95,0.87,2.53,2.53,2.53
299.53,1.52,-0.97,1.52,-0.97,0.97,0.96,0.87,2.48,2.48,2.48
302.53,1.47,-0.97,1.47,-0.97,0.97,0.96,0.88,2.44,2.44,2.44
305.55,1.42,-0.98,1.42,-0.98,0.98,0.97,0.88,2.40,2.40,2.40
308.61,1.37,-0.99,1.37,-0.99,0.99,0.98,0.89,2.36,2.36,2.36
311.69,1.32,-0.99,1.32,-0.99,0.99,0.99,0.89,2.32,2.32,2.32
314.81,1.28,-1.00,1.28,-1.00,1.00,0.99,0.90,2.28,2.28,2.28
317.96,1.23,-1.01,1.23,-1.01,1.01,1.00,0.91,2.24,2.24,2.24
321.14,1.18,-1.02,1.18,-1.02,1.02,1.01,0.92,2.20,2.20,2.20
324.35,1.13,-1.03,1.13,-1.03,1.03,1.02,0.92,2.16,2.16,2.16
327.59,1.09,-1.03,1.09,-1.03,1.03,1.03,0.93,2.12,2.12,2.12
330.87,1.04,-1.04,1.04,-1.04,1.04,1.04,0.94,2.08,2.08,2.08
334.18,1.00,-1.05,1.00,-1.05,1.05,1.05,0.95,2.05,2.05,2.05
337.52,0.95,-1.06,0.95,-1.06,1.06,1.05,0.96,2.01,2.01,2.01
340.90,0.90,-1.07,0.90,-1.07,1.07,1.06,0.98,1.97,1.97,1.97
344.30,0.86,-1.08,0.86,-1.08,1.08,1.07,0.99,1.94,1.94,1.94
347.75,0.81,-1.09,0.81,-1.09,1.09,1.08,1.00,1.90,1.90,1.90
351.23,0.77,-1.10,0.77,-1.10,1.10,1.09,1.02,1.87,1.87,1.87
354.74,0.72,-1.11,0.72,-1.11,1.11,1.10,1.03,1.83,1.83,1.83
358.28,0.68,-1.12,0.68,-1.12,1.12,1.11,1.05,1.80,1.80,1.80
361.87,0.64,-1.13,0.64,-1.13,1.13,1.12,1.06,1.77,1.77,1.77
365.49,0.59,-1.14,0.59,-1.14,1.14,1.13,1.08,1.73,1.73,1.73
369.14,0.55,-1.15,0.55,-1.15,1.15,1.14,1.10,1.70,1.70,1.70
372.83,0.51,-1.16,0.51,-1.16,1.16,1.15,1.12,1.67,1.67,1.67
376.56,0.46,-1.18,0.46,-1.18,1.18,1.16,1.14,1.64,1.64,1.64
380.33,0.42,-1.19,0.42,-1.19,1.19,1.17,1.16,1.61,1.61,1.61
384.13,0.38,-1.20,0.38,-1.20,1.20,1.18,1.18,1.58,1.58,1.58
387.97,0.33,-1.21,0.33,-1.21,1.21,1.19,1.20,1.55,1.55,1.55
391.85,0.29,-1.23,0.29,-1.23,1.22,1.20,1.22,1.52,1.52,1.52
395.77,0.25,-1.24,0.25,-1.24,1.24,1.21,1.25,1.49,1.49,1.49
399.73,0.21,-1.25,0.21,-1.25,1.25,1.22,1.27,1.46,1.46,1.46
403.72,0.17,-1.26,0.17,-1.26,1.26,1.23,1.29,1.43,1.43,1.43
407.76,0.13,-1.27,0.13,-1.27,1.27,1.24,1.32,1.40,1.40,1.40
411.84,0.09,-1.28,0.09,-1.28,1.28,1.25,1.34,1.37,1.37,1.37
415.96,0.05,-1.29,0.05,-1.29,1.29,1.26,1.36,1.35,1.35,1.35
420.12,0.01,-1.31,0.01,-1.31,1.31,1.27,1.39,1.32,1.32,1.32
424.32,-0.03,-1.32,-0.03,-1.32,1.32,1.28,1.41,1.29,1.29,1.29
428.56,-0.06,-1.33,-0.06,-1.33,1.33,1.29,1.44,1.26,1.26,1.26
432.85,-0.10,-1.34,-0.10,-1.34,1.34,1.30,1.46,1.24,1.24,1.24
437.18,-0.14,-1.35,-0.14,-1.35,1.35,1.31,1.48,1.21,1.21,1.21
441.55,-0.17,-1.36,-0.17,-1.36,1.36,1.32,1.50,1.18,1.18,1.18
445.96,-0.21,-1.37,-0.21,-1.37,1.37,1.33,1.52,1.16,1.16,1.16
450.42,-0.25,-1.38,-0.25,-1.38,1.38,1.34,1.54,1.13,1.13,1.13
454.93,-0.28,-1.39,-0.28,-1.39,1.39,1.35,1.56,1.11,1.11,1.11
459.48,-0.32,-1.40,-0.32,-1.40,1.40,1.36,1.58,1.08,1.08,1.08
464.07,-0.35,-1.41,-0.35,-1.41,1.41,1.37,1.59,1.06,1.06,1.06
468.71,-0.38,-1.42,-0.38,-1.42,1.42,1.38,1.61,1.04,1.04,1.04
473.40,-0.42,-1.43,-0.42,-1.43,1.43,1.39,1.62,1.01,1.01,1.01
478.13,-0.45,-1.44,-0.45,-1.44,1.44,1.40,1.63,0.99,0.99,0.99
482.91,-0.48,-1.45,-0.48,-1.45,1.45,1.41,1.64,0.97,0.97,0.97
487.74,-0.51,-1.46,-0.51,-1.46,1.46,1.42,1.64,0.95,0.95,0.95
492.62,-0.54,-1.46,-0.54,-1.46,1.46,1.43,1.65,0.92,0.92,0.92
497.55,-0.57,-1.47,-0.57,-1.47,1.47,1.44,1.65,0.90,0.90,0.90
502.52,-0.60,-1.48,-0.60,-1.48,1.48,1.45,1.65,0.88,0.88,0.88
507.55,-0.63,-1.48,-0.63,-1.48,1.48,1.46,1.65,0.86,0.86,0.86
512.62,-0.65,-1.49,-0.65,-1.49,1.49,1.47,1.64,0.84,0.84,0.84
517.75,-0.68,-1.50,-0.68,-1.50,1.49,1.48,1.64,0.81,0.81,0.81
522.93,-0.71,-1.50,-0.71,-1.50,1.50,1.49,1.63,0.79,0.79,0.79
528.16,-0.73,-1.50,-0.73,-1.50,1.50,1.50,1.62,0.77,0.77,0.77
533.44,-0.75,-1.50,-0.75,-1.50,1.50,1.50,1.61,0.75,0.75,0.75
538.77,-0.77,-1.50,-0.77,-1.50,1.50,1.51,1.59,0.73,0.73,0.73
