frequency,raw,error,smoothed,error_smoothed,equalization,parametric_eq,fixed_band_eq,equalized_raw,equalized_smoothed,target
20.00,8.56,-2.57,8.56,-2.60,2.65,1.11,1.14,11.21,11.21,11.13
20.20,8.56,-2.61,8.56,-2.57,2.58,1.19,1.17,11.14,11.14,11.17
20.40,8.56,-2.57,8.56,-2.55,2.53,1.28,1.20,11.09,11.09,11.13
20.61,8.57,-2.50,8.57,-2.52,2.49,1.38,1.24,11.06,11.06,11.07
20.81,8.58,-2.49,8.58,-2.49,2.46,1.49,1.28,11.04,11.04,11.07
21.02,8.59,-2.48,8.59,-2.47,2.44,1.62,1.31,11.03,11.03,11.07
21.23,8.61,-2.46,8.61,-2.46,2.43,1.76,1.35,11.04,11.04,11.07
21.44,8.62,-2.44,8.62,-2.44,2.44,1.93,1.39,11.06,11.06,11.07
21.66,8.64,-2.43,8.64,-2.43,2.44,2.10,1.43,11.08,11.08,11.07
21.87,8.65,-2.42,8.65,-2.44,2.46,2.32,1.48,11.11,11.11,11.07
22.09,8.65,-2.48,8.65,-2.48,2.50,2.53,1.52,11.15,11.15,11.13
22.31,8.65,-2.55,8.65,-2.54,2.55,2.78,1.56,11.21,11.21,11.21
22.54,8.65,-2.63,8.65,-2.63,2.62,3.03,1.61,11.27,11.27,11.28
22.76,8.64,-2.71,8.64,-2.72,2.71,3.27,1.66,11.35,11.35,11.35
22.99,8.64,-2.82,8.64,-2.83,2.82,3.51,1.71,11.46,11.46,11.46
23.22,8.64,-2.94,8.64,-2.94,2.95,3.67,1.75,11.60,11.60,11.58
23.45,8.65,-3.08,8.65,-3.05,3.11,3.81,1.80,11.76,11.76,11.74
23.69,8.67,-3.16,8.67,-3.18,3.27,3.82,1.86,11.94,11.94,11.83
23.92,8.69,-3.30,8.69,-3.34,3.41,3.82,1.91,12.10,12.10,11.99
24.16,8.71,-3.52,8.71,-3.50,3.52,3.68,1.96,12.23,12.22,12.23
24.40,8.73,-3.67,8.73,-3.66,3.57,3.54,2.02,12.30,12.30,12.40
24.65,8.75,-3.75,8.75,-3.77,3.57,3.35,2.07,12.32,12.32,12.50
24.89,8.76,-3.80,8.76,-3.83,3.49,3.15,2.13,12.26,12.26,12.57
25.14,8.77,-3.79,8.77,-3.78,3.36,2.96,2.18,12.13,12.13,12.57
25.39,8.78,-3.63,8.78,-3.54,3.17,2.78,2.24,11.96,11.96,12.41
25.65,8.79,-3.18,8.79,-3.16,2.96,2.63,2.29,11.75,11.75,11.97
25.91,8.80,-2.66,8.80,-2.74,2.75,2.49,2.35,11.54,11.55,11.46
26.16,8.81,-2.38,8.81,-2.41,2.55,2.40,2.41,11.36,11.36,11.18
26.43,8.82,-2.25,8.82,-2.25,2.39,2.30,2.46,11.21,11.21,11.07
26.69,8.83,-2.24,8.83,-2.23,2.30,2.25,2.52,11.13,11.13,11.07
26.96,8.84,-2.26,8.84,-2.26,2.25,2.20,2.57,11.09,11.09,11.11
27.23,8.85,-2.32,8.85,-2.29,2.25,2.18,2.62,11.10,11.10,11.17
27.50,8.86,-2.31,8.86,-2.33,2.27,2.16,2.68,11.13,11.13,11.17
27.77,8.86,-2.36,8.86,-2.37,2.33,2.18,2.73,11.19,11.19,11.22
28.05,8.86,-2.42,8.86,-2.42,2.41,2.20,2.77,11.27,11.27,11.28
28.33,8.86,-2.49,8.86,-2.46,2.48,2.24,2.82,11.34,11.34,11.35
28.62,8.86,-2.51,8.86,-2.52,2.56,2.30,2.86,11.42,11.41,11.37
28.90,8.85,-2.57,8.85,-2.60,2.63,2.37,2.90,11.48,11.48,11.42
29.19,8.84,-2.72,8.84,-2.70,2.71,2.46,2.94,11.55,11.55,11.56
29.48,8.83,-2.81,8.83,-2.78,2.77,2.57,2.97,11.60,11.60,11.64
29.78,8.82,-2.84,8.82,-2.85,2.81,2.68,3.00,11.63,11.63,11.67
30.08,8.82,-2.86,8.82,-2.89,2.83,2.82,3.03,11.65,11.65,11.68
30.38,8.82,-2.92,8.82,-2.90,2.83,2.96,3.05,11.65,11.66,11.74
30.68,8.83,-2.89,8.83,-2.87,2.82,3.13,3.07,11.65,11.65,11.72
30.99,8.85,-2.80,8.85,-2.81,2.79,3.29,3.09,11.64,11.64,11.65
31.30,8.87,-2.72,8.87,-2.73,2.77,3.45,3.10,11.64,11.64,11.59
31.61,8.88,-2.69,8.88,-2.70,2.77,3.61,3.11,11.65,11.65,11.57
31.93,8.88,-2.71,8.88,-2.71,2.80,3.74,3.11,11.69,11.68,11.59
32.24,8.88,-2.78,8.88,-2.76,2.86,3.86,3.11,11.74,11.74,11.66
32.57,8.87,-2.85,8.87,-2.86,2.93,3.92,3.10,11.80,11.80,11.72
32.89,8.85,-2.96,8.85,-2.99,3.00,3.96,3.09,11.86,11.86,11.81
33.22,8.84,-3.13,8.85,-3.13,3.07,3.94,3.08,11.91,11.91,11.98
33.55,8.84,-3.27,8.84,-3.25,3.11,3.89,3.06,11.95,11.95,12.11
33.89,8.84,-3.28,8.84,-3.26,3.12,3.78,3.04,11.96,11.96,12.13
34.23,8.85,-3.20,8.85,-3.17,3.10,3.66,3.02,11.95,11.95,12.05
34.57,8.86,-2.99,8.86,-3.03,3.04,3.52,3.00,11.90,11.90,11.84
34.92,8.86,-2.86,8.86,-2.89,2.96,3.37,2.97,11.82,11.82,11.72
35.27,8.86,-2.79,8.86,-2.78,2.86,3.22,2.94,11.72,11.72,11.65
35.62,8.86,-2.73,8.86,-2.72,2.75,3.07,2.91,11.61,11.61,11.58
35.97,8.85,-2.66,8.85,-2.66,2.65,2.94,2.88,11.50,11.50,11.51
36.33,8.85,-2.59,8.85,-2.59,2.56,2.81,2.85,11.41,11.41,11.44
36.70,8.85,-2.54,8.85,-2.53,2.51,2.69,2.82,11.36,11.36,11.38
37.06,8.85,-2.47,8.85,-2.46,2.48,2.59,2.78,11.33,11.33,11.31
37.43,8.85,-2.42,8.85,-2.43,2.47,2.50,2.75,11.32,11.32,11.27
37.81,8.85,-2.41,8.85,-2.43,2.49,2.42,2.71,11.34,11.34,11.27
38.19,8.86,-2.47,8.86,-2.46,2.51,2.35,2.68,11.37,11.37,11.32
38.57,8.86,-2.53,8.86,-2.53,2.54,2.29,2.65,11.41,11.40,11.40
38.95,8.86,-2.60,8.86,-2.61,2.58,2.24,2.61,11.44,11.44,11.46
39.34,8.86,-2.68,8.86,-2.67,2.61,2.20,2.58,11.47,11.47,11.54
39.74,8.86,-2.71,8.86,-2.70,2.63,2.17,2.55,11.49,11.49,11.57
40.14,8.85,-2.71,8.85,-2.70,2.65,2.13,2.52,11.50,11.50,11.56
40.54,8.84,-2.65,8.84,-2.65,2.66,2.11,2.50,11.50,11.50,11.49
40.94,8.84,-2.59,8.84,-2.59,2.65,2.09,2.47,11.49,11.49,11.43
41.35,8.83,-2.54,8.83,-2.55,2.64,2.08,2.44,11.47,11.47,11.37
41.76,8.83,-2.54,8.83,-2.56,2.61,2.07,2.42,11.44,11.44,11.37
42.18,8.82,-2.59,8.82,-2.59,2.58,2.06,2.40,11.40,11.40,11.41
42.60,8.82,-2.63,8.82,-2.59,2.53,2.06,2.38,11.36,11.36,11.45
43.03,8.82,-2.55,8.82,-2.54,2.47,2.05,2.36,11.29,11.29,11.38
43.46,8.82,-2.42,8.82,-2.43,2.38,2.06,2.34,11.21,11.21,11.25
43.90,8.82,-2.29,8.82,-2.31,2.27,2.06,2.33,11.09,11.09,11.11
44.33,8.81,-2.17,8.81,-2.20,2.15,2.06,2.31,10.96,10.96,10.99
44.78,8.81,-2.10,8.81,-2.05,2.02,2.07,2.30,10.83,10.83,10.90
45.23,8.80,-1.94,8.80,-1.90,1.92,2.08,2.29,10.72,10.72,10.74
45.68,8.79,-1.69,8.79,-1.77,1.85,2.09,2.29,10.64,10.64,10.48
46.13,8.78,-1.69,8.78,-1.68,1.83,2.10,2.28,10.61,10.61,10.47
46.60,8.77,-1.74,8.77,-1.72,1.84,2.11,2.28,10.62,10.62,10.51
47.06,8.77,-1.83,8.77,-1.86,1.89,2.12,2.27,10.66,10.66,10.59
47.53,8.76,-2.04,8.76,-2.00,1.96,2.14,2.27,10.72,10.72,10.80
48.01,8.75,-2.16,8.75,-2.15,2.05,2.15,2.27,10.81,10.81,10.91
48.49,8.74,-2.24,8.74,-2.25,2.16,2.16,2.27,10.90,10.90,10.98
48.97,8.73,-2.32,8.73,-2.30,2.27,2.18,2.28,11.00,11.00,11.05
49.46,8.72,-2.34,8.72,-2.35,2.37,2.19,2.28,11.09,11.09,11.07
49.96,8.71,-2.38,8.71,-2.40,2.44,2.21,2.29,11.16,11.16,11.09
50.46,8.71,-2.45,8.71,-2.46,2.50,2.22,2.30,11.21,11.21,11.16
50.96,8.70,-2.53,8.70,-2.52,2.54,2.24,2.31,11.24,11.24,11.23
51.47,8.69,-2.58,8.69,-2.57,2.55,2.25,2.31,11.24,11.24,11.27
51.99,8.68,-2.59,8.68,-2.58,2.54,2.26,2.32,11.22,11.22,11.27
52.51,8.67,-2.54,8.67,-2.55,2.49,2.28,2.33,11.16,11.16,11.20
53.03,8.66,-2.48,8.66,-2.50,2.41,2.29,2.34,11.07,11.07,11.13
53.56,8.64,-2.41,8.64,-2.40,2.31,2.30,2.36,10.95,10.95,11.05
54.10,8.63,-2.29,8.63,-2.23,2.19,2.32,2.37,10.82,10.82,10.92
54.64,8.62,-2.04,8.62,-2.03,2.07,2.33,2.38,10.69,10.69,10.66
55.18,8.61,-1.76,8.61,-1.86,1.95,2.34,2.39,10.56,10.56,10.37
55.74,8.59,-1.78,8.59,-1.77,1.86,2.35,2.39,10.45,10.45,10.37
56.29,8.57,-1.79,8.57,-1.76,1.81,2.36,2.40,10.38,10.38,10.37
56.86,8.56,-1.81,8.56,-1.80,1.80,2.36,2.41,10.35,10.35,10.37
57.42,8.54,-1.83,8.54,-1.84,1.84,2.37,2.42,10.38,10.38,10.37
58.00,8.52,-1.90,8.52,-1.91,1.93,2.38,2.42,10.46,10.46,10.42
58.58,8.51,-2.01,8.51,-2.01,2.06,2.38,2.42,10.57,10.57,10.51
59.16,8.49,-2.17,8.49,-2.15,2.21,2.38,2.42,10.70,10.70,10.66
59.76,8.47,-2.32,8.47,-2.34,2.35,2.38,2.42,10.82,10.82,10.79
60.35,8.46,-2.49,8.46,-2.52,2.47,2.39,2.42,10.93,10.93,10.95
60.96,8.44,-2.71,8.44,-2.66,2.56,2.38,2.41,11.01,11.01,11.15
61.57,8.43,-2.74,8.43,-2.73,2.63,2.38,2.40,11.06,11.06,11.17
62.18,8.42,-2.71,8.42,-2.73,2.65,2.38,2.39,11.07,11.07,11.12
62.80,8.40,-2.66,8.40,-2.67,2.64,2.37,2.38,11.04,11.04,11.06
63.43,8.39,-2.61,8.39,-2.59,2.60,2.37,2.36,10.99,10.99,10.99
64.07,8.37,-2.51,8.37,-2.50,2.54,2.36,2.34,10.92,10.92,10.89
64.71,8.36,-2.40,8.36,-2.42,2.47,2.35,2.32,10.83,10.83,10.76
65.35,8.34,-2.34,8.34,-2.36,2.41,2.34,2.30,10.75,10.75,10.68
66.01,8.33,-2.34,8.33,-2.33,2.35,2.33,2.27,10.68,10.68,10.67
66.67,8.31,-2.34,8.31,-2.31,2.32,2.32,2.24,10.63,10.63,10.65
67.33,8.30,-2.28,8.30,-2.31,2.29,2.30,2.21,10.59,10.59,10.57
68.01,8.28,-2.29,8.28,-2.28,2.28,2.29,2.18,10.56,10.56,10.57
68.69,8.26,-2.28,8.26,-2.26,2.27,2.27,2.15,10.53,10.53,10.54
69.37,8.24,-2.23,8.24,-2.26,2.26,2.25,2.11,10.50,10.50,10.47
70.07,8.22,-2.25,8.22,-2.25,2.24,2.23,2.07,10.46,10.46,10.47
70.77,8.19,-2.24,8.19,-2.23,2.21,2.21,2.04,10.40,10.40,10.43
71.48,8.17,-2.20,8.17,-2.20,2.16,2.19,2.00,10.33,10.33,10.37
72.19,8.15,-2.15,8.15,-2.16,2.10,2.16,1.96,10.25,10.25,10.30
72.91,8.12,-2.11,8.12,-2.10,2.06,2.14,1.92,10.18,10.18,10.23
73.64,8.09,-2.05,8.09,-2.02,2.04,2.11,1.87,10.13,10.13,10.14
74.38,8.07,-1.94,8.07,-1.96,2.05,2.09,1.83,10.11,10.11,10.01
75.12,8.04,-1.93,8.04,-1.93,2.08,2.06,1.79,10.12,10.12,9.97
75.87,8.01,-1.98,8.01,-1.98,2.13,2.03,1.75,10.13,10.13,9.98
76.63,7.98,-2.07,7.98,-2.12,2.17,2.00,1.70,10.14,10.14,10.05
77.40,7.95,-2.28,7.95,-2.27,2.18,1.97,1.66,10.13,10.13,10.23
78.17,7.92,-2.42,7.92,-2.38,2.17,1.94,1.62,10.10,10.10,10.34
78.95,7.90,-2.38,7.90,-2.39,2.15,1.91,1.58,10.05,10.05,10.28
79.74,7.87,-2.28,7.87,-2.25,2.12,1.88,1.54,9.99,9.99,10.15
80.54,7.85,-2.08,7.85,-2.04,2.09,1.85,1.50,9.94,9.94,9.92
81.35,7.82,-1.77,7.82,-1.84,2.06,1.81,1.46,9.88,9.88,9.59
82.16,7.79,-1.71,7.79,-1.74,2.02,1.78,1.42,9.81,9.81,9.50
82.98,7.76,-1.77,7.76,-1.79,1.97,1.75,1.38,9.73,9.73,9.53
83.81,7.73,-1.94,7.73,-1.95,1.91,1.71,1.34,9.64,9.64,9.67
84.65,7.70,-2.11,7.70,-2.06,1.85,1.68,1.31,9.54,9.54,9.81
85.50,7.67,-2.08,7.67,-2.04,1.77,1.64,1.27,9.43,9.44,9.74
86.35,7.64,-1.87,7.64,-1.86,1.68,1.61,1.24,9.31,9.31,9.51
87.22,7.61,-1.57,7.61,-1.61,1.56,1.57,1.20,9.17,9.17,9.18
88.09,7.58,-1.34,7.58,-1.34,1.44,1.54,1.17,9.02,9.02,8.92
88.97,7.55,-1.16,7.55,-1.14,1.31,1.50,1.14,8.86,8.86,8.70
89.86,7.52,-0.98,7.51,-1.02,1.20,1.47,1.10,8.71,8.71,8.50
90.76,7.48,-0.99,7.48,-0.99,1.11,1.43,1.07,8.60,8.60,8.47
91.66,7.45,-1.05,7.45,-1.04,1.08,1.40,1.04,8.53,8.53,8.49
92.58,7.41,-1.14,7.41,-1.15,1.09,1.36,1.02,8.50,8.50,8.56
93.51,7.38,-1.25,7.38,-1.23,1.13,1.33,0.99,8.51,8.51,8.63
94.44,7.36,-1.28,7.36,-1.25,1.18,1.29,0.96,8.53,8.54,8.64
95.39,7.34,-1.23,7.34,-1.23,1.21,1.26,0.93,8.55,8.55,8.57
96.34,7.32,-1.18,7.33,-1.21,1.22,1.22,0.91,8.55,8.55,8.50
97.30,7.32,-1.18,7.32,-1.21,1.20,1.19,0.88,8.52,8.52,8.50
98.28,7.32,-1.24,7.32,-1.21,1.16,1.15,0.86,8.48,8.47,8.56
99.26,7.30,-1.19,7.30,-1.16,1.11,1.12,0.84,8.41,8.40,8.49
100.25,7.26,-1.06,7.26,-1.07,1.07,1.08,0.81,8.33,8.33,8.33
101.25,7.21,-0.94,7.22,-0.98,1.04,1.05,0.79,8.26,8.26,8.15
102.27,7.17,-0.94,7.17,-0.93,1.04,1.01,0.77,8.20,8.21,8.10
103.29,7.12,-0.95,7.12,-0.94,1.04,0.98,0.75,8.16,8.16,8.07
104.32,7.08,-0.99,7.08,-0.99,1.03,0.95,0.73,8.11,8.11,8.07
105.37,7.03,-1.04,7.03,-1.04,1.01,0.91,0.71,8.04,8.04,8.07
106.42,6.99,-1.08,6.98,-1.10,0.98,0.88,0.69,7.96,7.96,8.07
107.48,6.94,-1.10,6.94,-1.10,0.94,0.85,0.67,7.88,7.88,8.04
108.56,6.90,-1.09,6.90,-0.99,0.89,0.82,0.65,7.79,7.79,7.99
109.64,6.87,-0.78,6.87,-0.82,0.84,0.79,0.64,7.71,7.71,7.64
110.74,6.84,-0.59,6.84,-0.65,0.77,0.76,0.62,7.61,7.61,7.43
111.85,6.82,-0.56,6.82,-0.55,0.70,0.72,0.60,7.52,7.52,7.37
112.97,6.79,-0.58,6.79,-0.56,0.64,0.69,0.58,7.43,7.43,7.37
114.10,6.77,-0.60,6.77,-0.60,0.57,0.66,0.57,7.34,7.34,7.37
115.24,6.74,-0.62,6.74,-0.61,0.53,0.63,0.55,7.27,7.27,7.36
116.39,6.71,-0.59,6.71,-0.59,0.51,0.60,0.53,7.21,7.21,7.30
117.55,6.67,-0.54,6.67,-0.53,0.49,0.58,0.52,7.16,7.16,7.21
118.73,6.63,-0.46,6.63,-0.46,0.48,0.55,0.50,7.12,7.12,7.09
119.92,6.59,-0.38,6.60,-0.42,0.47,0.52,0.49,7.06,7.06,6.98
121.12,6.55,-0.41,6.55,-0.40,0.45,0.49,0.47,7.00,7.00,6.97
122.33,6.51,-0.44,6.51,-0.42,0.43,0.46,0.45,6.94,6.94,6.95
123.55,6.46,-0.43,6.46,-0.44,0.43,0.44,0.44,6.90,6.90,6.89
124.79,6.41,-0.45,6.41,-0.44,0.44,0.41,0.42,6.86,6.86,6.87
126.03,6.36,-0.45,6.36,-0.45,0.46,0.38,0.41,6.83,6.83,6.82
127.29,6.31,-0.46,6.31,-0.48,0.48,0.36,0.39,6.79,6.79,6.77
128.57,6.26,-0.51,6.26,-0.50,0.49,0.33,0.38,6.75,6.75,6.77
129.85,6.21,-0.52,6.21,-0.51,0.50,0.31,0.36,6.70,6.70,6.72
131.15,6.15,-0.50,6.15,-0.48,0.48,0.28,0.34,6.63,6.63,6.65
132.46,6.10,-0.42,6.10,-0.44,0.44,0.26,0.33,6.54,6.54,6.52
133.79,6.05,-0.38,6.05,-0.40,0.38,0.23,0.31,6.43,6.43,6.43
135.12,6.00,-0.36,6.00,-0.34,0.29,0.21,0.29,6.29,6.29,6.35
136.48,5.96,-0.26,5.96,-0.25,0.17,0.18,0.28,6.13,6.13,6.22
137.84,5.92,-0.12,5.92,-0.11,0.04,0.16,0.26,5.96,5.96,6.04
139.22,5.90,0.06,5.90,0.07,-0.08,0.14,0.25,5.82,5.82,5.83
140.61,5.89,0.26,5.89,0.24,-0.18,0.11,0.23,5.70,5.70,5.63
142.02,5.88,0.37,5.88,0.36,-0.25,0.09,0.21,5.63,5.63,5.52
143.44,5.88,0.41,5.88,0.42,-0.29,0.07,0.19,5.59,5.59,5.47
144.87,5.88,0.41,5.88,0.40,-0.30,0.05,0.18,5.58,5.58,5.47
146.32,5.87,0.34,5.87,0.32,-0.29,0.03,0.16,5.58,5.58,5.53
147.78,5.86,0.22,5.86,0.20,-0.26,0.01,0.14,5.60,5.59,5.65
149.26,5.84,0.07,5.84,0.10,-0.23,-0.01,0.13,5.61,5.61,5.77
150.75,5.81,0.04,5.81,0.08,-0.20,-0.03,0.11,5.61,5.61,5.77
152.26,5.77,0.13,5.77,0.13,-0.18,-0.05,0.09,5.59,5.59,5.64
153.78,5.73,0.24,5.73,0.21,-0.18,-0.07,0.07,5.55,5.55,5.49
155.32,5.68,0.28,5.68,0.29,-0.21,-0.09,0.06,5.48,5.48,5.40
156.88,5.63,0.31,5.63,0.30,-0.26,-0.11,0.04,5.38,5.38,5.32
158.44,5.58,0.31,5.58,0.29,-0.31,-0.13,0.02,5.27,5.27,5.27
160.03,5.53,0.26,5.53,0.32,-0.37,-0.15,0.00,5.16,5.16,5.26
161.63,5.47,0.37,5.47,0.37,-0.40,-0.17,-0.02,5.07,5.07,5.10
163.24,5.42,0.46,5.42,0.43,-0.41,-0.19,-0.03,5.00,5.00,4.95
164.88,5.36,0.49,5.36,0.50,-0.42,-0.20,-0.05,4.95,4.95,4.87
166.53,5.31,0.49,5.31,0.48,-0.42,-0.22,-0.07,4.89,4.89,4.82
168.19,5.25,0.48,5.25,0.44,-0.42,-0.24,-0.09,4.84,4.84,4.78
169.87,5.20,0.34,5.20,0.39,-0.42,-0.26,-0.11,4.78,4.78,4.86
171.57,5.15,0.36,5.15,0.35,-0.42,-0.27,-0.13,4.73,4.73,4.79
173.29,5.09,0.37,5.09,0.36,-0.43,-0.29,-0.15,4.67,4.67,4.72
175.02,5.04,0.38,5.04,0.42,-0.44,-0.31,-0.17,4.60,4.60,4.67
176.77,4.98,0.49,4.98,0.46,-0.46,-0.32,-0.19,4.53,4.53,4.49
178.54,4.93,0.51,4.93,0.50,-0.49,-0.34,-0.21,4.44,4.44,4.42
180.32,4.87,0.52,4.87,0.53,-0.51,-0.35,-0.23,4.36,4.36,4.36
182.13,4.82,0.52,4.82,0.56,-0.53,-0.37,-0.25,4.29,4.29,4.30
183.95,4.77,0.60,4.77,0.58,-0.54,-0.38,-0.27,4.23,4.23,4.17
185.79,4.72,0.63,4.72,0.58,-0.54,-0.40,-0.29,4.18,4.18,4.09
187.65,4.67,0.52,4.67,0.54,-0.52,-0.41,-0.31,4.15,4.15,4.16
189.52,4.62,0.46,4.62,0.47,-0.51,-0.43,-0.33,4.12,4.12,4.17
191.42,4.58,0.42,4.58,0.43,-0.49,-0.44,-0.35,4.09,4.09,4.15
193.33,4.53,0.44,4.53,0.45,-0.47,-0.45,-0.37,4.06,4.06,4.09
195.27,4.48,0.48,4.48,0.46,-0.45,-0.47,-0.39,4.04,4.04,4.00
197.22,4.44,0.47,4.44,0.46,-0.44,-0.48,-0.41,4.00,4.00,3.97
199.19,4.39,0.43,4.39,0.45,-0.43,-0.49,-0.43,3.96,3.96,3.96
201.18,4.34,0.45,4.34,0.45,-0.44,-0.51,-0.46,3.90,3.90,3.89
203.19,4.29,0.46,4.29,0.45,-0.46,-0.52,-0.48,3.83,3.83,3.83
205.23,4.23,0.47,4.23,0.47,-0.50,-0.53,-0.50,3.74,3.74,3.76
207.28,4.18,0.49,4.18,0.51,-0.54,-0.54,-0.52,3.64,3.64,3.69
209.35,4.13,0.55,4.13,0.54,-0.60,-0.55,-0.54,3.53,3.53,3.58
211.44,4.08,0.62,4.08,0.61,-0.65,-0.57,-0.56,3.42,3.42,3.45
213.56,4.03,0.65,4.03,0.72,-0.71,-0.58,-0.58,3.32,3.32,3.38
215.69,3.98,0.84,3.98,0.81,-0.75,-0.59,-0.60,3.23,3.23,3.14
217.85,3.93,0.93,3.93,0.85,-0.77,-0.60,-0.62,3.15,3.15,3.00
220.03,3.88,0.81,3.88,0.85,-0.78,-0.61,-0.64,3.10,3.10,3.07
222.23,3.82,0.76,3.82,0.77,-0.76,-0.62,-0.66,3.06,3.06,3.07
224.45,3.77,0.71,3.77,0.70,-0.72,-0.63,-0.68,3.05,3.05,3.07
226.70,3.72,0.66,3.72,0.66,-0.67,-0.64,-0.69,3.05,3.05,3.07
228.96,3.67,0.60,3.67,0.60,-0.61,-0.65,-0.71,3.06,3.06,3.07
231.25,3.62,0.55,3.62,0.55,-0.56,-0.66,-0.73,3.06,3.06,3.07
233.57,3.57,0.50,3.57,0.49,-0.52,-0.67,-0.74,3.05,3.05,3.07
235.90,3.52,0.45,3.52,0.48,-0.51,-0.68,-0.75,3.01,3.01,3.07
238.26,3.47,0.49,3.47,0.49,-0.53,-0.69,-0.77,2.94,2.94,2.98
240.64,3.42,0.57,3.42,0.53,-0.56,-0.70,-0.78,2.85,2.85,2.85
243.05,3.37,0.58,3.37,0.59,-0.61,-0.71,-0.79,2.76,2.76,2.79
245.48,3.31,0.65,3.31,0.66,-0.65,-0.71,-0.80,2.66,2.66,2.67
247.93,3.26,0.74,3.26,0.73,-0.70,-0.72,-0.80,2.56,2.56,2.52
250.41,3.21,0.82,3.21,0.81,-0.75,-0.73,-0.81,2.46,2.46,2.40
252.92,3.16,0.84,3.16,0.84,-0.80,-0.74,-0.82,2.36,2.36,2.32
255.45,3.11,0.84,3.11,0.83,-0.84,-0.75,-0.82,2.27,2.27,2.27
258.00,3.06,0.79,3.06,0.81,-0.86,-0.75,-0.82,2.20,2.20,2.27
260.58,3.01,0.80,3.01,0.83,-0.86,-0.76,-0.82,2.15,2.15,2.20
263.19,2.95,0.85,2.95,0.86,-0.83,-0.77,-0.82,2.12,2.12,2.11
265.82,2.90,0.92,2.90,0.86,-0.79,-0.78,-0.82,2.11,2.11,1.98
268.48,2.85,0.82,2.85,0.83,-0.75,-0.78,-0.82,2.10,2.10,2.03
271.16,2.80,0.73,2.80,0.75,-0.72,-0.79,-0.82,2.08,2.08,2.07
273.87,2.74,0.68,2.74,0.64,-0.70,-0.80,-0.82,2.04,2.05,2.07
276.61,2.69,0.56,2.69,0.58,-0.68,-0.80,-0.81,2.01,2.01,2.13
279.38,2.64,0.54,2.64,0.58,-0.67,-0.81,-0.81,1.97,1.97,2.10
282.17,2.58,0.63,2.58,0.62,-0.66,-0.81,-0.80,1.93,1.93,1.96
284.99,2.53,0.71,2.53,0.70,-0.65,-0.82,-0.80,1.88,1.88,1.82
287.84,2.48,0.76,2.48,0.75,-0.66,-0.83,-0.79,1.82,1.82,1.72
290.72,2.42,0.76,2.42,0.75,-0.67,-0.83,-0.79,1.75,1.75,1.67
293.63,2.37,0.70,2.37,0.71,-0.69,-0.84,-0.78,1.68,1.68,1.67
296.57,2.32,0.65,2.32,0.65,-0.70,-0.84,-0.77,1.62,1.62,1.67
299.53,2.26,0.63,2.26,0.64,-0.70,-0.85,-0.77,1.56,1.56,1.64
302.53,2.21,0.63,2.21,0.66,-0.69,-0.85,-0.76,1.52,1.52,1.58
305.55,2.16,0.72,2.16,0.70,-0.67,-0.86,-0.75,1.48,1.48,1.44
308.61,2.11,0.74,2.11,0.71,-0.66,-0.86,-0.75,1.45,1.45,1.37
311.69,2.06,0.69,2.06,0.70,-0.65,-0.86,-0.74,1.41,1.41,1.37
314.81,2.02,0.65,2.02,0.68,-0.66,-0.87,-0.73,1.36,1.36,1.37
317.96,1.99,0.66,1.99,0.66,-0.68,-0.87,-0.73,1.31,1.31,1.33
321.14,1.97,0.70,1.97,0.67,-0.72,-0.88,-0.72,1.24,1.24,1.27
324.35,1.95,0.68,1.95,0.68,-0.78,-0.88,-0.72,1.17,1.17,1.27
327.59,1.94,0.72,1.94,0.76,-0.84,-0.88,-0.71,1.10,1.10,1.22
330.87,1.92,0.83,1.92,0.88,-0.91,-0.89,-0.71,1.02,1.02,1.10
334.18,1.91,1.08,1.91,1.01,-0.96,-0.89,-0.71,0.95,0.95,0.83
337.52,1.89,1.13,1.89,1.12,-1.00,-0.89,-0.70,0.89,0.89,0.77
340.90,1.87,1.12,1.87,1.16,-1.02,-0.89,-0.70,0.85,0.85,0.75
344.30,1.84,1.16,1.84,1.10,-1.03,-0.90,-0.70,0.81,0.81,0.68
347.75,1.80,1.02,1.80,1.02,-1.02,-0.90,-0.70,0.78,0.78,0.78
351.23,1.76,0.89,1.76,0.93,-1.00,-0.90,-0.70,0.75,0.75,0.87
354.74,1.72,0.85,1.72,0.86,-0.98,-0.90,-0.70,0.74,0.74,0.87
358.28,1.67,0.87,1.67,0.87,-0.95,-0.90,-0.70,0.72,0.72,0.80
361.87,1.62,0.93,1.62,0.94,-0.94,-0.91,-0.70,0.69,0.69,0.69
365.49,1.58,1.02,1.58,0.99,-0.95,-0.91,-0.70,0.63,0.63,0.56
369.14,1.53,1.03,1.53,1.01,-0.98,-0.91,-0.70,0.55,0.55,0.50
372.83,1.48,1.02,1.48,1.02,-1.02,-0.91,-0.71,0.46,0.46,0.47
376.56,1.44,0.99,1.44,1.03,-1.06,-0.91,-0.71,0.38,0.38,0.45
380.33,1.39,1.07,1.39,1.06,-1.08,-0.91,-0.71,0.31,0.31,0.32
384.13,1.35,1.12,1.35,1.10,-1.09,-0.91,-0.72,0.26,0.26,0.22
387.97,1.30,1.13,1.30,1.13,-1.07,-0.91,-0.72,0.23,0.23,0.17
391.85,1.26,1.09,1.26,1.10,-1.04,-0.91,-0.73,0.22,0.22,0.17
395.77,1.21,1.05,1.21,1.04,-1.01,-0.91,-0.73,0.20,0.20,0.17
399.73,1.17,0.97,1.17,0.96,-0.98,-0.91,-0.74,0.19,0.19,0.20
403.72,1.13,0.87,1.13,0.88,-0.93,-0.91,-0.75,0.19,0.19,0.26
407.76,1.09,0.82,1.08,0.83,-0.88,-0.91,-0.75,0.20,0.20,0.27
411.84,1.04,0.81,1.04,0.81,-0.83,-0.91,-0.76,0.21,0.21,0.24
415.96,1.00,0.83,1.00,0.81,-0.78,-0.91,-0.77,0.21,0.21,0.17
420.12,0.96,0.79,0.96,0.79,-0.75,-0.91,-0.77,0.21,0.21,0.17
424.32,0.92,0.75,0.92,0.75,-0.73,-0.91,-0.78,0.19,0.19,0.17
428.56,0.88,0.71,0.88,0.71,-0.72,-0.91,-0.79,0.15,0.15,0.17
432.85,0.84,0.67,0.84,0.68,-0.72,-0.90,-0.79,0.12,0.12,0.17
437.18,0.80,0.68,0.80,0.68,-0.72,-0.90,-0.80,0.08,0.08,0.12
441.55,0.76,0.71,0.76,0.71,-0.72,-0.90,-0.81,0.05,0.05,0.06
445.96,0.73,0.74,0.73,0.74,-0.72,-0.90,-0.81,0.01,0.01,-0.02
450.42,0.69,0.77,0.69,0.77,-0.73,-0.89,-0.82,-0.04,-0.04,-0.08
454.93,0.66,0.79,0.66,0.77,-0.75,-0.89,-0.82,-0.09,-0.09,-0.13
459.48,0.62,0.75,0.62,0.75,-0.76,-0.89,-0.83,-0.14,-0.14,-0.13
464.07,0.58,0.72,0.58,0.74,-0.77,-0.89,-0.83,-0.19,-0.19,-0.13
468.71,0.55,0.73,0.55,0.76,-0.78,-0.88,-0.83,-0.23,-0.23,-0.18
473.40,0.51,0.83,0.51,0.79,-0.78,-0.88,-0.83,-0.27,-0.27,-0.32
478.13,0.48,0.81,0.48,0.80,-0.77,-0.88,-0.83,-0.29,-0.29,-0.33
482.91,0.44,0.78,0.44,0.79,-0.76,-0.87,-0.83,-0.31,-0.31,-0.33
487.74,0.41,0.74,0.41,0.77,-0.75,-0.87,-0.83,-0.34,-0.34,-0.33
492.62,0.38,0.78,0.38,0.74,-0.74,-0.86,-0.83,-0.37,-0.37,-0.40
497.55,0.34,0.74,0.34,0.72,-0.74,-0.86,-0.82,-0.40,-0.40,-0.40
502.52,0.31,0.65,0.31,0.70,-0.74,-0.85,-0.82,-0.43,-0.43,-0.34
507.55,0.28,0.69,0.28,0.69,-0.74,-0.85,-0.81,-0.46,-0.46,-0.41
512.62,0.25,0.73,0.25,0.72,-0.74,-0.84,-0.81,-0.49,-0.49,-0.48
517.75,0.22,0.76,0.22,0.77,-0.75,-0.84,-0.80,-0.53,-0.53,-0.54
522.93,0.19,0.81,0.19,0.79,-0.75,-0.83,-0.79,-0.56,-0.56,-0.62
