frequency,raw,error,smoothed,error_smoothed,equalization,parametric_eq,fixed_band_eq,equalized_raw,equalized_smoothed,target
20.00,9.99,1.16,10.02,1.19,-1.15,-0.23,-0.38,8.83,8.86,8.83
20.20,9.93,1.08,9.90,1.05,-0.98,-0.24,-0.39,8.94,8.92,8.85
20.40,9.82,0.95,9.79,0.92,-0.84,-0.24,-0.40,8.98,8.94,8.87
20.61,9.68,0.79,9.68,0.78,-0.75,-0.25,-0.41,8.94,8.93,8.89
20.81,9.53,0.61,9.53,0.62,-0.68,-0.26,-0.43,8.85,8.85,8.92
21.02,9.44,0.50,9.43,0.50,-0.66,-0.26,-0.44,8.78,8.77,8.94
21.23,9.41,0.44,9.44,0.47,-0.67,-0.27,-0.45,8.73,8.76,8.96
21.44,9.54,0.55,9.55,0.57,-0.72,-0.28,-0.47,8.81,8.83,8.99
21.66,9.78,0.77,9.77,0.76,-0.88,-0.29,-0.48,8.91,8.89,9.01
21.87,10.06,1.03,10.06,1.03,-1.06,-0.29,-0.50,8.99,9.00,9.03
22.09,10.36,1.31,10.36,1.31,-1.26,-0.30,-0.51,9.10,9.10,9.05
22.31,10.64,1.57,10.63,1.56,-1.44,-0.31,-0.53,9.20,9.18,9.07
22.54,10.84,1.75,10.83,1.74,-1.58,-0.32,-0.54,9.26,9.26,9.09
22.76,10.94,1.83,10.93,1.82,-1.64,-0.33,-0.56,9.30,9.29,9.11
22.99,10.93,1.80,10.91,1.78,-1.64,-0.34,-0.58,9.29,9.27,9.13
23.22,10.80,1.66,10.80,1.66,-1.58,-0.36,-0.59,9.22,9.22,9.15
23.45,10.64,1.47,10.64,1.48,-1.50,-0.37,-0.61,9.14,9.14,9.16
23.69,10.48,1.30,10.48,1.30,-1.43,-0.38,-0.63,9.06,9.06,9.18
23.92,10.37,1.17,10.39,1.19,-1.39,-0.40,-0.65,8.99,9.00,9.20
24.16,10.38,1.16,10.40,1.18,-1.40,-0.41,-0.67,8.98,9.00,9.22
24.40,10.50,1.27,10.52,1.28,-1.45,-0.43,-0.68,9.05,9.07,9.23
24.65,10.72,1.47,10.71,1.46,-1.53,-0.45,-0.70,9.19,9.19,9.25
24.89,10.95,1.68,10.95,1.68,-1.61,-0.46,-0.72,9.34,9.34,9.26
25.14,11.12,1.84,11.13,1.85,-1.66,-0.48,-0.74,9.45,9.46,9.28
25.39,11.23,1.94,11.19,1.90,-1.68,-0.51,-0.76,9.55,9.51,9.29
25.65,11.11,1.80,11.11,1.80,-1.64,-0.53,-0.78,9.47,9.47,9.31
25.91,10.86,1.54,10.85,1.53,-1.52,-0.56,-0.80,9.34,9.33,9.32
26.16,10.45,1.11,10.42,1.08,-1.32,-0.59,-0.82,9.13,9.10,9.34
26.43,9.88,0.53,9.87,0.52,-1.04,-0.62,-0.84,8.84,8.83,9.35
26.69,9.28,-0.08,9.27,-0.09,-0.74,-0.65,-0.86,8.54,8.53,9.36
26.96,8.74,-0.63,8.77,-0.60,-0.46,-0.69,-0.88,8.28,8.31,9.37
27.23,8.43,-0.95,8.49,-0.88,-0.24,-0.74,-0.89,8.19,8.26,9.38
27.50,8.48,-0.91,8.49,-0.89,-0.09,-0.78,-0.91,8.38,8.39,9.38
27.77,8.73,-0.66,8.72,-0.67,-0.03,-0.84,-0.93,8.70,8.69,9.39
28.05,9.09,-0.30,9.08,-0.32,-0.03,-0.89,-0.94,9.07,9.05,9.40
28.33,9.46,0.06,9.44,0.03,-0.09,-0.96,-0.96,9.37,9.35,9.41
28.62,9.77,0.35,9.75,0.33,-0.22,-1.03,-0.97,9.54,9.53,9.41
28.90,9.98,0.56,9.98,0.55,-0.41,-1.10,-0.99,9.57,9.56,9.42
29.19,10.16,0.73,10.16,0.73,-0.65,-1.19,-1.00,9.51,9.51,9.43
29.48,10.32,0.88,10.35,0.90,-0.92,-1.27,-1.01,9.40,9.42,9.45
29.78,10.56,1.10,10.56,1.11,-1.19,-1.37,-1.02,9.37,9.37,9.46
30.08,10.81,1.34,10.82,1.36,-1.42,-1.46,-1.03,9.39,9.40,9.47
30.38,11.10,1.62,11.10,1.62,-1.62,-1.55,-1.04,9.48,9.48,9.48
30.68,11.36,1.87,11.34,1.86,-1.79,-1.63,-1.04,9.56,9.55,9.48
30.99,11.53,2.04,11.52,2.03,-1.95,-1.70,-1.05,9.58,9.58,9.49
31.30,11.62,2.13,11.62,2.13,-2.06,-1.75,-1.05,9.56,9.56,9.50
31.61,11.65,2.16,11.65,2.15,-2.14,-1.78,-1.05,9.51,9.51,9.50
31.93,11.64,2.13,11.64,2.14,-2.16,-1.78,-1.05,9.47,9.48,9.50
32.24,11.60,2.09,11.61,2.10,-2.12,-1.76,-1.05,9.47,9.48,9.51
32.57,11.55,2.04,11.55,2.04,-2.03,-1.72,-1.05,9.52,9.52,9.51
32.89,11.47,1.96,11.46,1.95,-1.89,-1.66,-1.05,9.58,9.57,9.51
33.22,11.32,1.81,11.32,1.81,-1.72,-1.58,-1.04,9.61,9.60,9.51
33.55,11.14,1.62,11.12,1.61,-1.54,-1.51,-1.04,9.60,9.58,9.51
33.89,10.88,1.36,10.88,1.36,-1.37,-1.43,-1.03,9.51,9.51,9.52
34.23,10.64,1.12,10.64,1.12,-1.21,-1.35,-1.02,9.43,9.43,9.52
34.57,10.44,0.92,10.46,0.94,-1.08,-1.27,-1.01,9.36,9.38,9.52
34.92,10.36,0.84,10.37,0.85,-0.98,-1.20,-1.00,9.38,9.39,9.52
35.27,10.37,0.85,10.37,0.85,-0.92,-1.14,-0.99,9.46,9.45,9.52
35.62,10.42,0.90,10.42,0.90,-0.89,-1.08,-0.98,9.53,9.53,9.52
35.97,10.49,0.96,10.47,0.95,-0.89,-1.03,-0.97,9.59,9.58,9.52
36.33,10.50,0.98,10.50,0.98,-0.91,-0.98,-0.95,9.59,9.59,9.52
36.70,10.49,0.97,10.50,0.98,-0.92,-0.95,-0.94,9.57,9.57,9.52
37.06,10.47,0.95,10.48,0.96,-0.92,-0.91,-0.93,9.56,9.56,9.52
37.43,10.45,0.93,10.45,0.92,-0.89,-0.88,-0.92,9.56,9.56,9.52
37.81,10.39,0.87,10.39,0.87,-0.84,-0.85,-0.90,9.56,9.56,9.52
38.19,10.33,0.82,10.32,0.80,-0.79,-0.83,-0.89,9.55,9.54,9.52
38.57,10.23,0.72,10.23,0.72,-0.75,-0.81,-0.88,9.48,9.49,9.51
38.95,10.16,0.65,10.16,0.65,-0.73,-0.79,-0.87,9.43,9.43,9.51
39.34,10.10,0.60,10.12,0.61,-0.73,-0.78,-0.86,9.37,9.38,9.51
39.74,10.13,0.62,10.14,0.64,-0.74,-0.76,-0.85,9.38,9.40,9.50
40.14,10.20,0.71,10.21,0.71,-0.75,-0.75,-0.83,9.46,9.47,9.50
40.54,10.30,0.81,10.29,0.79,-0.72,-0.74,-0.82,9.58,9.56,9.49
40.94,10.32,0.84,10.32,0.83,-0.67,-0.73,-0.81,9.65,9.65,9.49
41.35,10.27,0.79,10.26,0.78,-0.58,-0.73,-0.80,9.69,9.68,9.48
41.76,10.12,0.65,10.10,0.62,-0.47,-0.72,-0.80,9.65,9.62,9.47
42.18,9.86,0.39,9.85,0.39,-0.36,-0.71,-0.79,9.50,9.50,9.46
42.60,9.60,0.14,9.60,0.14,-0.25,-0.71,-0.78,9.35,9.35,9.46
43.03,9.36,-0.08,9.40,-0.05,-0.16,-0.71,-0.77,9.20,9.23,9.45
43.46,9.30,-0.13,9.32,-0.11,-0.11,-0.70,-0.77,9.20,9.22,9.44
43.90,9.37,-0.06,9.38,-0.05,-0.09,-0.70,-0.76,9.28,9.29,9.43
44.33,9.53,0.12,9.53,0.11,-0.11,-0.70,-0.76,9.43,9.42,9.42
44.78,9.69,0.28,9.68,0.27,-0.15,-0.69,-0.75,9.54,9.52,9.41
45.23,9.79,0.39,9.77,0.37,-0.21,-0.69,-0.75,9.58,9.56,9.40
45.68,9.78,0.40,9.78,0.39,-0.26,-0.69,-0.75,9.53,9.52,9.39
46.13,9.72,0.35,9.73,0.35,-0.28,-0.69,-0.74,9.44,9.45,9.37
46.60,9.64,0.28,9.65,0.28,-0.28,-0.69,-0.74,9.36,9.37,9.36
47.06,9.57,0.22,9.57,0.22,-0.25,-0.68,-0.74,9.32,9.32,9.35
47.53,9.51,0.17,9.51,0.17,-0.23,-0.68,-0.74,9.28,9.28,9.34
48.01,9.48,0.15,9.48,0.15,-0.23,-0.68,-0.74,9.25,9.25,9.33
48.49,9.48,0.17,9.49,0.18,-0.26,-0.68,-0.74,9.22,9.23,9.31
48.97,9.56,0.26,9.56,0.26,-0.32,-0.68,-0.74,9.23,9.24,9.30
49.46,9.66,0.38,9.67,0.38,-0.42,-0.67,-0.74,9.25,9.25,9.29
49.96,9.80,0.53,9.79,0.52,-0.52,-0.67,-0.74,9.28,9.28,9.27
50.46,9.92,0.66,9.92,0.66,-0.62,-0.67,-0.74,9.30,9.30,9.26
50.96,10.02,0.77,10.02,0.77,-0.70,-0.67,-0.74,9.32,9.32,9.24
51.47,10.08,0.85,10.07,0.84,-0.77,-0.66,-0.74,9.32,9.31,9.23
51.99,10.08,0.86,10.07,0.86,-0.80,-0.66,-0.75,9.27,9.27,9.22
52.51,10.03,0.82,10.02,0.82,-0.82,-0.65,-0.75,9.21,9.21,9.20
53.03,9.94,0.76,9.95,0.76,-0.80,-0.65,-0.75,9.14,9.15,9.19
53.56,9.86,0.69,9.87,0.70,-0.75,-0.64,-0.75,9.11,9.12,9.17
54.10,9.81,0.65,9.82,0.66,-0.68,-0.64,-0.75,9.13,9.14,9.16
54.64,9.76,0.62,9.76,0.62,-0.59,-0.63,-0.75,9.17,9.17,9.14
55.18,9.70,0.57,9.68,0.55,-0.48,-0.62,-0.75,9.22,9.20,9.13
55.74,9.56,0.45,9.55,0.44,-0.37,-0.62,-0.74,9.18,9.18,9.11
56.29,9.39,0.31,9.39,0.30,-0.27,-0.61,-0.74,9.12,9.12,9.09
56.86,9.21,0.15,9.22,0.15,-0.19,-0.60,-0.74,9.02,9.03,9.06
57.42,9.08,0.05,9.08,0.04,-0.12,-0.59,-0.73,8.96,8.96,9.04
58.00,8.98,-0.03,9.00,-0.01,-0.08,-0.58,-0.72,8.90,8.92,9.01
58.58,9.00,0.01,8.99,0.01,-0.07,-0.57,-0.71,8.93,8.92,8.99
59.16,9.03,0.07,9.03,0.07,-0.10,-0.55,-0.70,8.93,8.93,8.96
59.76,9.10,0.17,9.10,0.17,-0.16,-0.54,-0.69,8.94,8.94,8.94
60.35,9.18,0.27,9.18,0.27,-0.25,-0.53,-0.68,8.93,8.93,8.91
60.96,9.26,0.37,9.26,0.37,-0.35,-0.51,-0.66,8.91,8.91,8.89
61.57,9.33,0.47,9.33,0.47,-0.45,-0.50,-0.64,8.88,8.88,8.86
62.18,9.39,0.55,9.38,0.55,-0.54,-0.48,-0.62,8.85,8.84,8.84
62.80,9.42,0.61,9.43,0.62,-0.60,-0.46,-0.60,8.82,8.83,8.81
63.43,9.44,0.66,9.45,0.66,-0.63,-0.44,-0.58,8.81,8.82,8.79
64.07,9.44,0.68,9.44,0.68,-0.63,-0.42,-0.55,8.82,8.81,8.76
64.71,9.40,0.66,9.39,0.65,-0.60,-0.40,-0.52,8.79,8.79,8.74
65.35,9.30,0.60,9.30,0.59,-0.56,-0.38,-0.49,8.75,8.74,8.71
66.01,9.18,0.50,9.18,0.49,-0.50,-0.36,-0.46,8.68,8.68,8.68
66.67,9.04,0.39,9.05,0.39,-0.44,-0.33,-0.43,8.60,8.61,8.65
67.33,8.94,0.31,8.94,0.32,-0.38,-0.31,-0.39,8.56,8.57,8.63
68.01,8.86,0.27,8.87,0.27,-0.32,-0.28,-0.35,8.54,8.55,8.60
68.69,8.83,0.27,8.83,0.26,-0.28,-0.25,-0.31,8.56,8.55,8.57
69.37,8.80,0.27,8.80,0.26,-0.25,-0.22,-0.27,8.55,8.55,8.53
70.07,8.76,0.26,8.76,0.26,-0.23,-0.19,-0.23,8.53,8.53,8.50
70.77,8.71,0.25,8.71,0.25,-0.23,-0.16,-0.18,8.48,8.48,8.46
71.48,8.67,0.24,8.67,0.24,-0.24,-0.13,-0.13,8.42,8.42,8.42
72.19,8.62,0.24,8.62,0.24,-0.26,-0.10,-0.09,8.37,8.37,8.38
72.91,8.59,0.24,8.59,0.25,-0.27,-0.06,-0.04,8.32,8.32,8.34
73.64,8.57,0.27,8.57,0.27,-0.29,-0.03,0.01,8.28,8.28,8.31
74.38,8.56,0.29,8.56,0.29,-0.31,0.01,0.07,8.26,8.26,8.27
75.12,8.56,0.32,8.56,0.32,-0.32,0.05,0.12,8.24,8.24,8.24
75.87,8.55,0.34,8.55,0.34,-0.32,0.09,0.17,8.23,8.23,8.21
76.63,8.51,0.34,8.52,0.34,-0.30,0.13,0.23,8.21,8.21,8.18
77.40,8.47,0.31,8.46,0.31,-0.27,0.17,0.28,8.20,8.19,8.15
78.17,8.37,0.25,8.37,0.25,-0.22,0.21,0.34,8.16,8.16,8.13
78.95,8.27,0.16,8.26,0.16,-0.15,0.25,0.40,8.11,8.11,8.10
79.74,8.14,0.06,8.14,0.06,-0.07,0.30,0.46,8.06,8.06,8.07
80.54,8.01,-0.03,8.01,-0.03,0.01,0.34,0.52,8.02,8.02,8.04
81.35,7.89,-0.12,7.89,-0.12,0.09,0.39,0.58,7.99,7.99,8.01
82.16,7.79,-0.19,7.79,-0.19,0.17,0.44,0.64,7.96,7.96,7.98
82.98,7.69,-0.26,7.69,-0.26,0.24,0.49,0.70,7.93,7.93,7.95
83.81,7.60,-0.32,7.60,-0.31,0.30,0.54,0.76,7.90,7.90,7.92
84.65,7.53,-0.36,7.53,-0.35,0.35,0.59,0.83,7.88,7.88,7.89
85.50,7.47,-0.39,7.47,-0.39,0.40,0.64,0.89,7.87,7.87,7.86
86.35,7.41,-0.42,7.41,-0.42,0.45,0.69,0.96,7.86,7.85,7.83
87.22,7.34,-0.46,7.34,-0.47,0.50,0.74,1.03,7.83,7.83,7.80
88.09,7.25,-0.52,7.25,-0.53,0.54,0.80,1.09,7.79,7.79,7.77
88.97,7.15,-0.59,7.15,-0.60,0.58,0.85,1.16,7.74,7.74,7.75
89.86,7.05,-0.67,7.05,-0.66,0.62,0.91,1.23,7.67,7.67,7.72
90.76,6.96,-0.72,6.96,-0.71,0.66,0.96,1.30,7.62,7.62,7.67
91.66,6.88,-0.74,6.88,-0.73,0.70,1.02,1.37,7.58,7.58,7.62
92.58,6.80,-0.74,6.80,-0.75,0.76,1.07,1.44,7.56,7.56,7.55
93.51,6.71,-0.76,6.71,-0.77,0.82,1.13,1.52,7.54,7.53,7.48
94.44,6.60,-0.83,6.59,-0.83,0.90,1.19,1.59,7.50,7.50,7.42
95.39,6.45,-0.93,6.45,-0.94,1.00,1.25,1.66,7.45,7.45,7.39
96.34,6.29,-1.08,6.29,-1.08,1.11,1.31,1.74,7.40,7.40,7.37
97.30,6.13,-1.25,6.14,-1.24,1.22,1.36,1.81,7.36,7.36,7.38
98.28,5.99,-1.40,5.99,-1.39,1.35,1.42,1.89,7.34,7.34,7.39
99.26,5.86,-1.53,5.86,-1.52,1.48,1.48,1.96,7.33,7.33,7.38
100.25,5.73,-1.62,5.73,-1.62,1.59,1.54,2.04,7.32,7.32,7.35
101.25,5.59,-1.70,5.59,-1.70,1.70,1.60,2.12,7.29,7.28,7.29
102.27,5.44,-1.77,5.44,-1.78,1.78,1.66,2.19,7.22,7.22,7.21
103.29,5.29,-1.85,5.29,-1.85,1.84,1.72,2.27,7.14,7.14,7.14
104.32,5.15,-1.92,5.16,-1.91,1.90,1.78,2.34,7.05,7.06,7.07
105.37,5.05,-1.97,5.05,-1.97,1.96,1.84,2.42,7.00,7.00,7.02
106.42,4.96,-2.01,4.96,-2.01,2.01,1.90,2.49,6.97,6.97,6.97
107.48,4.88,-2.05,4.88,-2.05,2.08,1.95,2.56,6.96,6.96,6.93
108.56,4.79,-2.12,4.79,-2.12,2.15,2.01,2.63,6.94,6.94,6.90
109.64,4.68,-2.21,4.68,-2.21,2.23,2.07,2.70,6.91,6.91,6.88
110.74,4.55,-2.31,4.55,-2.31,2.32,2.13,2.77,6.87,6.87,6.86
111.85,4.41,-2.42,4.41,-2.42,2.42,2.19,2.84,6.83,6.83,6.84
112.97,4.27,-2.54,4.27,-2.54,2.53,2.24,2.90,6.80,6.80,6.81
114.10,4.14,-2.64,4.14,-2.64,2.63,2.30,2.96,6.77,6.77,6.78
115.24,4.01,-2.74,4.01,-2.74,2.73,2.35,3.01,6.74,6.74,6.75
116.39,3.89,-2.83,3.89,-2.83,2.83,2.41,3.07,6.71,6.71,6.72
117.55,3.77,-2.92,3.77,-2.92,2.91,2.46,3.11,6.67,6.68,6.69
118.73,3.66,-2.99,3.66,-2.99,2.98,2.51,3.16,6.64,6.64,6.65
119.92,3.56,-3.05,3.56,-3.04,3.03,2.57,3.20,6.59,6.59,6.61
121.12,3.47,-3.09,3.48,-3.08,3.08,2.62,3.24,6.55,6.55,6.56
122.33,3.40,-3.11,3.39,-3.12,3.12,2.67,3.27,6.51,6.51,6.51
123.55,3.32,-3.14,3.32,-3.14,3.15,2.72,3.30,6.47,6.46,6.46
124.79,3.24,-3.17,3.24,-3.17,3.17,2.77,3.32,6.41,6.41,6.41
126.03,3.16,-3.19,3.16,-3.19,3.20,2.81,3.33,6.36,6.36,6.35
127.29,3.09,-3.21,3.08,-3.22,3.22,2.86,3.34,6.31,6.31,6.30
128.57,3.01,-3.24,3.00,-3.24,3.24,2.91,3.35,6.25,6.25,6.25
129.85,2.92,-3.27,2.92,-3.27,3.27,2.95,3.36,6.19,6.19,6.19
131.15,2.84,-3.30,2.85,-3.29,3.30,2.99,3.36,6.14,6.14,6.14
132.46,2.77,-3.32,2.77,-3.32,3.32,3.03,3.35,6.09,6.09,6.08
133.79,2.69,-3.34,2.69,-3.34,3.34,3.07,3.34,6.03,6.03,6.03
135.12,2.61,-3.37,2.61,-3.37,3.37,3.11,3.33,5.97,5.97,5.97
136.48,2.52,-3.39,2.53,-3.39,3.39,3.15,3.31,5.91,5.91,5.92
137.84,2.45,-3.41,2.45,-3.41,3.40,3.18,3.29,5.85,5.86,5.86
139.22,2.39,-3.42,2.38,-3.42,3.42,3.22,3.27,5.80,5.80,5.80
140.61,2.32,-3.42,2.32,-3.42,3.43,3.25,3.25,5.75,5.75,5.74
142.02,2.26,-3.43,2.26,-3.43,3.43,3.28,3.22,5.69,5.69,5.69
143.44,2.20,-3.43,2.20,-3.43,3.42,3.31,3.19,5.62,5.62,5.63
144.87,2.14,-3.43,2.15,-3.43,3.41,3.34,3.16,5.55,5.56,5.58
146.32,2.11,-3.42,2.11,-3.41,3.40,3.37,3.13,5.51,5.51,5.52
147.78,2.07,-3.39,2.08,-3.39,3.39,3.39,3.10,5.47,5.47,5.47
149.26,2.05,-3.36,2.05,-3.36,3.39,3.41,3.07,5.44,5.44,5.41
150.75,2.02,-3.35,2.01,-3.35,3.38,3.44,3.04,5.40,5.40,5.36
152.26,1.96,-3.35,1.96,-3.36,3.38,3.46,3.01,5.34,5.34,5.31
153.78,1.89,-3.38,1.89,-3.38,3.38,3.47,2.98,5.27,5.27,5.26
155.32,1.81,-3.40,1.82,-3.40,3.37,3.49,2.96,5.19,5.19,5.22
156.88,1.76,-3.41,1.77,-3.41,3.37,3.51,2.93,5.13,5.14,5.17
158.44,1.73,-3.40,1.73,-3.39,3.37,3.52,2.90,5.10,5.10,5.13
160.03,1.71,-3.37,1.71,-3.37,3.37,3.53,2.87,5.08,5.07,5.08
161.63,1.69,-3.35,1.68,-3.35,3.36,3.54,2.85,5.05,5.05,5.03
163.24,1.65,-3.33,1.65,-3.33,3.36,3.55,2.83,5.01,5.01,4.98
164.88,1.60,-3.33,1.59,-3.34,3.35,3.56,2.81,4.95,4.95,4.93
166.53,1.53,-3.35,1.53,-3.35,3.35,3.56,2.79,4.88,4.88,4.88
168.19,1.45,-3.36,1.46,-3.36,3.36,3.56,2.77,4.81,4.82,4.82
169.87,1.38,-3.38,1.38,-3.38,3.37,3.57,2.76,4.75,4.75,4.76
171.57,1.31,-3.39,1.31,-3.39,3.38,3.56,2.75,4.69,4.69,4.70
173.29,1.23,-3.40,1.23,-3.40,3.40,3.56,2.74,4.63,4.63,4.63
175.02,1.16,-3.41,1.16,-3.41,3.42,3.56,2.73,4.58,4.58,4.57
176.77,1.09,-3.42,1.09,-3.42,3.43,3.55,2.72,4.52,4.52,4.51
178.54,1.02,-3.43,1.02,-3.43,3.44,3.55,2.72,4.45,4.45,4.44
180.32,0.95,-3.43,0.95,-3.44,3.44,3.54,2.72,4.38,4.38,4.38
182.13,0.88,-3.44,0.88,-3.44,3.43,3.53,2.72,4.31,4.31,4.32
183.95,0.83,-3.43,0.83,-3.43,3.41,3.52,2.72,4.24,4.24,4.26
185.79,0.79,-3.41,0.79,-3.41,3.38,3.50,2.72,4.17,4.17,4.19
187.65,0.76,-3.37,0.76,-3.37,3.34,3.49,2.73,4.10,4.11,4.13
189.52,0.75,-3.31,0.75,-3.31,3.29,3.47,2.74,4.05,4.05,4.06
191.42,0.75,-3.24,0.75,-3.24,3.24,3.46,2.75,4.00,4.00,4.00
193.33,0.75,-3.18,0.75,-3.18,3.19,3.44,2.76,3.94,3.94,3.93
195.27,0.74,-3.12,0.74,-3.12,3.14,3.42,2.78,3.89,3.89,3.86
197.22,0.72,-3.08,0.72,-3.08,3.11,3.39,2.79,3.83,3.82,3.80
199.19,0.68,-3.05,0.68,-3.05,3.08,3.37,2.81,3.76,3.76,3.73
201.18,0.62,-3.04,0.62,-3.05,3.07,3.35,2.83,3.69,3.69,3.66
203.19,0.55,-3.05,0.54,-3.06,3.07,3.32,2.85,3.61,3.61,3.60
205.23,0.46,-3.08,0.46,-3.07,3.07,3.29,2.86,3.52,3.52,3.53
207.28,0.38,-3.09,0.38,-3.09,3.06,3.27,2.88,3.44,3.44,3.47
209.35,0.31,-3.10,0.31,-3.09,3.06,3.24,2.91,3.36,3.37,3.40
211.44,0.26,-3.07,0.26,-3.07,3.04,3.20,2.93,3.30,3.31,3.33
213.56,0.23,-3.03,0.23,-3.03,3.02,3.17,2.95,3.25,3.25,3.26
215.69,0.20,-2.98,0.20,-2.98,2.99,3.14,2.97,3.19,3.19,3.19
217.85,0.18,-2.94,0.17,-2.94,2.95,3.10,2.98,3.12,3.12,3.11
220.03,0.14,-2.89,0.14,-2.89,2.90,3.07,3.00,3.05,3.04,3.04
222.23,0.11,-2.85,0.11,-2.85,2.86,3.03,3.02,2.96,2.96,2.96
224.45,0.07,-2.82,0.07,-2.82,2.82,3.00,3.03,2.89,2.89,2.89
226.70,0.03,-2.79,0.03,-2.79,2.79,2.96,3.05,2.82,2.82,2.82
228.96,-0.00,-2.77,-0.00,-2.77,2.78,2.92,3.06,2.77,2.77,2.76
231.25,-0.03,-2.75,-0.03,-2.75,2.77,2.88,3.06,2.74,2.74,2.72
233.57,-0.06,-2.75,-0.06,-2.75,2.77,2.83,3.07,2.71,2.71,2.69
235.90,-0.08,-2.76,-0.08,-2.77,2.78,2.79,3.07,2.70,2.70,2.68
238.26,-0.10,-2.79,-0.10,-2.79,2.79,2.75,3.06,2.69,2.69,2.69
240.64,-0.12,-2.81,-0.12,-2.81,2.80,2.70,3.06,2.69,2.69,2.69
243.05,-0.13,-2.83,-0.13,-2.83,2.82,2.66,3.05,2.69,2.69,2.70
245.48,-0.14,-2.83,-0.14,-2.84,2.82,2.61,3.03,2.68,2.68,2.69
247.93,-0.15,-2.83,-0.15,-2.83,2.82,2.57,3.01,2.67,2.67,2.68
250.41,-0.16,-2.82,-0.16,-2.82,2.81,2.52,2.98,2.64,2.64,2.66
252.92,-0.18,-2.79,-0.18,-2.79,2.79,2.47,2.96,2.61,2.61,2.62
255.45,-0.19,-2.76,-0.19,-2.76,2.75,2.42,2.92,2.57,2.57,2.57
258.00,-0.20,-2.71,-0.20,-2.71,2.71,2.37,2.88,2.51,2.52,2.52
260.58,-0.20,-2.66,-0.20,-2.66,2.66,2.32,2.84,2.46,2.46,2.46
263.19,-0.21,-2.60,-0.21,-2.60,2.61,2.27,2.79,2.41,2.41,2.40
265.82,-0.21,-2.55,-0.21,-2.55,2.56,2.22,2.74,2.34,2.34,2.33
268.48,-0.22,-2.49,-0.22,-2.49,2.50,2.17,2.69,2.28,2.27,2.27
271.16,-0.23,-2.44,-0.23,-2.44,2.44,2.11,2.63,2.20,2.20,2.20
273.87,-0.24,-2.38,-0.24,-2.38,2.37,2.06,2.57,2.13,2.14,2.14
276.61,-0.24,-2.32,-0.24,-2.31,2.31,2.01,2.50,2.07,2.07,2.08
279.38,-0.23,-2.24,-0.23,-2.24,2.24,1.95,2.43,2.01,2.01,2.01
282.17,-0.22,-2.17,-0.22,-2.17,2.17,1.90,2.36,1.95,1.95,1.95
284.99,-0.20,-2.09,-0.20,-2.09,2.10,1.84,2.29,1.90,1.89,1.89
287.84,-0.19,-2.02,-0.19,-2.02,2.03,1.78,2.21,1.83,1.83,1.83
290.72,-0.18,-1.95,-0.18,-1.95,1.95,1.73,2.13,1.77,1.77,1.77
293.63,-0.17,-1.88,-0.17,-1.87,1.87,1.67,2.05,1.71,1.71,1.71
296.57,-0.15,-1.80,-0.15,-1.80,1.80,1.61,1.97,1.64,1.64,1.65
299.53,-0.14,-1.72,-0.14,-1.72,1.72,1.55,1.89,1.58,1.58,1.59
302.53,-0.12,-1.65,-0.12,-1.65,1.64,1.49,1.81,1.52,1.52,1.53
305.55,-0.10,-1.57,-0.10,-1.57,1.57,1.43,1.72,1.47,1.47,1.47
308.61,-0.08,-1.48,-0.08,-1.49,1.49,1.37,1.64,1.41,1.41,1.41
311.69,-0.05,-1.40,-0.05,-1.40,1.41,1.31,1.55,1.35,1.35,1.35
314.81,-0.03,-1.33,-0.03,-1.33,1.33,1.25,1.47,1.29,1.29,1.29
317.96,-0.01,-1.25,-0.01,-1.25,1.25,1.19,1.38,1.24,1.24,1.24
321.14,0.01,-1.17,0.01,-1.17,1.17,1.13,1.30,1.18,1.18,1.18
324.35,0.03,-1.09,0.03,-1.09,1.09,1.07,1.21,1.12,1.12,1.12
327.59,0.05,-1.01,0.05,-1.01,1.01,1.00,1.12,1.07,1.07,1.07
330.87,0.08,-0.93,0.08,-0.93,0.93,0.94,1.04,1.01,1.01,1.01
334.18,0.10,-0.86,0.10,-0.86,0.86,0.88,0.95,0.96,0.96,0.96
337.52,0.12,-0.78,0.12,-0.78,0.78,0.81,0.87,0.90,0.90,0.90
340.90,0.14,-0.70,0.14,-0.70,0.70,0.75,0.78,0.85,0.85,0.85
344.30,0.17,-0.63,0.17,-0.63,0.63,0.69,0.70,0.80,0.80,0.79
347.75,0.19,-0.55,0.19,-0.55,0.55,0.62,0.62,0.74,0.74,0.74
351.23,0.21,-0.48,0.21,-0.48,0.48,0.56,0.53,0.69,0.69,0.69
354.74,0.23,-0.41,0.23,-0.41,0.41,0.49,0.45,0.64,0.64,0.64
358.28,0.25,-0.33,0.25,-0.33,0.33,0.43,0.37,0.59,0.59,0.59
361.87,0.27,-0.26,0.27,-0.26,0.26,0.36,0.28,0.53,0.53,0.53
365.49,0.30,-0.19,0.30,-0.19,0.19,0.30,0.20,0.48,0.48,0.48
369.14,0.32,-0.11,0.32,-0.11,0.11,0.23,0.12,0.43,0.43,0.43
372.83,0.34,-0.04,0.34,-0.04,0.04,0.16,0.04,0.38,0.38,0.38
376.56,0.36,0.03,0.36,0.03,-0.03,0.10,-0.04,0.33,0.33,0.33
380.33,0.38,0.11,0.38,0.11,-0.11,0.03,-0.12,0.28,0.28,0.28
384.13,0.41,0.18,0.41,0.18,-0.18,-0.04,-0.20,0.23,0.23,0.23
387.97,0.43,0.26,0.43,0.26,-0.26,-0.10,-0.28,0.18,0.18,0.18
391.85,0.46,0.33,0.46,0.33,-0.33,-0.17,-0.36,0.13,0.13,0.13
395.77,0.48,0.40,0.48,0.40,-0.40,-0.23,-0.44,0.08,0.08,0.08
399.73,0.50,0.47,0.50,0.47,-0.47,-0.30,-0.52,0.03,0.03,0.03
403.72,0.52,0.54,0.52,0.54,-0.54,-0.37,-0.60,-0.02,-0.02,-0.02
407.76,0.54,0.61,0.54,0.61,-0.60,-0.43,-0.67,-0.06,-0.06,-0.06
411.84,0.56,0.67,0.56,0.67,-0.67,-0.50,-0.75,-0.11,-0.11,-0.11
415.96,0.57,0.73,0.57,0.73,-0.73,-0.56,-0.82,-0.16,-0.16,-0.16
420.12,0.59,0.79,0.59,0.79,-0.79,-0.63,-0.90,-0.20,-0.20,-0.20
424.32,0.60,0.85,0.60,0.85,-0.85,-0.69,-0.97,-0.25,-0.25,-0.25
428.56,0.61,0.91,0.61,0.91,-0.91,-0.76,-1.04,-0.29,-0.29,-0.29
432.85,0.62,0.96,0.62,0.96,-0.96,-0.82,-1.11,-0.34,-0.34,-0.34
437.18,0.63,1.01,0.63,1.01,-1.01,-0.88,-1.17,-0.38,-0.38,-0.38
441.55,0.64,1.06,0.64,1.06,-1.06,-0.95,-1.24,-0.43,-0.43,-0.43
445.96,0.64,1.11,0.64,1.11,-1.11,-1.01,-1.30,-0.47,-0.47,-0.47
450.42,0.65,1.16,0.65,1.16,-1.16,-1.07,-1.36,-0.51,-0.51,-0.51
454.93,0.66,1.21,0.66,1.21,-1.21,-1.13,-1.42,-0.55,-0.56,-0.56
459.48,0.66,1.26,0.66,1.26,-1.26,-1.19,-1.47,-0.60,-0.60,-0.60
464.07,0.67,1.30,0.67,1.30,-1.30,-1.24,-1.52,-0.64,-0.64,-0.64
468.71,0.67,1.35,0.67,1.35,-1.35,-1.30,-1.57,-0.68,-0.68,-0.68
473.40,0.67,1.39,0.67,1.39,-1.40,-1.36,-1.61,-0.72,-0.72,-0.72
478.13,0.68,1.44,0.68,1.44,-1.44,-1.41,-1.65,-0.76,-0.76,-0.76
482.91,0.68,1.48,0.68,1.48,-1.48,-1.46,-1.69,-0.80,-0.80,-0.80
487.74,0.68,1.52,0.68,1.52,-1.52,-1.51,-1.72,-0.84,-0.84,-0.84
492.62,0.69,1.56,0.69,1.56,-1.56,-1.56,-1.75,-0.88,-0.88,-0.88
497.55,0.69,1.60,0.69,1.60,-1.60,-1.61,-1.77,-0.91,-0.91,-0.92
502.52,0.69,1.64,0.69,1.64,-1.64,-1.66,-1.79,-0.95,-0.95,-0.95
507.55,0.68,1.67,0.68,1.67,-1.67,-1.70,-1.81,-0.99,-0.99,-0.99
512.62,0.68,1.71,0.68,1.71,-1.70,-1.74,-1.82,-1.02,-1.02,-1.02
517.75,0.68,1.74,0.68,1.74,-1.74,-1.78,-1.83,-1.06,-1.06,-1.06
522.93,0.67,1.76,0.67,1.76,-1.76,-1.82,-1.84,-1.09,-1.09,-1.09
528.16,0.66,1.79,0.66,1.79,-1.79,-1.86,-1.84,-1.13,-1.13,-1.13
533.44,0.66,1.82,0.66,1.82,-1.82,-1.89,-1.84,-1.16,-1.16,-1.16
